TimeStamp,ECR,FCR,ECU,FCU
312415.7197,-10783.96,-371.5,-1579.67,-4242.33
312415.7207,-10858.97,-446.51,-1645.76,-4305.36
312415.7217,-10984.95,-576.45,-1776.65,-4424.05
312415.7227,-11151.12,-742.2,-1945.54,-4576.49
312415.7237,-11321.5,-909.61,-2122.59,-4736.14
312415.7247,-11459.54,-1043.32,-2263.98,-4861.55
312415.7257,-11563.16,-1144.74,-2374.08,-4958.11
312415.7267,-11660.34,-1242.73,-2480.51,-5050.14
312415.7277,-11722.8,-1304.91,-2550.22,-5113.7
312415.7287,-11747.65,-1319.84,-2571.06,-5131.96
312415.7297,-11726.05,-1284.93,-2537.49,-5103.49
312415.7307,-11624.58,-1184.13,-2430.3,-5008.65
312415.7317,-11504.17,-1066.78,-2314.0,-4898.5
312415.7327,-11372.76,-943.76,-2192.69,-4783.82
312415.7337,-11233.66,-807.19,-2064.66,-4661.66
312415.7347,-11091.95,-668.76,-1918.55,-4537.44
312415.7357,-10958.01,-541.64,-1774.36,-4421.57
312415.7367,-10845.61,-435.11,-1666.07,-4324.34
312415.7377,-10792.78,-383.66,-1624.58,-4276.13
312415.7387,-10770.94,-366.31,-1608.94,-4259.97
312415.7397,-10782.91,-388.0,-1622.3,-4277.37
312415.7407,-10868.26,-473.55,-1725.15,-4350.95
312415.7417,-10998.11,-596.0,-1874.54,-4459.81
312415.7427,-11128.67,-719.88,-1997.66,-4572.06
312415.7437,-11276.39,-857.88,-2107.33,-4698.32
312415.7447,-11433.79,-1002.26,-2251.82,-4831.03
312415.7457,-11584.86,-1143.41,-2392.96,-4963.3
312415.7467,-11715.65,-1255.56,-2501.34,-5075.12
312415.7477,-11789.9,-1323.41,-2574.16,-5137.11
312415.7487,-11813.4,-1350.36,-2611.83,-5158.38
312415.7497,-11787.51,-1321.89,-2592.9,-5132.77
312415.7507,-11687.71,-1224.37,-2487.04,-5043.08
312415.7517,-11563.45,-1102.88,-2360.53,-4931.26
312415.7527,-11415.96,-964.74,-2222.49,-4803.52
312415.7537,-11237.24,-802.47,-2053.5,-4655.31
312415.7547,-11072.97,-651.17,-1887.89,-4511.4
312415.7557,-10937.88,-517.61,-1746.99,-4388.43
312415.7567,-10818.48,-397.49,-1632.98,-4283.05
312415.7577,-10755.78,-333.88,-1585.34,-4231.17
312415.7587,-10750.58,-327.44,-1566.74,-4225.73
312415.7597,-10783.2,-361.59,-1582.72,-4250.91
312415.7607,-10873.61,-453.0,-1674.18,-4330.35
312415.7617,-11001.54,-577.88,-1802.49,-4447.32
312415.7627,-11148.02,-724.98,-1945.64,-4580.55
312415.7637,-11302.23,-877.57,-2104.85,-4720.97
312415.7647,-11464.41,-1030.16,-2261.64,-4867.08
312415.7657,-11617.85,-1167.92,-2410.6,-5001.16
312415.7667,-11723.33,-1267.34,-2517.99,-5093.91
312415.7677,-11775.78,-1311.49,-2569.87,-5135.16
312415.7687,-11798.1,-1325.18,-2588.65,-5145.12
312415.7697,-11790.47,-1309.2,-2570.72,-5129.15
312415.7707,-11718.32,-1237.25,-2497.29,-5061.01
312415.7717,-11606.03,-1131.06,-2393.87,-4958.25
312415.7727,-11472.99,-1003.6,-2267.27,-4838.42
312415.7737,-11323.26,-858.02,-2115.58,-4696.32
312415.7747,-11186.84,-718.07,-1958.8,-4559.71
312415.7757,-11032.73,-574.16,-1793.77,-4431.58
312415.7767,-10835.17,-409.08,-1621.1,-4279.47
312415.7777,-10713.53,-302.65,-1522.49,-4182.82
312415.7787,-10669.66,-266.36,-1481.77,-4146.39
312415.7797,-10694.46,-297.59,-1518.58,-4176.71
312415.7807,-10790.78,-392.77,-1628.21,-4271.46
312415.7817,-10919.38,-520.52,-1750.04,-4386.14
312415.7827,-11099.91,-691.7,-1915.5,-4543.88
312415.7837,-11297.99,-873.61,-2098.89,-4713.77
312415.7847,-11443.23,-1016.86,-2245.47,-4838.04
312415.7857,-11573.51,-1153.71,-2383.18,-4958.68
312415.7867,-11700.92,-1274.78,-2514.41,-5080.27
312415.7877,-11773.44,-1335.19,-2591.51,-5146.07
312415.7887,-11789.66,-1335.53,-2606.11,-5153.18
312415.7897,-11766.15,-1300.53,-2574.49,-5125.05
312415.7907,-11699.49,-1223.8,-2514.98,-5057.19
312415.7917,-11586.14,-1110.51,-2427.91,-4953.19
312415.7927,-11413.05,-947.67,-2261.02,-4802.18
312415.7937,-11230.14,-774.19,-2057.27,-4638.62
312415.7947,-11075.16,-630.66,-1896.05,-4497.48
312415.7957,-10937.98,-501.11,-1754.81,-4367.64
312415.7967,-10816.91,-387.86,-1612.95,-4258.11
312415.7977,-10751.44,-336.5,-1535.94,-4213.76
312415.7987,-10743.91,-340.22,-1546.67,-4219.53
312415.7997,-10783.53,-381.42,-1603.56,-4259.4
312415.8007,-10861.87,-465.92,-1689.05,-4337.03
312415.8017,-10966.83,-573.87,-1788.19,-4435.02
312415.8027,-11105.25,-704.96,-1913.5,-4560.76
312415.8037,-11255.31,-847.91,-2072.33,-4695.27
312415.8047,-11402.32,-985.48,-2234.98,-4820.73
312415.8057,-11541.18,-1123.95,-2368.97,-4945.37
312415.8067,-11662.82,-1246.07,-2476.69,-5059.29
312415.8077,-11737.87,-1313.78,-2546.07,-5125.19
312415.8087,-11774.06,-1339.34,-2595.71,-5154.94
312415.8097,-11759.19,-1316.69,-2582.6,-5134.63
312415.8107,-11656.0,-1213.5,-2480.13,-5036.74
312415.8117,-11513.43,-1078.42,-2340.84,-4906.75
312415.8127,-11370.52,-932.98,-2190.78,-4769.9
312415.8137,-11239.2,-796.37,-2045.3,-4642.77
312415.8147,-11111.21,-669.77,-1910.5,-4524.95
312415.8157,-10977.89,-537.73,-1778.46,-4405.59
312415.8167,-10853.96,-423.77,-1660.2,-4300.4
312415.8177,-10797.45,-372.84,-1604.41,-4252.86
312415.8187,-10790.64,-370.55,-1599.41,-4246.33
312415.8197,-10823.92,-405.69,-1641.94,-4276.37
312415.8207,-10904.31,-488.9,-1731.11,-4359.34
312415.8217,-11005.31,-595.52,-1842.12,-4461.43
312415.8227,-11140.78,-729.27,-1979.26,-4587.89
312415.8237,-11305.62,-881.96,-2132.46,-4730.03
312415.8247,-11464.69,-1029.25,-2277.8,-4868.17
312415.8257,-11603.07,-1158.05,-2406.69,-4990.24
312415.8267,-11706.4,-1251.79,-2503.97,-5075.31
312415.8277,-11765.62,-1300.86,-2556.85,-5123.71
312415.8287,-11794.95,-1317.12,-2578.07,-5142.88
312415.8297,-11783.79,-1298.95,-2568.87,-5127.72
312415.8307,-11703.4,-1217.65,-2495.1,-5048.9
312415.8317,-11580.37,-1098.11,-2386.76,-4934.98
312415.8327,-11435.61,-953.39,-2244.33,-4805.76
312415.8337,-11272.53,-792.93,-2064.32,-4658.89
312415.8347,-11122.94,-648.69,-1894.28,-4519.03
312415.8357,-10976.6,-520.23,-1749.28,-4391.1
312415.8367,-10852.86,-417.09,-1659.06,-4288.24
312415.8377,-10788.54,-369.98,-1642.8,-4240.47
312415.8387,-10759.59,-357.34,-1624.06,-4224.97
312415.8397,-10780.1,-387.53,-1613.95,-4249.72
312415.8407,-10873.27,-486.23,-1695.01,-4343.51
312415.8417,-11015.8,-627.57,-1837.3,-4478.17
312415.8427,-11158.8,-765.13,-1942.68,-4602.0
312415.8437,-11301.71,-900.03,-2050.83,-4719.11
312415.8447,-11448.1,-1031.11,-2204.28,-4840.09
312415.8457,-11581.42,-1148.37,-2352.0,-4952.62
312415.8467,-11699.2,-1261.19,-2481.56,-5056.52
312415.8477,-11767.58,-1323.41,-2565.67,-5117.94
312415.8487,-11776.97,-1333.05,-2590.99,-5137.63
312415.8497,-11765.29,-1313.78,-2579.59,-5130.77
312415.8507,-11693.43,-1232.29,-2493.91,-5052.61
312415.8517,-11545.23,-1096.44,-2331.83,-4924.97
312415.8527,-11371.42,-941.85,-2175.28,-4782.01
312415.8537,-11200.62,-772.0,-2025.18,-4625.42
312415.8547,-11063.2,-624.8,-1895.38,-4493.28
312415.8557,-10925.49,-486.95,-1748.42,-4370.07
312415.8567,-10791.97,-365.26,-1619.34,-4257.06
312415.8577,-10729.5,-305.51,-1561.78,-4198.17
312415.8587,-10740.38,-311.33,-1566.46,-4200.17
312415.8597,-10787.35,-353.05,-1605.46,-4237.94
312415.8607,-10890.87,-455.19,-1702.5,-4328.35
312415.8617,-11019.9,-589.37,-1822.76,-4447.17
312415.8627,-11171.49,-740.24,-1967.14,-4587.56
312415.8637,-11325.22,-900.65,-2128.65,-4738.9
312415.8647,-11459.88,-1044.51,-2267.31,-4870.56
312415.8657,-11580.18,-1171.21,-2394.53,-4985.95
312415.8667,-11680.37,-1271.53,-2506.54,-5078.65
312415.8677,-11710.6,-1303.48,-2543.64,-5108.79
312415.8687,-11695.0,-1286.79,-2523.04,-5090.0
312415.8697,-11686.47,-1266.29,-2510.5,-5075.65
312415.8707,-11646.75,-1206.68,-2463.2,-5033.73
312415.8717,-11545.75,-1099.68,-2370.79,-4935.93
312415.8727,-11403.61,-958.25,-2231.6,-4802.9
312415.8737,-11237.91,-790.21,-2042.39,-4648.26
312415.8747,-11080.17,-634.29,-1887.61,-4498.01
312415.8757,-10950.09,-509.36,-1769.92,-4378.84
312415.8767,-10855.15,-422.62,-1660.68,-4291.63
312415.8777,-10794.78,-374.03,-1597.83,-4246.66
312415.8787,-10772.99,-357.82,-1592.35,-4231.41
312415.8797,-10794.59,-383.52,-1617.86,-4249.76
312415.8807,-10884.14,-473.69,-1702.02,-4331.83
312415.8817,-11024.43,-611.54,-1832.01,-4461.0
312415.8827,-11187.13,-770.43,-1982.02,-4613.35
312415.8837,-11344.91,-926.11,-2138.42,-4762.22
312415.8847,-11498.79,-1071.79,-2286.53,-4894.54
312415.8857,-11632.92,-1202.15,-2406.88,-5008.17
312415.8867,-11739.78,-1309.82,-2524.71,-5113.7
312415.8877,-11786.8,-1350.26,-2591.56,-5157.19
312415.8887,-11793.52,-1345.4,-2622.56,-5151.22
312415.8897,-11757.28,-1303.15,-2576.07,-5111.31
312415.8907,-11668.68,-1206.59,-2455.9,-5021.19
312415.8917,-11549.9,-1086.19,-2327.73,-4909.95
312415.8927,-11410.05,-947.71,-2204.37,-4789.45
312415.8937,-11249.97,-799.23,-2066.04,-4651.55
312415.8947,-11069.01,-639.87,-1906.01,-4498.72
312415.8957,-10897.16,-484.99,-1750.99,-4350.23
312415.8967,-10774.18,-372.89,-1637.17,-4245.42
312415.8977,-10730.94,-337.12,-1598.55,-4211.66
312415.8987,-10732.8,-342.89,-1583.77,-4213.72
312415.8997,-10769.32,-381.66,-1605.42,-4248.91
312415.9007,-10841.8,-464.87,-1677.37,-4315.9
312415.9017,-10963.63,-589.7,-1806.93,-4431.87
312415.9027,-11123.37,-734.76,-1954.65,-4574.11
312415.9037,-11298.09,-897.84,-2107.91,-4731.37
312415.9047,-11464.98,-1055.77,-2254.87,-4877.95
312415.9057,-11613.51,-1196.38,-2393.39,-5007.08
312415.9067,-11730.58,-1304.72,-2513.22,-5109.17
312415.9077,-11796.33,-1359.37,-2586.32,-5164.48
312415.9087,-11819.32,-1376.49,-2600.72,-5180.26
312415.9097,-11803.96,-1353.07,-2568.58,-5158.38
312415.9107,-11718.47,-1260.33,-2468.63,-5071.12
312415.9117,-11569.22,-1111.08,-2316.57,-4928.3
312415.9127,-11369.9,-920.77,-2144.29,-4745.29
312415.9137,-11214.5,-760.79,-2041.2,-4603.72
312415.9147,-11097.91,-646.16,-1950.12,-4506.4
312415.9157,-10961.92,-517.94,-1826.38,-4388.33
312415.9167,-10842.52,-401.83,-1699.45,-4279.71
312415.9177,-10794.64,-357.82,-1633.74,-4242.99
312415.9187,-10804.85,-372.41,-1630.12,-4259.49
312415.9197,-10812.86,-394.3,-1621.44,-4279.42
312415.9207,-10873.08,-465.01,-1664.35,-4344.75
312415.9217,-11002.26,-590.37,-1792.38,-4452.9
312415.9227,-11139.63,-720.31,-1930.33,-4563.43
312415.9237,-11274.2,-853.87,-2062.65,-4678.44
312415.9247,-11433.89,-1013.04,-2216.01,-4824.21
312415.9257,-11601.97,-1181.08,-2390.96,-4984.57
312415.9267,-11738.64,-1313.26,-2542.16,-5112.74
312415.9277,-11820.65,-1382.16,-2620.65,-5179.07
312415.9287,-11822.08,-1359.65,-2621.03,-5159.24
312415.9297,-11782.27,-1307.06,-2585.27,-5114.51
312415.9307,-11731.34,-1243.07,-2544.74,-5068.06
312415.9317,-11658.96,-1153.8,-2467.44,-4992.44
312415.9327,-11487.06,-981.43,-2264.45,-4829.98
312415.9337,-11275.63,-777.05,-2027.13,-4633.95
312415.9347,-11104.06,-615.69,-1872.87,-4482.37
312415.9357,-10940.55,-478.36,-1738.12,-4347.56
312415.9367,-10797.6,-364.64,-1609.18,-4238.37
312415.9377,-10736.99,-322.96,-1556.78,-4197.84
312415.9387,-10740.81,-332.21,-1553.15,-4205.42
312415.9397,-10786.87,-384.43,-1598.07,-4258.35
312415.9407,-10872.84,-478.65,-1681.85,-4347.47
312415.9417,-10969.5,-574.78,-1777.17,-4431.01
312415.9427,-11099.29,-698.95,-1902.01,-4541.68
312415.9437,-11272.0,-869.32,-2075.67,-4702.23
312415.9447,-11430.5,-1029.3,-2239.18,-4851.39
312415.9457,-11563.68,-1156.62,-2382.04,-4968.74
312415.9467,-11671.74,-1250.6,-2489.9,-5055.62
312415.9477,-11729.77,-1297.47,-2554.27,-5104.64
312415.9487,-11718.94,-1289.22,-2547.65,-5102.11
312415.9497,-11674.83,-1245.64,-2493.05,-5066.49
312415.9507,-11614.04,-1176.07,-2424.91,-5002.59
312415.9517,-11522.1,-1079.37,-2327.49,-4914.81
312415.9527,-11381.68,-944.71,-2193.12,-4789.35
312415.9537,-11225.51,-790.36,-2043.53,-4642.87
312415.9547,-11079.5,-646.73,-1898.1,-4509.5
312415.9557,-10944.56,-510.55,-1763.68,-4381.13
312415.9567,-10833.65,-398.02,-1652.24,-4275.56
312415.9577,-10791.49,-356.29,-1607.85,-4236.32
312415.9587,-10792.97,-362.01,-1616.81,-4241.8
312415.9597,-10825.44,-399.64,-1655.39,-4276.47
312415.9607,-10921.1,-494.53,-1748.42,-4359.53
312415.9617,-11055.09,-623.99,-1879.12,-4476.4
312415.9627,-11205.77,-773.67,-2028.04,-4613.64
312415.9637,-11360.5,-929.07,-2168.27,-4753.4
312415.9647,-11486.05,-1058.72,-2288.91,-4874.33
312415.9657,-11592.01,-1172.59,-2407.88,-4979.71
312415.9667,-11690.28,-1262.57,-2508.55,-5069.4
312415.9677,-11749.65,-1313.5,-2557.09,-5127.19
312415.9687,-11774.02,-1330.52,-2575.06,-5154.04
312415.9697,-11732.1,-1289.94,-2537.16,-5120.28
312415.9707,-11630.82,-1183.75,-2439.12,-5021.86
312415.9717,-11517.24,-1061.77,-2327.68,-4904.41
312415.9727,-11381.53,-924.64,-2187.63,-4771.85
312415.9737,-11241.68,-782.82,-2023.03,-4635.86
312415.9747,-11099.96,-637.44,-1863.86,-4494.52
312415.9757,-10969.07,-501.78,-1740.41,-4366.88
312415.9767,-10881.47,-413.37,-1661.4,-4288.53
312415.9777,-10829.69,-371.17,-1606.66,-4244.42
312415.9787,-10798.88,-362.92,-1577.23,-4225.64
312415.9797,-10814.62,-397.16,-1609.95,-4251.19
312415.9807,-10899.31,-487.33,-1716.23,-4335.26
312415.9817,-11024.71,-605.2,-1844.5,-4447.22
312415.9827,-11169.53,-751.35,-1982.74,-4582.88
312415.9837,-11332.47,-912.19,-2144.67,-4735.8
312415.9847,-11488.01,-1057.86,-2302.17,-4876.95
312415.9857,-11625.86,-1190.47,-2444.6,-5006.5
312415.9867,-11727.76,-1294.61,-2547.55,-5103.64
312415.9877,-11768.06,-1337.34,-2582.65,-5145.69
312415.9887,-11774.88,-1335.19,-2575.21,-5146.55
312415.9897,-11742.12,-1301.72,-2533.29,-5117.04
312415.9907,-11658.38,-1215.46,-2455.33,-5041.6
312415.9917,-11550.43,-1104.74,-2353.86,-4938.94
312415.9927,-11416.29,-968.07,-2205.04,-4808.0
312415.9937,-11264.85,-816.54,-2055.74,-4665.66
312415.9947,-11117.08,-668.86,-1916.89,-4529.0
312415.9957,-10961.49,-528.38,-1770.93,-4394.67
312415.9967,-10824.68,-406.89,-1642.47,-4276.75
312415.9977,-10761.64,-348.95,-1581.72,-4218.25
312415.9987,-10736.8,-327.25,-1568.41,-4196.79
312415.9997,-10753.97,-349.81,-1597.02,-4218.86
312416.0007,-10857.54,-454.52,-1708.32,-4316.52
312416.0017,-11006.26,-595.86,-1868.82,-4449.03
312416.0027,-11171.87,-751.78,-2038.72,-4594.71
312416.0037,-11337.62,-907.09,-2191.11,-4743.86
312416.0047,-11476.71,-1036.21,-2311.85,-4864.6
312416.0057,-11597.59,-1155.23,-2425.29,-4975.46
312416.0067,-11694.24,-1259.66,-2514.12,-5067.06
312416.0077,-11766.15,-1329.71,-2555.8,-5133.34
312416.0087,-11797.14,-1356.7,-2550.65,-5163.0
312416.0097,-11775.83,-1329.95,-2516.22,-5144.36
312416.0107,-11692.19,-1247.02,-2453.85,-5068.73
312416.0117,-11555.39,-1113.13,-2334.21,-4944.13
312416.0127,-11391.59,-946.71,-2184.44,-4785.73
312416.0137,-11238.15,-789.45,-2030.75,-4634.43
312416.0147,-11089.9,-644.35,-1885.56,-4497.34
312416.0157,-10945.85,-499.11,-1753.43,-4365.4
312416.0167,-10810.52,-366.83,-1616.19,-4240.23
312416.0177,-10732.99,-296.83,-1538.56,-4173.8
312416.0187,-10737.85,-302.03,-1548.58,-4177.14
312416.0197,-10795.45,-364.11,-1604.89,-4232.93
312416.0207,-10916.81,-489.19,-1708.94,-4344.03
312416.0217,-11040.97,-620.32,-1835.2,-4460.05
312416.0227,-11155.08,-757.31,-1974.44,-4581.74
312416.0237,-11286.45,-905.37,-2114.15,-4713.44
312416.0247,-11435.89,-1044.85,-2262.64,-4848.96
312416.0257,-11590.24,-1175.74,-2411.7,-4983.38
312416.0267,-11712.98,-1277.02,-2520.04,-5087.04
312416.0277,-11770.77,-1321.13,-2579.4,-5135.87
312416.0287,-11788.89,-1326.89,-2611.07,-5145.98
312416.0297,-11755.18,-1290.37,-2573.63,-5111.5
312416.0307,-11648.27,-1188.14,-2451.85,-5013.8
312416.0317,-11519.34,-1058.29,-2315.09,-4894.11
312416.0327,-11368.51,-906.66,-2153.92,-4754.11
312416.0337,-11215.74,-763.94,-1995.66,-4621.22
312416.0347,-11085.56,-638.68,-1893.33,-4504.73
312416.0357,-10962.44,-521.09,-1782.13,-4392.34
312416.0367,-10851.53,-421.71,-1662.87,-4300.79
312416.0377,-10803.03,-382.23,-1584.82,-4260.87
312416.0387,-10788.39,-373.27,-1551.25,-4245.95
312416.0397,-10811.38,-396.3,-1586.25,-4262.07
312416.0407,-10877.18,-463.44,-1665.07,-4320.34
312416.0417,-10988.81,-576.11,-1777.98,-4424.43
312416.0427,-11149.6,-736.81,-1942.21,-4575.73
312416.0437,-11318.92,-907.95,-2112.91,-4734.09
312416.0447,-11495.07,-1073.31,-2289.72,-4888.77
312416.0457,-11658.57,-1210.74,-2453.18,-5016.23
312416.0467,-11765.1,-1296.23,-2550.6,-5097.39
312416.0477,-11805.3,-1327.61,-2589.7,-5131.96
312416.0487,-11818.17,-1331.19,-2608.2,-5143.26
312416.0497,-11791.76,-1298.05,-2604.06,-5121.37
312416.0507,-11696.91,-1199.53,-2522.04,-5034.78
312416.0517,-11548.57,-1053.91,-2363.73,-4898.55
312416.0527,-11377.62,-892.64,-2176.95,-4744.72
312416.0537,-11213.4,-739.43,-2010.06,-4599.67
312416.0547,-11074.74,-613.69,-1890.28,-4485.61
312416.0557,-10948.47,-502.92,-1771.02,-4382.47
312416.0567,-10841.94,-410.03,-1647.62,-4294.44
312416.0577,-10794.5,-385.57,-1605.8,-4270.03
312416.0587,-10770.85,-385.71,-1606.27,-4265.17
312416.0597,-10769.8,-401.88,-1614.19,-4266.55
312416.0607,-10830.36,-469.02,-1666.31,-4317.05
312416.0617,-10946.13,-580.93,-1785.61,-4416.61
312416.0627,-11082.98,-709.58,-1911.12,-4533.82
312416.0637,-11246.73,-859.31,-2081.92,-4680.97
312416.0647,-11427.12,-1013.42,-2270.03,-4834.46
312416.0657,-11575.08,-1148.99,-2410.41,-4961.01
312416.0667,-11694.34,-1256.28,-2512.69,-5059.53
312416.0677,-11758.23,-1312.21,-2573.01,-5112.22
312416.0687,-11776.11,-1324.08,-2585.36,-5127.05
312416.0697,-11748.65,-1288.65,-2551.84,-5100.68
312416.0707,-11652.85,-1191.76,-2448.61,-5018.04
312416.0717,-11524.39,-1064.44,-2314.76,-4901.36
312416.0727,-11376.72,-916.29,-2171.47,-4763.79
312416.0737,-11221.03,-762.03,-2020.88,-4616.07
312416.0747,-11075.59,-621.6,-1883.22,-4485.23
312416.0757,-10932.49,-487.76,-1743.98,-4354.57
312416.0767,-10812.47,-376.46,-1610.23,-4248.0
312416.0777,-10780.67,-347.66,-1575.76,-4219.15
312416.0787,-10795.55,-364.45,-1595.88,-4237.75
312416.0797,-10831.55,-400.3,-1639.89,-4272.65
312416.0807,-10925.58,-491.62,-1745.51,-4357.91
312416.0817,-11047.7,-617.98,-1874.64,-4472.3
312416.0827,-11180.12,-760.51,-2011.16,-4600.81
312416.0837,-11349.54,-921.44,-2166.46,-4750.82
312416.0847,-11527.68,-1078.65,-2317.86,-4898.21
312416.0857,-11675.12,-1212.17,-2452.8,-5018.57
312416.0867,-11782.46,-1306.49,-2550.22,-5111.41
312416.0877,-11823.23,-1343.58,-2580.02,-5147.51
312416.0887,-11830.86,-1348.45,-2581.69,-5155.9
312416.0897,-11784.89,-1296.9,-2543.55,-5115.8
312416.0907,-11635.59,-1153.28,-2415.32,-4982.38
312416.0917,-11508.08,-1032.26,-2304.32,-4869.27
312416.0927,-11393.55,-925.35,-2209.28,-4768.94
312416.0937,-11217.17,-782.06,-2049.78,-4627.42
312416.0947,-11046.94,-633.48,-1878.74,-4482.65
312416.0957,-10911.04,-502.49,-1739.55,-4355.72
312416.0967,-10805.42,-392.53,-1628.83,-4257.3
312416.0977,-10764.5,-351.52,-1587.72,-4222.25
312416.0987,-10767.89,-355.58,-1593.07,-4228.88
312416.0997,-10808.28,-401.21,-1630.97,-4272.75
312416.1007,-10900.93,-495.15,-1715.76,-4354.43
312416.1017,-11022.14,-612.64,-1836.68,-4459.72
312416.1027,-11171.06,-752.59,-1979.02,-4586.79
312416.1037,-11337.81,-908.42,-2128.79,-4731.04
312416.1047,-11495.59,-1064.44,-2281.14,-4874.42
312416.1057,-11635.4,-1203.3,-2419.52,-5002.74
312416.1067,-11742.93,-1307.3,-2536.96,-5107.36
312416.1077,-11803.44,-1356.46,-2598.0,-5164.72
312416.1087,-11812.93,-1354.27,-2609.92,-5167.53
312416.1097,-11785.94,-1319.5,-2566.29,-5131.25
312416.1107,-11689.14,-1220.27,-2455.33,-5038.6
312416.1117,-11558.44,-1082.33,-2345.18,-4912.66
312416.1127,-11410.19,-936.84,-2221.25,-4776.1
312416.1137,-11235.95,-777.39,-2065.85,-4625.37
312416.1147,-11076.17,-628.47,-1927.52,-4486.18
312416.1157,-10952.0,-506.93,-1820.9,-4376.13
312416.1167,-10842.66,-417.47,-1684.62,-4295.92
312416.1177,-10777.09,-375.56,-1562.4,-4257.92
312416.1187,-10751.11,-360.58,-1506.66,-4235.7
312416.1197,-10753.78,-363.16,-1522.59,-4226.88
312416.1207,-10819.25,-425.53,-1599.03,-4275.32
312416.1217,-10951.47,-549.65,-1747.47,-4391.86
312416.1227,-11110.35,-707.44,-1929.43,-4543.16
312416.1237,-11294.32,-885.34,-2123.55,-4714.11
312416.1247,-11472.8,-1044.18,-2303.98,-4873.85
312416.1257,-11606.31,-1170.25,-2433.87,-4988.72
312416.1267,-11713.74,-1272.63,-2522.28,-5080.51
312416.1277,-11757.28,-1308.49,-2556.42,-5115.46
312416.1287,-11743.64,-1293.61,-2545.12,-5106.5
312416.1297,-11706.4,-1250.46,-2498.67,-5066.49
312416.1307,-11631.3,-1169.73,-2436.59,-4994.01
312416.1317,-11523.82,-1059.87,-2340.65,-4893.88
312416.1327,-11378.91,-918.44,-2206.56,-4762.36
312416.1337,-11223.89,-765.61,-2064.28,-4623.7
312416.1347,-11083.84,-628.14,-1932.05,-4496.05
312416.1357,-10955.76,-502.44,-1792.34,-4380.51
312416.1367,-10845.71,-400.07,-1665.02,-4282.43
312416.1377,-10794.59,-358.2,-1590.16,-4236.27
312416.1387,-10796.12,-364.54,-1583.43,-4236.98
312416.1397,-10838.18,-415.13,-1637.55,-4281.43
312416.1407,-10939.74,-517.7,-1749.28,-4374.79
312416.1417,-11040.83,-617.84,-1845.07,-4465.01
312416.1427,-11157.66,-729.37,-1944.11,-4565.1
312416.1437,-11326.03,-891.02,-2115.68,-4717.73
312416.1447,-11494.73,-1047.33,-2282.0,-4868.89
312416.1457,-11633.73,-1180.98,-2420.66,-4997.06
312416.1467,-11728.0,-1277.88,-2516.79,-5087.33
312416.1477,-11777.74,-1316.55,-2562.67,-5123.23
312416.1487,-11779.88,-1310.68,-2564.14,-5117.94
312416.1497,-11719.51,-1262.28,-2514.7,-5071.26
312416.1507,-11619.62,-1167.01,-2421.86,-4983.62
312416.1517,-11505.75,-1040.79,-2298.07,-4871.23
312416.1527,-11374.62,-908.71,-2163.84,-4746.06
312416.1537,-11229.28,-765.61,-2025.6,-4614.54
312416.1547,-11100.53,-632.72,-1896.33,-4495.38
312416.1557,-10973.79,-502.4,-1767.59,-4377.7
312416.1567,-10862.92,-392.01,-1660.39,-4273.46
312416.1577,-10815.19,-348.38,-1617.96,-4228.12
312416.1587,-10816.15,-355.2,-1622.53,-4226.02
312416.1597,-10855.39,-400.54,-1657.34,-4261.07
312416.1607,-10932.35,-490.09,-1737.5,-4344.32
312416.1617,-11045.98,-610.49,-1861.91,-4458.09
312416.1627,-11198.47,-760.41,-2014.07,-4595.57
312416.1637,-11350.68,-916.81,-2161.26,-4739.48
312416.1647,-11495.21,-1064.06,-2303.79,-4876.9
312416.1657,-11638.02,-1204.92,-2441.5,-5008.32
312416.1667,-11749.32,-1311.4,-2545.31,-5107.21
312416.1677,-11780.02,-1350.02,-2572.01,-5140.59
312416.1687,-11760.14,-1344.87,-2564.38,-5134.3
312416.1697,-11706.78,-1296.38,-2520.75,-5090.62
312416.1707,-11612.04,-1200.01,-2425.53,-5011.99
312416.1717,-11492.06,-1072.6,-2301.84,-4903.98
312416.1727,-11350.82,-921.44,-2158.4,-4766.61
312416.1737,-11200.57,-773.48,-2006.39,-4625.23
312416.1747,-11037.92,-621.37,-1839.59,-4476.64
312416.1757,-10898.78,-482.75,-1699.54,-4342.51
312416.1767,-10808.99,-391.39,-1609.66,-4253.91
312416.1777,-10769.18,-354.05,-1583.05,-4215.53
312416.1787,-10755.49,-347.47,-1592.64,-4207.56
312416.1797,-10797.22,-391.82,-1639.51,-4249.48
312416.1807,-10922.86,-507.74,-1751.47,-4354.57
312416.1817,-11077.69,-648.59,-1893.52,-4487.18
312416.1827,-11241.34,-799.27,-2049.88,-4630.76
312416.1837,-11406.09,-953.91,-2205.52,-4776.05
312416.1847,-11553.0,-1093.48,-2342.61,-4903.6
312416.1857,-11685.28,-1220.32,-2469.11,-5025.44
312416.1867,-11775.02,-1308.2,-2555.28,-5114.37
312416.1877,-11786.65,-1326.89,-2549.6,-5137.49
312416.1887,-11749.17,-1301.53,-2519.66,-5117.85
312416.1897,-11706.02,-1260.61,-2489.14,-5082.32
312416.1907,-11645.6,-1185.04,-2424.72,-5010.32
312416.1917,-11535.41,-1068.45,-2319.38,-4900.55
312416.1927,-11365.99,-911.19,-2156.4,-4752.4
312416.1937,-11180.07,-742.2,-1989.7,-4595.14
312416.1947,-11032.73,-592.99,-1861.52,-4458.38
312416.1957,-10901.55,-462.48,-1739.31,-4326.53
312416.1967,-10799.31,-366.35,-1644.95,-4229.12
312416.1977,-10759.26,-330.31,-1616.81,-4196.26
312416.1987,-10766.22,-341.61,-1632.31,-4205.32
312416.1997,-10804.7,-383.71,-1653.67,-4247.48
312416.2007,-10881.04,-461.67,-1707.32,-4320.24
312416.2017,-10990.05,-571.2,-1808.6,-4418.37
312416.2027,-11123.75,-704.05,-1948.31,-4542.88
312416.2037,-11272.29,-843.72,-2091.55,-4679.06
312416.2047,-11454.54,-1017.67,-2256.44,-4851.01
312416.2057,-11635.07,-1195.1,-2430.49,-5019.52
312416.2067,-11751.65,-1301.62,-2541.83,-5122.76
312416.2077,-11794.04,-1338.58,-2582.36,-5156.52
312416.2087,-11785.17,-1324.99,-2571.92,-5141.45
312416.2097,-11727.38,-1266.1,-2516.41,-5082.61
312416.2107,-11652.8,-1188.23,-2442.98,-5008.98
312416.2117,-11556.72,-1088.81,-2348.61,-4920.05
312416.2127,-11418.3,-951.05,-2210.9,-4792.21
312416.2137,-11242.1,-786.26,-2032.23,-4633.71
312416.2147,-11084.13,-637.48,-1880.12,-4489.57
312416.2157,-10947.04,-505.4,-1756.19,-4363.97
312416.2167,-10823.58,-397.78,-1634.22,-4259.21
312416.2177,-10756.83,-345.99,-1575.28,-4208.14
312416.2187,-10764.7,-363.4,-1587.44,-4220.87
312416.2197,-10816.05,-430.63,-1634.93,-4276.71
312416.2207,-10916.14,-533.53,-1734.92,-4367.69
312416.2217,-11040.64,-653.46,-1853.7,-4480.22
312416.2227,-11175.68,-786.92,-1991.84,-4611.68
312416.2237,-11314.92,-921.39,-2152.78,-4740.95
312416.2247,-11450.63,-1042.08,-2299.83,-4856.87
312416.2257,-11584.28,-1154.9,-2429.1,-4968.5
312416.2267,-11717.75,-1265.48,-2534.25,-5078.94
312416.2277,-11771.39,-1311.64,-2572.16,-5121.61
312416.2287,-11770.82,-1305.87,-2585.84,-5116.22
312416.2297,-11730.96,-1260.61,-2548.17,-5073.36
312416.2307,-11643.98,-1170.97,-2458.05,-4994.25
312416.2317,-11526.16,-1060.2,-2353.29,-4897.55
312416.2327,-11378.81,-918.58,-2206.56,-4771.71
312416.2337,-11209.11,-759.74,-2018.88,-4621.32
312416.2347,-11061.15,-616.03,-1854.13,-4476.4
312416.2357,-10931.78,-480.7,-1714.28,-4346.18
312416.2367,-10828.59,-380.04,-1627.4,-4251.67
312416.2377,-10789.2,-347.61,-1605.32,-4218.58
312416.2387,-10786.39,-355.05,-1606.56,-4223.2
312416.2397,-10812.24,-392.01,-1620.01,-4251.62
312416.2407,-10899.88,-478.79,-1700.12,-4330.97
312416.2417,-11035.73,-612.4,-1841.93,-4457.47
312416.2427,-11193.71,-767.42,-1998.28,-4601.19
312416.2437,-11348.44,-916.43,-2141.67,-4732.47
312416.2447,-11477.52,-1046.37,-2254.77,-4850.2
312416.2457,-11607.98,-1169.16,-2376.51,-4974.89
312416.2467,-11736.44,-1278.97,-2507.07,-5087.38
312416.2477,-11797.67,-1336.05,-2576.54,-5141.21
312416.2487,-11802.01,-1339.63,-2578.12,-5145.74
312416.2497,-11761.09,-1295.66,-2534.72,-5108.88
312416.2507,-11659.62,-1191.14,-2442.46,-5013.09
312416.2517,-11532.88,-1058.24,-2322.72,-4895.74
312416.2527,-11396.27,-912.62,-2178.48,-4767.47
312416.2537,-11248.35,-761.7,-2020.88,-4622.46
312416.2547,-11105.63,-623.04,-1872.54,-4486.37
312416.2557,-10967.83,-494.43,-1731.25,-4360.82
312416.2567,-10850.1,-392.68,-1614.09,-4258.97
312416.2577,-10787.06,-351.05,-1569.03,-4210.14
312416.2587,-10791.73,-361.01,-1598.74,-4219.87
312416.2597,-10847.05,-416.52,-1656.39,-4261.54
312416.2607,-10935.74,-509.41,-1737.4,-4344.99
312416.2617,-11030.91,-626.09,-1843.36,-4456.76
312416.2627,-11169.86,-783.87,-1996.61,-4605.25
312416.2637,-11329.56,-952.58,-2170.18,-4758.64
312416.2647,-11447.76,-1070.79,-2309.27,-4867.75
312416.2657,-11562.78,-1180.27,-2417.14,-4973.27
312416.2667,-11684.51,-1289.8,-2519.61,-5083.37
312416.2677,-11751.61,-1332.71,-2569.29,-5136.92
312416.2687,-11768.06,-1326.61,-2577.97,-5136.54
312416.2697,-11734.49,-1267.77,-2541.16,-5087.23
312416.2707,-11636.35,-1166.3,-2451.23,-4991.72
312416.2717,-11520.01,-1044.99,-2339.46,-4880.48
312416.2727,-11382.91,-902.84,-2194.45,-4750.35
312416.2737,-11226.66,-752.74,-2043.49,-4610.4
312416.2747,-11083.08,-620.94,-1910.21,-4480.93
312416.2757,-10941.84,-495.0,-1772.69,-4354.19
312416.2767,-10819.63,-387.14,-1645.14,-4246.86
312416.2777,-10757.16,-330.11,-1585.1,-4191.92
312416.2787,-10740.19,-322.34,-1575.18,-4181.15
312416.2797,-10800.32,-391.53,-1637.89,-4244.85
312416.2807,-10918.81,-510.26,-1750.85,-4357.2
312416.2817,-11019.9,-611.88,-1843.31,-4451.04
312416.2827,-11145.78,-734.09,-1966.67,-4567.53
312416.2837,-11302.57,-880.48,-2114.92,-4705.1
312416.2847,-11471.94,-1033.02,-2272.8,-4851.15
312416.2857,-11646.8,-1191.28,-2434.78,-5001.83
312416.2867,-11774.49,-1306.63,-2546.45,-5110.07
312416.2877,-11830.0,-1349.78,-2586.03,-5152.75
312416.2887,-11833.05,-1347.07,-2587.99,-5152.99
312416.2897,-11787.51,-1304.2,-2545.64,-5117.37
312416.2907,-11676.22,-1201.92,-2433.63,-5027.82
312416.2917,-11553.67,-1090.15,-2321.2,-4923.77
312416.2927,-11412.1,-946.71,-2195.07,-4788.45
312416.2937,-11234.48,-772.24,-2027.51,-4617.74
312416.2947,-11081.89,-624.94,-1892.19,-4477.31
312416.2957,-10957.72,-502.78,-1782.7,-4363.35
312416.2967,-10848.62,-398.83,-1679.8,-4261.83
312416.2977,-10789.87,-343.37,-1620.96,-4205.08
312416.2987,-10769.65,-328.73,-1600.84,-4190.02
312416.2997,-10805.75,-371.6,-1632.5,-4229.4
312416.3007,-10911.66,-478.51,-1727.53,-4330.78
312416.3017,-11036.83,-606.11,-1844.41,-4450.04
312416.3027,-11178.83,-748.11,-1987.46,-4584.79
312416.3037,-11337.38,-906.71,-2145.0,-4736.38
312416.3047,-11481.1,-1046.71,-2289.44,-4868.22
312416.3057,-11609.32,-1164.63,-2404.17,-4974.84
312416.3067,-11717.03,-1265.43,-2506.35,-5071.45
312416.3077,-11785.13,-1330.85,-2578.54,-5139.73
312416.3087,-11805.35,-1351.79,-2604.1,-5163.53
312416.3097,-11759.9,-1301.05,-2558.33,-5113.36
312416.3107,-11654.76,-1197.2,-2457.0,-5012.32
312416.3117,-11525.39,-1074.17,-2340.98,-4902.65
312416.3127,-11374.62,-933.22,-2203.04,-4766.32
312416.3137,-11198.14,-760.41,-2024.32,-4602.77
312416.3147,-11040.74,-607.44,-1851.75,-4457.95
312416.3157,-10925.96,-490.05,-1737.36,-4349.09
312416.3167,-10858.63,-415.85,-1676.13,-4277.33
312416.3177,-10814.81,-382.9,-1634.07,-4237.22
312416.3187,-10795.4,-374.03,-1614.09,-4217.34
312416.3197,-10821.77,-404.55,-1646.33,-4241.8
312416.3207,-10910.7,-488.04,-1739.45,-4324.87
312416.3217,-11030.39,-603.63,-1846.5,-4439.69
312416.3227,-11164.19,-745.39,-1966.43,-4574.82
312416.3237,-11327.55,-906.9,-2126.65,-4721.36
312416.3247,-11506.84,-1066.4,-2296.73,-4868.51
312416.3257,-11656.38,-1195.53,-2420.38,-4998.73
312416.3267,-11744.79,-1271.34,-2505.97,-5075.26
312416.3277,-11793.9,-1311.49,-2556.13,-5116.03
312416.3287,-11816.12,-1324.46,-2577.4,-5132.82
312416.3297,-11791.61,-1301.57,-2566.62,-5115.41
312416.3307,-11703.78,-1227.33,-2486.56,-5047.04
312416.3317,-11562.35,-1095.72,-2345.18,-4923.44
312416.3327,-11387.49,-930.26,-2183.68,-4773.33
312416.3337,-11230.28,-779.82,-2043.96,-4640.15
312416.3347,-11086.8,-645.92,-1906.68,-4512.36
312416.3357,-10937.07,-499.53,-1773.21,-4369.07
312416.3367,-10814.95,-388.19,-1678.99,-4257.82
312416.3377,-10742.76,-334.45,-1614.14,-4198.79
312416.3387,-10716.63,-323.63,-1578.05,-4186.15
312416.3397,-10750.49,-371.46,-1607.18,-4230.93
312416.3407,-10858.01,-483.75,-1691.77,-4333.54
312416.3417,-10993.53,-616.22,-1798.2,-4453.04
312416.3427,-11145.59,-756.79,-1951.98,-4587.94
312416.3437,-11313.73,-906.52,-2128.51,-4732.08
312416.3447,-11452.49,-1033.97,-2263.93,-4848.1
312416.3457,-11587.76,-1160.91,-2391.67,-4965.59
312416.3467,-11710.26,-1279.74,-2504.54,-5079.32
312416.3477,-11794.04,-1350.69,-2576.92,-5149.6
312416.3487,-11802.15,-1350.02,-2574.63,-5147.03
312416.3497,-11744.64,-1288.13,-2517.37,-5090.9
312416.3507,-11623.53,-1162.29,-2407.74,-4977.08
312416.3517,-11515.86,-1047.66,-2318.14,-4873.9
312416.3527,-11403.9,-934.41,-2210.47,-4772.47
312416.3537,-11240.82,-777.91,-2036.38,-4624.84
312416.3547,-11076.07,-619.08,-1859.43,-4468.68
312416.3557,-10925.63,-476.46,-1716.71,-4329.87
312416.3567,-10818.63,-373.17,-1620.72,-4229.88
312416.3577,-10762.41,-327.54,-1558.21,-4188.06
312416.3587,-10741.76,-322.25,-1548.62,-4174.85
312416.3597,-10780.38,-361.54,-1616.67,-4213.57
312416.3607,-10887.96,-467.06,-1724.82,-4313.95
312416.3617,-11033.01,-608.06,-1855.37,-4445.65
312416.3627,-11195.99,-762.84,-2002.91,-4592.47
312416.3637,-11381.82,-935.03,-2172.76,-4758.12
312416.3647,-11561.2,-1097.92,-2341.56,-4913.52
312416.3657,-11706.35,-1231.86,-2472.26,-5035.35
312416.3667,-11800.86,-1319.93,-2557.28,-5122.38
312416.3677,-11828.14,-1345.97,-2584.31,-5154.09
312416.3687,-11822.03,-1345.06,-2585.7,-5157.14
312416.3697,-11771.01,-1295.38,-2535.53,-5107.26
312416.3707,-11658.34,-1186.13,-2422.91,-5002.07
312416.3717,-11536.31,-1069.83,-2295.69,-4893.45
312416.3727,-11385.39,-934.17,-2149.01,-4766.23
312416.3737,-11220.79,-786.97,-2006.77,-4627.32
312416.3747,-11068.2,-645.97,-1872.4,-4489.52
312416.3757,-10935.98,-511.22,-1768.16,-4359.58
312416.3767,-10807.66,-382.47,-1664.97,-4236.56
312416.3777,-10737.75,-314.76,-1593.4,-4165.75
312416.3787,-10697.41,-280.95,-1549.82,-4132.13
312416.3797,-10748.72,-336.5,-1599.55,-4184.34
312416.3807,-10870.89,-459.0,-1711.7,-4297.02
312416.3817,-11003.92,-594.0,-1840.64,-4417.85
312416.3827,-11166.86,-752.83,-1995.52,-4573.39
312416.3837,-11329.03,-917.67,-2147.05,-4737.09
312416.3847,-11481.14,-1064.68,-2298.64,-4882.24
312416.3857,-11631.16,-1197.15,-2435.16,-5014.75
312416.3867,-11737.3,-1290.04,-2519.56,-5104.88
312416.3877,-11787.08,-1330.23,-2566.0,-5144.93
312416.3887,-11809.3,-1341.34,-2589.8,-5161.33
312416.3897,-11785.89,-1309.68,-2558.85,-5131.87
312416.3907,-11693.57,-1216.03,-2471.26,-5042.08
312416.3917,-11556.34,-1079.94,-2342.27,-4915.81
312416.3927,-11388.06,-916.43,-2177.95,-4761.27
312416.3937,-11198.52,-745.11,-1995.9,-4592.51
312416.3947,-11027.72,-588.61,-1834.54,-4442.84
312416.3957,-10879.61,-439.69,-1712.37,-4306.84
312416.3967,-10765.6,-320.24,-1616.53,-4200.98
312416.3977,-10749.91,-292.87,-1585.34,-4175.09
312416.3987,-10778.05,-316.0,-1582.19,-4185.39
312416.3997,-10815.57,-358.96,-1607.85,-4217.86
312416.4007,-10900.83,-453.71,-1697.49,-4302.45
312416.4017,-11019.23,-582.79,-1835.63,-4425.38
312416.4027,-11182.88,-739.15,-2011.87,-4575.21
312416.4037,-11375.09,-915.67,-2208.42,-4746.25
312416.4047,-11561.78,-1091.29,-2374.12,-4916.05
312416.4057,-11714.75,-1237.58,-2511.45,-5061.91
312416.4067,-11809.54,-1324.84,-2588.08,-5140.02
312416.4077,-11854.03,-1359.13,-2607.92,-5171.59
312416.4087,-11858.32,-1363.37,-2605.01,-5176.26
312416.4097,-11795.57,-1308.49,-2553.18,-5123.19
312416.4107,-11646.46,-1182.7,-2417.09,-4990.63
312416.4117,-11479.19,-1038.41,-2269.08,-4851.87
312416.4127,-11322.12,-899.03,-2126.98,-4723.74
312416.4137,-11178.69,-758.98,-1996.61,-4596.19
312416.4147,-11039.59,-619.84,-1869.92,-4460.67
312416.4157,-10910.85,-484.18,-1741.03,-4330.59
312416.4167,-10807.23,-378.8,-1640.89,-4229.4
312416.4177,-10742.81,-324.44,-1584.39,-4171.32
312416.4187,-10738.09,-322.77,-1581.48,-4167.7
312416.4197,-10798.6,-385.71,-1640.61,-4227.83
312416.4207,-10908.94,-496.1,-1739.98,-4330.92
312416.4217,-11041.98,-622.7,-1863.58,-4452.56
312416.4227,-11197.04,-772.91,-2014.11,-4598.05
312416.4237,-11360.22,-935.03,-2162.5,-4759.17
312416.4247,-11509.37,-1084.95,-2307.37,-4905.65
312416.4257,-11652.09,-1221.94,-2458.38,-5035.5
312416.4267,-11761.24,-1325.8,-2581.84,-5134.15
312416.4277,-11822.56,-1376.25,-2649.98,-5188.75
312416.4287,-11839.25,-1381.54,-2660.51,-5198.43
312416.4297,-11803.72,-1336.1,-2617.22,-5151.51
312416.4307,-11706.31,-1226.23,-2500.15,-5043.17
312416.4317,-11576.99,-1088.05,-2347.09,-4915.19
312416.4327,-11418.68,-925.4,-2174.81,-4759.74
312416.4337,-11237.81,-742.82,-2001.86,-4585.6
312416.4347,-11077.98,-591.47,-1854.56,-4440.98
312416.4357,-10905.74,-444.94,-1705.46,-4299.12
312416.4367,-10774.38,-340.08,-1578.62,-4196.6
312416.4377,-10749.25,-322.01,-1554.54,-4180.38
312416.4387,-10736.23,-314.14,-1541.47,-4173.18
312416.4397,-10749.58,-329.4,-1547.91,-4183.58
312416.4407,-10848.9,-430.39,-1638.56,-4277.61
312416.4417,-11016.61,-591.14,-1811.46,-4431.73
312416.4427,-11185.6,-748.21,-1984.69,-4583.07
312416.4437,-11318.59,-888.4,-2120.83,-4709.67
312416.4447,-11476.09,-1051.9,-2276.52,-4863.74
312416.4457,-11651.52,-1218.94,-2451.04,-5027.01
312416.4467,-11772.97,-1336.77,-2576.45,-5138.78
312416.4477,-11813.07,-1378.63,-2610.64,-5170.44
312416.4487,-11817.12,-1379.49,-2608.39,-5173.4
312416.4497,-11768.77,-1323.41,-2552.6,-5125.62
312416.4507,-11654.57,-1202.25,-2436.35,-5014.23
312416.4517,-11522.34,-1061.34,-2302.79,-4886.29
312416.4527,-11355.31,-895.69,-2128.46,-4731.37
312416.4537,-11176.35,-727.22,-1951.27,-4572.15
312416.4547,-11013.94,-573.21,-1795.77,-4426.62
312416.4557,-10878.42,-447.23,-1672.22,-4305.55
312416.4567,-10785.15,-359.68,-1598.45,-4219.48
312416.4577,-10751.39,-324.82,-1578.9,-4185.77
312416.4587,-10740.19,-321.15,-1573.32,-4178.72
312416.4597,-10755.49,-337.65,-1588.39,-4189.35
312416.4607,-10845.14,-420.33,-1674.84,-4271.98
312416.4617,-11007.12,-580.41,-1827.91,-4420.9
312416.4627,-11199.0,-767.9,-2013.06,-4599.43
312416.4637,-11374.57,-933.12,-2183.87,-4757.4
312416.4647,-11515.76,-1076.51,-2330.26,-4892.83
312416.4657,-11632.63,-1200.53,-2449.32,-5007.46
312416.4667,-11722.42,-1276.78,-2523.04,-5081.99
312416.4677,-11763.05,-1299.57,-2550.46,-5109.26
312416.4687,-11775.21,-1296.81,-2559.23,-5111.17
312416.4697,-11745.55,-1259.52,-2532.53,-5079.6
312416.4707,-11669.59,-1173.54,-2456.95,-5003.5
312416.4717,-11532.4,-1039.36,-2321.39,-4874.28
312416.4727,-11340.24,-864.32,-2142.67,-4704.43
312416.4737,-11156.99,-690.56,-1967.1,-4544.02
312416.4747,-11034.11,-573.11,-1846.55,-4437.88
312416.4757,-10922.72,-464.96,-1730.39,-4333.69
312416.4767,-10833.36,-375.94,-1631.55,-4247.9
312416.4777,-10804.13,-344.85,-1601.6,-4211.9
312416.4787,-10794.45,-339.65,-1593.54,-4199.55
312416.4797,-10818.77,-377.94,-1627.11,-4229.16
312416.4807,-10916.57,-488.71,-1746.85,-4330.97
312416.4817,-11064.72,-635.62,-1896.72,-4473.78
312416.4827,-11214.78,-783.16,-2030.66,-4608.97
312416.4837,-11361.93,-930.55,-2165.41,-4741.72
312416.4847,-11508.13,-1082.52,-2307.7,-4885.53
312416.4857,-11643.51,-1226.14,-2447.84,-5024.62
312416.4867,-11734.2,-1322.08,-2543.59,-5119.04
312416.4877,-11770.77,-1351.4,-2576.4,-5148.79
312416.4887,-11760.24,-1326.66,-2545.93,-5127.86
312416.4897,-11714.7,-1263.81,-2482.37,-5072.55
312416.4907,-11627.72,-1165.91,-2397.82,-4988.77
312416.4917,-11501.03,-1038.98,-2294.25,-4869.84
312416.4927,-11341.24,-885.34,-2164.03,-4722.88
312416.4937,-11173.2,-729.75,-2015.54,-4578.07
312416.4947,-11030.82,-590.47,-1875.69,-4448.99
312416.4957,-10891.3,-456.48,-1732.21,-4322.39
312416.4967,-10793.73,-357.68,-1620.87,-4225.49
312416.4977,-10764.6,-324.82,-1567.94,-4184.2
312416.4987,-10771.32,-335.55,-1565.22,-4186.01
312416.4997,-10818.63,-390.77,-1614.19,-4235.22
312416.5007,-10910.85,-491.05,-1710.75,-4324.63
312416.5017,-11031.34,-613.88,-1838.11,-4438.83
312416.5027,-11186.7,-763.99,-1991.56,-4582.74
312416.5037,-11356.69,-929.59,-2155.59,-4740.29
312416.5047,-11504.37,-1077.89,-2289.25,-4881.62
312416.5057,-11634.21,-1209.45,-2416.47,-5007.36
312416.5067,-11743.4,-1308.54,-2538.97,-5106.93
312416.5077,-11806.78,-1356.13,-2603.72,-5151.89
312416.5087,-11817.7,-1355.84,-2605.06,-5154.23
312416.5097,-11770.63,-1304.05,-2553.99,-5106.64
312416.5107,-11665.39,-1197.48,-2449.56,-5006.84
312416.5117,-11522.44,-1056.0,-2310.23,-4878.28
312416.5127,-11356.88,-895.83,-2142.91,-4727.22
312416.5137,-11194.66,-742.01,-1975.01,-4578.16
312416.5147,-11033.54,-591.23,-1824.52,-4438.45
312416.5157,-10882.95,-447.13,-1702.59,-4309.61
312416.5167,-10796.88,-365.92,-1628.69,-4233.03
312416.5177,-10779.0,-350.52,-1607.51,-4213.62
312416.5187,-10780.53,-356.91,-1615.57,-4215.24
312416.5197,-10823.44,-399.07,-1666.4,-4254.72
312416.5207,-10926.68,-499.34,-1763.3,-4351.95
312416.5217,-11063.24,-634.72,-1887.51,-4478.79
312416.5227,-11226.37,-791.41,-2042.96,-4622.41
312416.5237,-11401.94,-945.81,-2200.27,-4768.32
312416.5247,-11524.77,-1069.45,-2311.56,-4881.76
312416.5257,-11615.99,-1173.07,-2400.21,-4976.46
312416.5267,-11698.63,-1258.52,-2486.52,-5059.43
312416.5277,-11776.45,-1333.62,-2578.5,-5134.87
312416.5287,-11806.11,-1357.32,-2621.7,-5164.81
312416.5297,-11729.72,-1278.73,-2542.83,-5092.48
312416.5307,-11590.53,-1141.88,-2386.05,-4964.21
312416.5317,-11453.63,-1007.32,-2234.51,-4834.8
312416.5327,-11316.06,-868.65,-2101.14,-4704.43
312416.5337,-11170.25,-722.12,-1954.17,-4569.53
312416.5347,-11018.47,-576.07,-1818.75,-4431.77
312416.5357,-10876.13,-435.73,-1693.82,-4298.02
312416.5367,-10786.25,-346.99,-1613.57,-4209.57
312416.5377,-10762.74,-323.1,-1588.2,-4182.58
312416.5387,-10753.44,-315.71,-1575.61,-4168.08
312416.5397,-10806.04,-363.68,-1615.48,-4206.32
312416.5407,-10948.37,-498.96,-1746.46,-4335.79
312416.5417,-11125.8,-670.0,-1924.51,-4503.68
312416.5427,-11290.84,-831.51,-2075.39,-4655.7
312416.5437,-11431.55,-975.56,-2203.94,-4792.5
312416.5447,-11559.11,-1096.53,-2327.73,-4909.23
312416.5457,-11684.66,-1212.74,-2466.11,-5021.24
312416.5467,-11787.13,-1303.77,-2582.98,-5110.65
312416.5477,-11839.53,-1353.31,-2646.07,-5156.14
312416.5487,-11832.14,-1352.26,-2636.05,-5157.76
312416.5497,-11770.58,-1287.89,-2547.26,-5100.06
312416.5507,-11669.92,-1182.03,-2427.15,-4998.26
312416.5517,-11526.25,-1046.47,-2283.86,-4867.94
312416.5527,-11341.0,-880.91,-2101.71,-4707.58
312416.5537,-11179.54,-729.61,-1948.21,-4563.76
312416.5547,-11058.71,-611.11,-1850.41,-4454.8
312416.5557,-10927.49,-489.52,-1733.16,-4341.51
312416.5567,-10815.81,-393.77,-1622.68,-4247.19
312416.5577,-10747.34,-347.66,-1567.46,-4199.08
312416.5587,-10718.63,-330.45,-1554.11,-4179.34
312416.5597,-10753.01,-356.2,-1587.58,-4204.8
312416.5607,-10844.18,-437.12,-1676.04,-4282.52
312416.5617,-11003.11,-585.27,-1829.2,-4422.86
312416.5627,-11179.16,-755.74,-1996.37,-4583.5
312416.5637,-11341.86,-910.19,-2143.19,-4731.13
312416.5647,-11488.82,-1050.19,-2283.1,-4866.12
312416.5657,-11632.01,-1189.28,-2420.95,-4997.68
312416.5667,-11753.66,-1300.76,-2540.16,-5107.59
312416.5677,-11811.64,-1345.63,-2605.25,-5160.19
312416.5687,-11827.18,-1349.74,-2627.47,-5169.68
312416.5697,-11783.46,-1303.39,-2580.36,-5125.86
312416.5707,-11669.59,-1189.28,-2456.33,-5016.28
312416.5717,-11530.69,-1049.85,-2308.7,-4882.38
312416.5727,-11376.91,-894.4,-2138.38,-4736.28
312416.5737,-11217.88,-734.9,-1984.74,-4586.08
312416.5747,-11072.06,-592.04,-1852.61,-4448.46
312416.5757,-10927.44,-457.72,-1730.39,-4317.57
312416.5767,-10808.09,-354.86,-1636.36,-4219.87
312416.5777,-10760.59,-318.34,-1579.33,-4180.15
312416.5787,-10758.97,-325.2,-1581.0,-4180.05
312416.5797,-10812.71,-378.8,-1631.4,-4228.07
312416.5807,-10902.6,-483.7,-1711.37,-4318.95
312416.5817,-11000.63,-609.25,-1802.49,-4426.1
312416.5827,-11140.87,-760.32,-1952.12,-4563.48
312416.5837,-11313.73,-924.3,-2141.19,-4722.69
312416.5847,-11486.01,-1075.98,-2324.15,-4875.52
312416.5857,-11636.4,-1207.21,-2459.0,-5012.47
312416.5867,-11720.04,-1281.55,-2517.75,-5090.05
312416.5877,-11746.74,-1303.82,-2540.83,-5113.6
312416.5887,-11770.63,-1315.78,-2555.9,-5126.24
312416.5897,-11744.07,-1274.68,-2523.28,-5090.67
312416.5907,-11650.09,-1173.78,-2434.73,-4997.35
312416.5917,-11514.86,-1033.07,-2294.4,-4867.36
312416.5927,-11361.41,-881.53,-2135.8,-4720.45
312416.5937,-11228.09,-749.02,-2005.43,-4588.22
312416.5947,-11120.18,-635.34,-1897.05,-4475.36
312416.5957,-10998.39,-511.69,-1773.07,-4355.15
312416.5967,-10883.62,-407.36,-1662.59,-4250.43
312416.5977,-10802.94,-349.81,-1597.21,-4193.88
312416.5987,-10751.44,-321.82,-1565.41,-4165.7
312416.5997,-10786.82,-360.2,-1608.23,-4210.42
312416.6007,-10901.55,-469.49,-1714.42,-4317.9
312416.6017,-11039.78,-603.82,-1856.9,-4441.21
312416.6027,-11193.23,-755.88,-2013.64,-4585.22
312416.6037,-11354.3,-920.68,-2169.28,-4744.15
312416.6047,-11514.71,-1084.23,-2322.82,-4896.55
312416.6057,-11657.76,-1231.0,-2464.39,-5030.16
312416.6067,-11754.66,-1324.99,-2560.47,-5121.99
312416.6077,-11787.03,-1350.93,-2597.38,-5156.95
312416.6087,-11782.27,-1340.29,-2596.0,-5153.47
312416.6097,-11732.2,-1285.12,-2539.59,-5100.97
312416.6107,-11630.01,-1172.64,-2423.43,-4996.49
312416.6117,-11512.04,-1046.37,-2303.17,-4883.29
312416.6127,-11373.14,-903.75,-2160.07,-4744.24
312416.6137,-11220.6,-749.78,-1988.7,-4586.27
312416.6147,-11093.09,-624.23,-1856.71,-4462.19
312416.6157,-11015.32,-551.08,-1796.96,-4393.15
312416.6167,-10927.54,-471.64,-1722.57,-4312.37
312416.6177,-10825.3,-380.8,-1648.62,-4221.34
312416.6187,-10724.5,-296.78,-1576.04,-4134.23
312416.6197,-10696.17,-287.39,-1534.41,-4117.35
312416.6207,-10792.83,-381.85,-1612.0,-4212.33
312416.6217,-10986.52,-553.94,-1784.61,-4387.76
312416.6227,-11178.69,-740.72,-1973.06,-4570.82
312416.6237,-11326.27,-897.6,-2127.6,-4719.45
312416.6247,-11471.85,-1042.65,-2267.17,-4855.49
312416.6257,-11627.58,-1189.28,-2413.32,-4996.97
312416.6267,-11743.4,-1298.76,-2526.57,-5103.68
312416.6277,-11796.91,-1341.87,-2578.78,-5145.07
312416.6287,-11809.4,-1338.77,-2584.55,-5143.12
312416.6297,-11771.63,-1288.84,-2542.45,-5101.06
312416.6307,-11669.4,-1187.37,-2442.31,-5004.69
312416.6317,-11536.22,-1061.2,-2316.0,-4883.86
312416.6327,-11377.57,-902.46,-2163.98,-4740.33
312416.6337,-11206.1,-728.04,-2004.24,-4580.36
312416.6347,-11041.45,-574.21,-1853.28,-4432.58
312416.6357,-10889.29,-443.74,-1713.47,-4301.83
312416.6367,-10795.98,-357.87,-1622.15,-4217.58
312416.6377,-10765.12,-331.07,-1588.11,-4192.07
312416.6387,-10769.8,-337.6,-1580.43,-4193.02
312416.6397,-10817.48,-394.63,-1633.98,-4243.66
312416.6407,-10916.23,-501.82,-1740.27,-4339.6
312416.6417,-11045.08,-636.96,-1876.21,-4463.39
312416.6427,-11198.47,-789.74,-2026.27,-4607.39
312416.6437,-11358.83,-938.46,-2182.63,-4752.92
312416.6447,-11509.94,-1074.84,-2336.6,-4888.25
312416.6457,-11652.76,-1212.69,-2460.0,-5020.0
312416.6467,-11743.98,-1308.92,-2520.13,-5111.5
312416.6477,-11781.65,-1349.02,-2551.84,-5150.27
312416.6487,-11787.23,-1350.16,-2574.54,-5154.51
312416.6497,-11741.73,-1299.29,-2543.45,-5109.64
312416.6507,-11633.21,-1174.31,-2433.68,-4994.54
312416.6517,-11491.11,-1023.15,-2276.99,-4850.67
312416.6527,-11318.35,-856.11,-2104.57,-4690.36
312416.6537,-11177.68,-713.01,-1967.33,-4560.04
312416.6547,-11052.23,-578.83,-1843.64,-4434.87
312416.6557,-10895.97,-429.25,-1697.45,-4291.01
312416.6567,-10778.86,-324.34,-1585.15,-4188.4
312416.6577,-10744.29,-295.54,-1556.83,-4156.45
312416.6587,-10752.01,-306.37,-1570.75,-4163.93
312416.6597,-10815.72,-371.17,-1635.03,-4222.68
312416.6607,-10915.57,-480.6,-1735.02,-4322.91
312416.6617,-11036.02,-604.63,-1850.08,-4439.07
312416.6627,-11183.69,-758.6,-1992.04,-4584.36
312416.6637,-11337.71,-922.78,-2140.38,-4737.28
312416.6647,-11487.53,-1067.92,-2282.91,-4875.04
312416.6657,-11632.49,-1204.2,-2425.58,-5004.93
312416.6667,-11746.03,-1305.39,-2534.77,-5103.06
312416.6677,-11795.0,-1341.68,-2580.45,-5138.25
312416.6687,-11810.11,-1336.05,-2586.46,-5139.64
312416.6697,-11772.3,-1284.69,-2543.97,-5096.53
312416.6707,-11671.26,-1174.88,-2445.03,-4998.4
312416.6717,-11540.18,-1039.08,-2313.8,-4871.75
312416.6727,-11387.3,-885.44,-2164.17,-4727.94
312416.6737,-11230.71,-729.04,-2009.82,-4580.07
312416.6747,-11085.13,-590.75,-1868.34,-4448.22
312416.6757,-10942.98,-464.25,-1733.59,-4322.86
312416.6767,-10832.88,-367.16,-1627.25,-4228.4
312416.6777,-10786.92,-330.69,-1589.2,-4192.88
312416.6787,-10771.04,-327.68,-1581.62,-4183.15
312416.6797,-10795.93,-360.3,-1609.85,-4214.86
312416.6807,-10897.92,-469.26,-1718.09,-4318.05
312416.6817,-11042.69,-617.36,-1868.77,-4456.85
312416.6827,-11195.66,-768.66,-2018.12,-4598.95
312416.6837,-11357.88,-937.65,-2182.44,-4757.64
312416.6847,-11534.02,-1113.94,-2354.91,-4919.39
312416.6857,-11682.32,-1253.99,-2486.75,-5053.14
312416.6867,-11755.85,-1325.8,-2546.64,-5119.75
312416.6877,-11769.11,-1340.39,-2563.43,-5137.97
312416.6887,-11771.06,-1330.66,-2561.19,-5134.39
312416.6897,-11728.0,-1276.11,-2515.51,-5086.47
312416.6907,-11628.44,-1168.35,-2417.42,-4987.48
312416.6917,-11497.93,-1030.25,-2288.06,-4856.06
312416.6927,-11335.09,-865.46,-2127.12,-4698.61
312416.6937,-11180.16,-713.44,-1978.54,-4552.84
312416.6947,-11050.85,-587.65,-1853.9,-4434.44
312416.6957,-10922.86,-465.06,-1731.3,-4319.48
312416.6967,-10826.78,-375.13,-1629.83,-4231.55
312416.6977,-10782.82,-336.98,-1585.48,-4195.88
312416.6987,-10774.38,-333.12,-1583.91,-4194.31
312416.6997,-10820.2,-380.9,-1641.8,-4238.8
312416.7007,-10921.43,-482.65,-1746.99,-4333.93
312416.7017,-11063.29,-623.32,-1877.83,-4467.63
312416.7027,-11239.53,-797.99,-2039.34,-4627.51
312416.7037,-11407.33,-962.26,-2195.93,-4775.86
312416.7047,-11556.67,-1109.5,-2342.42,-4917.34
312416.7057,-11685.04,-1235.96,-2468.01,-5043.22
312416.7067,-11798.43,-1334.24,-2582.45,-5134.06
312416.7077,-11877.73,-1394.46,-2653.31,-5190.56
312416.7087,-11870.48,-1386.4,-2601.72,-5185.22
312416.7097,-11790.85,-1307.2,-2496.24,-5115.84
312416.7107,-11695.48,-1202.82,-2428.34,-5021.67
312416.7117,-11543.94,-1048.52,-2306.65,-4875.28
312416.7127,-11312.53,-829.46,-2084.54,-4657.51
312416.7137,-11092.38,-634.34,-1873.73,-4467.11
312416.7147,-10952.57,-506.5,-1760.44,-4344.03
312416.7157,-10854.15,-400.02,-1696.68,-4246.24
312416.7167,-10780.67,-335.03,-1629.88,-4185.15
312416.7177,-10759.74,-316.67,-1602.36,-4164.08
312416.7187,-10760.17,-306.84,-1606.27,-4151.63
312416.7197,-10818.63,-361.06,-1658.15,-4204.66
312416.7207,-10923.82,-478.55,-1728.06,-4311.9
312416.7217,-11036.92,-612.83,-1826.38,-4439.64
312416.7227,-11169.82,-758.22,-1968.34,-4582.88
312416.7237,-11317.02,-907.85,-2132.89,-4729.61
312416.7247,-11480.38,-1058.2,-2298.45,-4879.33
312416.7257,-11625.53,-1196.62,-2435.73,-5013.04
312416.7267,-11718.94,-1284.46,-2540.92,-5101.87
312416.7277,-11770.35,-1323.51,-2589.75,-5141.5
312416.7287,-11765.82,-1317.74,-2566.19,-5136.06
312416.7297,-11707.5,-1261.38,-2507.4,-5084.61
312416.7307,-11639.55,-1174.21,-2433.54,-5005.17
312416.7317,-11528.16,-1048.8,-2308.08,-4883.72
312416.7327,-11350.35,-872.71,-2107.62,-4705.62
312416.7337,-11177.11,-705.19,-1927.19,-4537.77
312416.7347,-11040.5,-573.16,-1812.51,-4413.27
312416.7357,-10914.76,-454.09,-1726.39,-4300.55
312416.7367,-10823.82,-371.55,-1649.0,-4222.01
312416.7377,-10780.91,-340.51,-1619.67,-4196.41
312416.7387,-10764.22,-343.18,-1606.89,-4195.36
312416.7397,-10798.74,-397.25,-1639.03,-4237.94
312416.7407,-10899.16,-500.73,-1745.41,-4338.22
312416.7417,-11037.68,-633.86,-1876.59,-4461.81
312416.7427,-11187.03,-777.15,-2005.82,-4597.95
312416.7437,-11332.32,-913.14,-2122.4,-4731.66
312416.7447,-11489.35,-1064.21,-2273.89,-4872.89
312416.7457,-11641.07,-1204.78,-2432.68,-5002.64
312416.7467,-11734.53,-1290.42,-2520.08,-5083.37
312416.7477,-11766.58,-1321.94,-2538.97,-5116.51
312416.7487,-11774.06,-1328.13,-2547.31,-5125.05
312416.7497,-11739.73,-1282.26,-2527.9,-5088.0
312416.7507,-11636.64,-1174.69,-2438.02,-4991.53
312416.7517,-11509.13,-1041.36,-2294.3,-4867.98
312416.7527,-11353.11,-885.82,-2128.65,-4717.4
312416.7537,-11175.82,-715.78,-1967.62,-4550.79
312416.7547,-11021.52,-564.86,-1824.0,-4406.6
312416.7557,-10882.81,-435.02,-1691.72,-4281.28
312416.7567,-10785.2,-342.51,-1608.71,-4197.17
312416.7577,-10742.47,-308.47,-1565.08,-4165.27
312416.7587,-10754.25,-316.19,-1570.37,-4171.9
312416.7597,-10823.92,-379.56,-1641.37,-4234.03
312416.7607,-10933.31,-482.42,-1738.17,-4328.44
312416.7617,-11071.64,-614.83,-1859.38,-4451.18
312416.7627,-11234.09,-773.0,-2016.74,-4602.24
312416.7637,-11400.03,-939.56,-2179.19,-4759.6
312416.7647,-11544.99,-1083.42,-2328.92,-4893.88
312416.7657,-11665.11,-1203.78,-2460.72,-5006.55
312416.7667,-11736.01,-1279.88,-2524.42,-5076.31
312416.7677,-11775.07,-1319.98,-2548.98,-5117.85
312416.7687,-11803.2,-1335.57,-2558.18,-5138.11
312416.7697,-11773.4,-1297.81,-2548.03,-5105.35
312416.7707,-11664.58,-1184.8,-2458.29,-5003.79
312416.7717,-11521.2,-1041.46,-2309.61,-4867.89
312416.7727,-11366.18,-882.34,-2149.06,-4719.07
312416.7737,-11209.01,-720.69,-1990.7,-4572.44
312416.7747,-11061.67,-573.73,-1851.61,-4437.88
312416.7757,-10927.3,-439.45,-1728.49,-4311.75
312416.7767,-10825.16,-334.31,-1633.17,-4211.76
312416.7777,-10774.09,-297.93,-1580.52,-4167.84
312416.7787,-10759.55,-297.83,-1556.73,-4157.26
312416.7797,-10824.54,-362.68,-1624.44,-4220.2
312416.7807,-10950.38,-485.71,-1756.0,-4337.17
312416.7817,-11083.32,-623.32,-1894.09,-4464.44
312416.7827,-11233.76,-774.91,-2045.25,-4605.77
312416.7837,-11393.26,-932.07,-2196.5,-4750.35
312416.7847,-11534.12,-1075.41,-2318.43,-4879.71
312416.7857,-11661.63,-1212.07,-2431.58,-5003.31
312416.7867,-11756.04,-1311.78,-2533.39,-5092.34
312416.7877,-11780.36,-1342.01,-2575.16,-5126.29
312416.7887,-11782.17,-1349.78,-2579.16,-5136.87
312416.7897,-11745.93,-1313.45,-2538.92,-5104.4
312416.7907,-11652.9,-1210.93,-2445.56,-5016.52
312416.7917,-11508.51,-1063.3,-2309.85,-4879.09
312416.7927,-11321.31,-881.0,-2117.11,-4702.52
312416.7937,-11151.03,-712.82,-1935.15,-4543.26
312416.7947,-11009.27,-570.2,-1798.96,-4416.04
312416.7957,-10855.96,-418.23,-1673.36,-4278.09
312416.7967,-10732.13,-292.02,-1563.98,-4164.17
312416.7977,-10709.57,-262.12,-1529.07,-4133.37
312416.7987,-10737.37,-281.43,-1543.86,-4145.34
312416.7997,-10810.33,-354.34,-1609.13,-4209.09
312416.8007,-10920.53,-469.83,-1714.99,-4315.57
312416.8017,-11043.6,-604.44,-1841.78,-4435.87
312416.8027,-11201.05,-767.8,-2001.19,-4587.17
312416.8037,-11372.85,-943.23,-2172.42,-4752.02
312416.8047,-11533.07,-1099.63,-2328.97,-4899.22
312416.8057,-11675.22,-1228.38,-2473.93,-5025.72
312416.8067,-11766.24,-1312.4,-2567.24,-5111.65
312416.8077,-11794.57,-1335.81,-2585.13,-5138.73
312416.8087,-11789.66,-1330.85,-2580.79,-5133.25
312416.8097,-11743.17,-1275.16,-2535.87,-5084.23
312416.8107,-11636.31,-1165.44,-2426.24,-4979.66
312416.8117,-11503.51,-1034.69,-2305.56,-4855.78
312416.8127,-11346.87,-882.39,-2167.99,-4713.11
312416.8137,-11180.12,-730.85,-2013.25,-4566.29
312416.8147,-11035.78,-590.85,-1869.25,-4437.07
312416.8157,-10880.57,-442.84,-1717.47,-4294.3
312416.8167,-10752.15,-329.07,-1596.55,-4180.0
312416.8177,-10711.0,-291.01,-1545.86,-4139.52
312416.8187,-10715.77,-296.21,-1537.9,-4138.76
312416.8197,-10788.35,-374.98,-1599.5,-4207.42
312416.8207,-10947.13,-531.39,-1748.51,-4358.53
312416.8217,-11102.3,-687.27,-1905.25,-4507.83
312416.8227,-11230.23,-809.62,-2035.9,-4623.75
312416.8237,-11366.8,-928.5,-2158.02,-4742.1
312416.8247,-11513.04,-1061.96,-2313.42,-4871.8
312416.8257,-11679.94,-1213.17,-2487.95,-5016.85
312416.8267,-11795.62,-1313.64,-2580.88,-5109.17
312416.8277,-11839.34,-1351.45,-2601.19,-5145.03
312416.8287,-11836.63,-1347.45,-2590.85,-5140.02
312416.8297,-11767.1,-1285.84,-2530.91,-5081.23
312416.8307,-11652.18,-1173.31,-2434.3,-4982.76
312416.8317,-11502.65,-1034.74,-2282.57,-4855.25
312416.8327,-11315.01,-861.64,-2081.35,-4695.03
312416.8337,-11132.38,-685.55,-1899.19,-4531.43
312416.8347,-10987.62,-543.55,-1768.88,-4393.86
312416.8357,-10848.48,-411.7,-1634.26,-4263.35
312416.8367,-10745.96,-324.92,-1568.75,-4187.2
312416.8377,-10740.81,-322.01,-1582.1,-4191.21
312416.8387,-10771.32,-353.19,-1590.87,-4220.1
312416.8397,-10822.54,-410.6,-1635.12,-4266.6
312416.8407,-10924.87,-512.31,-1737.4,-4351.57
312416.8417,-11043.55,-628.33,-1828.77,-4455.57
312416.8427,-11184.26,-765.42,-1994.37,-4586.55
312416.8437,-11354.78,-925.54,-2183.15,-4741.96
312416.8447,-11516.67,-1073.17,-2329.97,-4887.96
312416.8457,-11667.78,-1200.39,-2464.63,-5013.04
312416.8467,-11766.86,-1279.16,-2547.22,-5081.27
312416.8477,-11802.2,-1303.24,-2583.17,-5100.68
312416.8487,-11807.16,-1297.52,-2596.52,-5101.63
312416.8497,-11770.2,-1255.08,-2557.61,-5064.35
312416.8507,-11668.11,-1157.81,-2440.07,-4972.46
312416.8517,-11525.92,-1021.91,-2297.12,-4847.05
312416.8527,-11364.18,-860.45,-2137.8,-4694.75
312416.8537,-11195.52,-693.61,-1964.24,-4538.82
312416.8547,-11000.92,-512.84,-1768.68,-4368.59
312416.8557,-10856.53,-381.18,-1637.13,-4243.66
312416.8567,-10818.05,-352.43,-1604.99,-4215.48
312416.8577,-10813.19,-370.79,-1603.32,-4222.01
312416.8587,-10795.79,-381.18,-1596.21,-4220.1
312416.8597,-10838.13,-426.58,-1645.61,-4264.64
312416.8607,-10954.57,-539.49,-1764.73,-4372.22
312416.8617,-11098.82,-681.73,-1911.16,-4503.82
312416.8627,-11257.6,-830.27,-2074.43,-4646.97
312416.8637,-11397.89,-975.42,-2215.96,-4780.72
312416.8647,-11509.23,-1092.05,-2304.94,-4886.15
312416.8657,-11623.38,-1197.67,-2411.22,-4995.39
312416.8667,-11722.33,-1288.94,-2522.52,-5091.38
312416.8677,-11769.73,-1324.61,-2583.27,-5132.72
312416.8687,-11763.24,-1307.3,-2586.79,-5116.8
312416.8697,-11719.23,-1251.89,-2541.92,-5065.3
312416.8707,-11614.85,-1144.93,-2422.57,-4967.93
312416.8717,-11480.14,-1007.7,-2279.47,-4838.66
312416.8727,-11329.41,-851.68,-2130.7,-4691.98
312416.8737,-11180.35,-691.22,-1960.42,-4542.21
312416.8747,-11045.65,-554.23,-1819.9,-4410.84
312416.8757,-10911.99,-428.49,-1699.3,-4289.48
312416.8767,-10814.57,-331.74,-1611.76,-4200.75
312416.8777,-10781.96,-298.6,-1580.86,-4167.84
312416.8787,-10783.96,-305.37,-1574.37,-4167.18
312416.8797,-10839.32,-370.07,-1623.44,-4222.73
312416.8807,-10959.1,-499.2,-1736.93,-4341.7
312416.8817,-11096.48,-647.59,-1873.59,-4477.45
312416.8827,-11240.29,-798.94,-2021.46,-4617.26
312416.8837,-11413.86,-964.45,-2185.2,-4770.23
312416.8847,-11581.61,-1122.33,-2347.14,-4920.53
312416.8857,-11707.16,-1247.6,-2472.97,-5037.12
312416.8867,-11800.0,-1340.68,-2567.1,-5126.81
312416.8877,-11824.7,-1371.48,-2597.48,-5156.14
312416.8887,-11806.82,-1357.22,-2581.64,-5143.98
312416.8897,-11742.88,-1283.5,-2516.46,-5081.23
312416.8907,-11626.1,-1158.67,-2412.46,-4968.02
312416.8917,-11498.02,-1017.05,-2298.31,-4839.8
312416.8927,-11328.75,-848.15,-2135.23,-4685.88
312416.8937,-11147.26,-676.68,-1954.89,-4528.14
312416.8947,-11004.35,-540.21,-1814.89,-4401.06
312416.8957,-10886.96,-426.63,-1698.68,-4290.53
312416.8967,-10801.98,-355.67,-1610.42,-4218.34
312416.8977,-10775.52,-339.03,-1574.9,-4196.07
312416.8987,-10783.91,-353.67,-1577.19,-4204.51
312416.8997,-10825.11,-410.56,-1622.63,-4252.39
312416.9007,-10911.9,-505.54,-1719.47,-4334.74
312416.9017,-11063.48,-642.73,-1887.8,-4467.2
312416.9027,-11233.14,-798.8,-2051.5,-4614.07
312416.9037,-11389.07,-949.72,-2190.78,-4756.07
312416.9047,-11543.9,-1093.34,-2339.27,-4895.64
312416.9057,-11683.32,-1225.47,-2486.37,-5023.24
312416.9067,-11774.83,-1315.31,-2577.64,-5106.55
312416.9077,-11788.56,-1332.81,-2576.49,-5122.23
312416.9087,-11764.38,-1314.97,-2546.17,-5109.74
312416.9097,-11721.47,-1263.43,-2506.59,-5072.88
312416.9107,-11635.73,-1165.82,-2426.15,-4986.62
312416.9117,-11501.89,-1027.73,-2295.11,-4860.35
312416.9127,-11334.9,-865.75,-2126.22,-4705.76
312416.9137,-11163.76,-705.72,-1953.08,-4552.08
312416.9147,-11008.07,-562.76,-1796.48,-4413.08
312416.9157,-10865.93,-433.78,-1664.35,-4287.86
312416.9167,-10777.24,-355.53,-1594.4,-4208.28
312416.9177,-10767.51,-346.47,-1595.59,-4197.45
312416.9187,-10791.88,-371.98,-1615.38,-4221.96
312416.9197,-10842.9,-432.59,-1649.57,-4276.47
312416.9207,-10919.38,-514.56,-1714.33,-4347.04
312416.9217,-11035.73,-627.71,-1852.51,-4449.46
312416.9227,-11189.51,-777.58,-2043.58,-4595.9
312416.9237,-11368.28,-945.81,-2214.43,-4754.59
312416.9247,-11534.55,-1101.64,-2358.48,-4896.5
312416.9257,-11666.82,-1227.47,-2472.83,-5013.23
312416.9267,-11769.96,-1328.71,-2551.32,-5110.88
312416.9277,-11828.33,-1378.25,-2581.31,-5169.01
312416.9287,-11832.19,-1369.71,-2564.72,-5168.77
312416.9297,-11749.46,-1275.73,-2493.33,-5079.99
312416.9307,-11617.61,-1136.54,-2374.08,-4949.28
312416.9317,-11488.77,-997.73,-2248.91,-4821.54
312416.9327,-11339.14,-849.82,-2094.13,-4677.34
312416.9337,-11188.32,-701.76,-1945.02,-4537.68
312416.9347,-11037.64,-558.14,-1804.83,-4405.98
312416.9357,-10854.58,-395.25,-1628.11,-4243.71
312416.9367,-10746.96,-308.9,-1519.82,-4152.63
312416.9377,-10740.62,-315.95,-1523.92,-4159.74
312416.9387,-10762.26,-337.79,-1591.3,-4186.77
312416.9397,-10828.11,-386.05,-1676.37,-4241.99
312416.9407,-10925.68,-472.88,-1756.86,-4326.06
312416.9417,-11063.29,-605.77,-1883.17,-4450.75
312416.9427,-11228.28,-769.0,-2041.53,-4605.39
312416.9437,-11391.93,-929.69,-2199.17,-4757.98
312416.9447,-11534.07,-1068.45,-2327.63,-4888.63
312416.9457,-11659.1,-1196.1,-2441.03,-5005.31
312416.9467,-11739.64,-1277.83,-2520.18,-5082.66
312416.9477,-11797.29,-1319.5,-2576.45,-5130.53
312416.9487,-11814.55,-1326.7,-2590.94,-5139.26
312416.9497,-11741.5,-1269.63,-2539.11,-5082.08
312416.9507,-11625.34,-1163.67,-2439.26,-4982.57
312416.9517,-11490.3,-1022.72,-2298.26,-4852.2
312416.9527,-11330.32,-856.83,-2128.7,-4694.03
312416.9537,-11172.01,-697.66,-1966.29,-4536.53
312416.9547,-11028.82,-560.71,-1821.8,-4400.59
312416.9557,-10907.6,-446.03,-1703.45,-4289.68
312416.9567,-10827.02,-375.89,-1627.06,-4222.68
312416.9577,-10780.15,-340.32,-1580.14,-4189.21
312416.9587,-10776.62,-338.46,-1571.51,-4188.11
312416.9597,-10849.29,-406.41,-1649.67,-4253.34
312416.9607,-10975.6,-527.38,-1777.6,-4370.74
312416.9617,-11118.13,-669.77,-1907.02,-4496.91
312416.9627,-11267.85,-820.54,-2045.92,-4635.43
312416.9637,-11417.15,-968.46,-2191.78,-4777.29
312416.9647,-11554.91,-1104.97,-2337.55,-4908.47
312416.9657,-11692.91,-1236.11,-2479.74,-5035.02
312416.9667,-11792.33,-1324.13,-2575.45,-5115.22
312416.9677,-11817.74,-1347.83,-2603.63,-5135.44
312416.9687,-11800.34,-1333.9,-2601.96,-5125.33
312416.9697,-11737.44,-1278.02,-2541.16,-5070.73
312416.9707,-11625.34,-1174.74,-2417.23,-4970.36
312416.9717,-11484.34,-1036.41,-2280.04,-4845.91
312416.9727,-11311.96,-867.94,-2123.17,-4691.46
312416.9737,-11132.91,-694.66,-1944.26,-4528.71
312416.9747,-10998.77,-560.71,-1789.52,-4397.77
312416.9757,-10878.23,-441.31,-1661.49,-4281.47
312416.9767,-10788.82,-350.76,-1582.0,-4203.56
312416.9777,-10751.68,-321.91,-1552.39,-4179.05
312416.9787,-10759.21,-335.79,-1571.99,-4195.17
312416.9797,-10805.42,-376.7,-1623.82,-4231.22
312416.9807,-10918.9,-484.75,-1732.97,-4329.54
312416.9817,-11079.74,-640.96,-1879.31,-4474.83
312416.9827,-11255.89,-812.58,-2052.69,-4638.15
312416.9837,-11413.62,-958.92,-2215.96,-4780.29
312416.9847,-11540.41,-1082.28,-2334.93,-4893.68
312416.9857,-11678.55,-1218.18,-2459.0,-5020.76
312416.9867,-11790.75,-1320.84,-2560.33,-5119.18
312416.9877,-11821.75,-1357.56,-2601.34,-5153.04
312416.9887,-11809.78,-1344.54,-2594.66,-5143.64
312416.9897,-11748.12,-1269.01,-2531.62,-5073.07
312416.9907,-11624.19,-1143.93,-2415.75,-4953.19
312416.9917,-11470.22,-997.73,-2280.0,-4817.77
312416.9927,-11305.05,-834.42,-2124.74,-4668.09
312416.9937,-11147.74,-680.02,-1966.81,-4523.56
312416.9947,-11022.19,-555.09,-1841.5,-4407.5
312416.9957,-10903.31,-437.59,-1714.47,-4294.87
312416.9967,-10803.75,-346.04,-1603.41,-4204.56
312416.9977,-10758.59,-317.14,-1561.45,-4173.09
312416.9987,-10753.01,-320.1,-1550.25,-4170.37
312416.9997,-10792.59,-365.26,-1588.54,-4212.9
312417.0007,-10889.48,-466.49,-1687.86,-4305.74
312417.0017,-11028.72,-608.97,-1844.12,-4441.26
312417.0027,-11205.05,-783.3,-2022.93,-4603.24
312417.0037,-11406.42,-970.41,-2213.14,-4780.25
312417.0047,-11578.32,-1130.29,-2365.45,-4929.4
312417.0057,-11724.28,-1265.24,-2487.99,-5059.43
312417.0067,-11814.69,-1342.01,-2566.62,-5134.06
312417.0077,-11839.72,-1348.78,-2584.46,-5146.46
312417.0087,-11849.5,-1339.39,-2584.65,-5143.6
312417.0097,-11814.93,-1284.22,-2548.12,-5099.73
312417.0107,-11689.19,-1155.38,-2431.01,-4981.04
312417.0117,-11520.96,-992.16,-2291.63,-4832.08
312417.0127,-11370.85,-842.38,-2150.87,-4695.27
312417.0137,-11235.91,-706.29,-2009.92,-4567.96
312417.0147,-11102.15,-575.16,-1881.74,-4439.55
312417.0157,-10950.47,-443.41,-1742.79,-4308.75
312417.0167,-10818.05,-338.94,-1616.67,-4210.28
312417.0177,-10747.86,-301.65,-1568.27,-4172.37
312417.0187,-10742.67,-327.21,-1562.93,-4189.01
312417.0197,-10804.27,-411.56,-1615.48,-4254.58
312417.0207,-10913.9,-532.2,-1726.58,-4350.62
312417.0217,-11057.81,-672.44,-1882.31,-4474.02
312417.0227,-11220.08,-825.5,-2053.83,-4617.02
312417.0237,-11376.05,-981.43,-2214.0,-4764.8
312417.0247,-11511.18,-1111.36,-2343.51,-4887.77
312417.0257,-11644.36,-1223.99,-2465.92,-5002.45
312417.0267,-11756.23,-1310.83,-2533.72,-5099.01
312417.0277,-11814.02,-1348.21,-2555.8,-5144.36
312417.0287,-11808.73,-1337.48,-2543.88,-5138.92
312417.0297,-11739.26,-1267.96,-2483.94,-5074.12
312417.0307,-11620.05,-1150.7,-2373.55,-4961.87
312417.0317,-11467.89,-1002.5,-2230.98,-4818.3
312417.0327,-11304.9,-842.43,-2090.55,-4672.0
312417.0337,-11162.47,-698.57,-1955.7,-4540.06
312417.0347,-11017.75,-557.47,-1804.4,-4403.45
312417.0357,-10870.55,-416.66,-1670.07,-4271.46
312417.0367,-10785.77,-332.21,-1607.8,-4195.31
312417.0377,-10781.34,-324.68,-1608.94,-4185.3
312417.0387,-10786.96,-335.84,-1604.41,-4187.92
312417.0397,-10843.23,-405.36,-1644.47,-4247.28
312417.0407,-10950.09,-515.75,-1750.37,-4351.09
312417.0417,-11066.39,-635.91,-1862.1,-4461.62
312417.0427,-11219.07,-791.17,-2007.06,-4607.77
312417.0437,-11401.75,-969.03,-2181.15,-4775.05
312417.0447,-11546.9,-1115.94,-2320.72,-4907.56
312417.0457,-11651.14,-1216.94,-2431.11,-5006.41
312417.0467,-11736.49,-1285.27,-2518.56,-5076.46
312417.0477,-11774.83,-1313.21,-2559.61,-5103.78
312417.0487,-11788.32,-1319.36,-2590.51,-5116.7
312417.0497,-11748.6,-1268.34,-2555.94,-5077.22
312417.0507,-11624.53,-1145.65,-2421.95,-4959.77
312417.0517,-11472.75,-996.16,-2266.79,-4814.82
312417.0527,-11313.54,-841.81,-2115.06,-4667.04
312417.0537,-11146.79,-685.74,-1951.17,-4517.41
312417.0547,-10989.05,-542.12,-1796.29,-4384.28
312417.0557,-10865.26,-427.68,-1676.18,-4275.56
312417.0567,-10781.77,-355.43,-1589.63,-4211.62
312417.0577,-10752.54,-329.97,-1564.74,-4190.3
312417.0587,-10750.72,-323.15,-1571.94,-4184.29
312417.0597,-10817.1,-382.23,-1641.61,-4235.08
312417.0607,-10937.6,-495.86,-1748.66,-4340.94
312417.0617,-11082.13,-642.25,-1887.51,-4474.83
312417.0627,-11236.38,-798.18,-2055.6,-4618.98
312417.0637,-11378.62,-938.42,-2189.59,-4748.49
312417.0647,-11521.2,-1074.89,-2326.2,-4879.33
312417.0657,-11670.78,-1209.26,-2474.5,-5013.04
312417.0667,-11782.6,-1305.15,-2578.31,-5105.83
312417.0677,-11827.18,-1335.91,-2621.84,-5137.78
312417.0687,-11827.23,-1332.86,-2622.89,-5135.2
312417.0697,-11767.96,-1276.68,-2556.09,-5085.52
312417.0707,-11656.95,-1165.72,-2424.19,-4986.38
312417.0717,-11507.56,-1019.91,-2267.36,-4848.72
312417.0727,-11336.95,-847.77,-2097.37,-4688.64
312417.0737,-11167.91,-676.97,-1934.62,-4526.47
312417.0747,-11008.6,-526.24,-1788.52,-4381.18
312417.0757,-10859.73,-392.77,-1648.19,-4251.77
312417.0767,-10778.81,-324.2,-1574.8,-4188.35
312417.0777,-10750.39,-305.6,-1549.01,-4172.23
312417.0787,-10725.17,-295.02,-1531.65,-4153.82
312417.0797,-10770.51,-355.29,-1585.87,-4201.32
312417.0807,-10906.36,-488.47,-1719.9,-4321.53
312417.0817,-11062.77,-637.96,-1881.12,-4461.86
312417.0827,-11227.47,-796.22,-2039.0,-4613.26
312417.0837,-11399.7,-955.1,-2198.41,-4765.8
312417.0847,-11554.96,-1099.06,-2344.42,-4903.75
312417.0857,-11687.09,-1228.05,-2475.45,-5020.95
312417.0867,-11763.67,-1307.92,-2561.81,-5098.34
312417.0877,-11803.58,-1337.58,-2601.58,-5131.58
312417.0887,-11814.4,-1335.38,-2611.45,-5135.49
312417.0897,-11753.89,-1266.43,-2542.54,-5074.45
312417.0907,-11646.22,-1151.42,-2414.04,-4970.5
312417.0917,-11512.33,-1013.85,-2257.44,-4837.7
312417.0927,-11353.73,-863.27,-2098.18,-4689.88
312417.0937,-11186.93,-713.44,-1957.89,-4549.84
312417.0947,-11039.35,-578.36,-1828.29,-4423.43
312417.0957,-10910.8,-456.95,-1698.11,-4306.79
312417.0967,-10812.09,-367.36,-1628.83,-4220.72
312417.0977,-10742.47,-305.03,-1591.97,-4159.59
312417.0987,-10743.0,-306.18,-1564.6,-4160.07
312417.0997,-10830.4,-404.5,-1630.35,-4249.53
312417.1007,-10962.73,-543.93,-1776.41,-4379.8
312417.1017,-11101.49,-683.59,-1921.56,-4507.88
312417.1027,-11233.14,-808.43,-2047.4,-4622.27
312417.1037,-11392.79,-958.06,-2202.8,-4766.94
312417.1047,-11547.52,-1103.59,-2336.88,-4906.04
312417.1057,-11678.41,-1228.0,-2463.48,-5025.29
312417.1067,-11753.47,-1288.41,-2546.41,-5088.85
312417.1077,-11766.63,-1285.17,-2563.95,-5093.48
312417.1087,-11756.71,-1272.2,-2552.08,-5083.13
312417.1097,-11695.67,-1213.22,-2475.83,-5025.72
312417.1107,-11598.35,-1108.31,-2356.62,-4921.96
312417.1117,-11480.19,-983.62,-2248.29,-4805.18
312417.1127,-11331.13,-840.57,-2110.67,-4674.24
312417.1137,-11164.71,-688.31,-1947.5,-4530.0
312417.1147,-11013.84,-543.64,-1787.52,-4386.38
312417.1157,-10893.25,-417.95,-1663.73,-4265.26
312417.1167,-10820.06,-347.42,-1603.13,-4201.75
312417.1177,-10788.63,-325.35,-1575.42,-4173.23
312417.1187,-10786.01,-329.69,-1569.41,-4168.56
312417.1197,-10827.16,-376.13,-1618.96,-4215.57
312417.1207,-10925.68,-484.66,-1727.3,-4318.33
312417.1217,-11074.93,-646.64,-1885.8,-4471.11
312417.1227,-11231.57,-816.49,-2047.83,-4628.18
312417.1237,-11388.02,-970.79,-2204.32,-4775.14
312417.1247,-11543.8,-1114.46,-2355.39,-4914.95
312417.1257,-11676.98,-1238.73,-2482.7,-5036.64
312417.1267,-11749.46,-1306.87,-2552.7,-5103.83
312417.1277,-11757.71,-1310.06,-2560.52,-5112.17
312417.1287,-11750.79,-1292.8,-2554.27,-5102.02
312417.1297,-11709.93,-1240.4,-2520.18,-5060.24
312417.1307,-11613.94,-1140.02,-2426.24,-4965.97
312417.1317,-11471.13,-995.4,-2268.27,-4820.92
312417.1327,-11301.47,-827.88,-2100.28,-4662.09
312417.1337,-11136.34,-670.29,-1938.63,-4511.93
312417.1347,-10998.68,-537.16,-1803.54,-4382.66
312417.1357,-10857.82,-403.79,-1666.07,-4252.77
312417.1367,-10780.34,-334.55,-1590.82,-4189.06
312417.1377,-10753.16,-311.71,-1557.25,-4165.89
312417.1387,-10760.69,-319.86,-1551.82,-4171.66
312417.1397,-10844.76,-405.41,-1638.7,-4253.63
312417.1407,-10967.45,-526.09,-1756.05,-4365.64
312417.1417,-11119.65,-665.24,-1906.01,-4496.19
312417.1427,-11283.11,-818.68,-2074.1,-4647.97
312417.1437,-11437.56,-965.45,-2212.1,-4786.35
312417.1447,-11591.72,-1104.4,-2353.86,-4914.71
312417.1457,-11725.62,-1223.18,-2478.12,-5023.29
312417.1467,-11807.63,-1299.67,-2555.18,-5092.19
312417.1477,-11829.33,-1325.18,-2589.32,-5117.94
312417.1487,-11799.05,-1305.72,-2563.52,-5099.96
312417.1497,-11703.92,-1223.14,-2476.93,-5029.63
312417.1507,-11585.86,-1108.79,-2358.2,-4926.54
312417.1517,-11465.22,-988.29,-2251.39,-4814.86
312417.1527,-11325.12,-849.87,-2126.41,-4687.02
312417.1537,-11168.77,-699.14,-1966.67,-4539.97
312417.1547,-11023.43,-561.14,-1821.57,-4403.07
312417.1557,-10889.72,-431.3,-1694.58,-4278.47
312417.1567,-10800.17,-351.48,-1610.28,-4204.7
312417.1577,-10759.88,-323.63,-1570.99,-4177.81
312417.1587,-10760.59,-334.12,-1572.7,-4182.34
312417.1597,-10812.28,-388.91,-1632.02,-4233.07
312417.1607,-10905.7,-485.47,-1727.72,-4322.77
312417.1617,-11036.45,-613.59,-1853.66,-4438.45
312417.1627,-11190.46,-765.23,-2008.01,-4585.27
312417.1637,-11371.47,-938.84,-2185.68,-4751.92
312417.1647,-11557.44,-1109.46,-2355.34,-4914.24
312417.1657,-11697.01,-1237.68,-2475.74,-5034.54
312417.1667,-11766.77,-1302.34,-2538.73,-5097.49
312417.1677,-11771.78,-1305.44,-2532.53,-5102.44
312417.1687,-11768.44,-1301.86,-2531.72,-5103.92
312417.1697,-11724.76,-1253.08,-2501.68,-5065.68
312417.1707,-11629.54,-1151.99,-2411.7,-4975.03
312417.1717,-11493.06,-1012.9,-2287.58,-4842.62
312417.1727,-11330.32,-853.59,-2133.56,-4687.26
312417.1737,-11153.94,-688.03,-1947.59,-4524.66
312417.1747,-10988.05,-531.96,-1761.15,-4377.17
312417.1757,-10854.48,-406.27,-1628.16,-4258.44
312417.1767,-10784.01,-334.45,-1572.37,-4192.69
312417.1777,-10769.7,-317.91,-1570.99,-4173.71
312417.1787,-10789.16,-333.64,-1586.25,-4186.01
312417.1797,-10862.21,-404.79,-1652.43,-4251.72
312417.1807,-10978.6,-521.99,-1758.67,-4359.34
312417.1817,-11107.68,-654.51,-1881.55,-4483.08
312417.1827,-11249.45,-801.42,-2018.74,-4618.74
312417.1837,-11399.56,-943.85,-2156.07,-4748.77
312417.1847,-11542.89,-1082.85,-2308.37,-4882.43
312417.1857,-11662.91,-1207.11,-2452.8,-4999.3
312417.1867,-11745.55,-1291.85,-2557.9,-5081.37
312417.1877,-11800.77,-1330.19,-2605.15,-5123.0
312417.1887,-11820.89,-1329.95,-2614.26,-5131.67
312417.1897,-11768.15,-1266.29,-2546.26,-5078.17
312417.1907,-11637.69,-1134.06,-2401.07,-4954.82
312417.1917,-11468.6,-976.42,-2238.37,-4802.51
312417.1927,-11308.0,-819.73,-2085.5,-4657.46
312417.1937,-11180.59,-690.79,-1953.46,-4542.4
312417.1947,-11042.17,-554.61,-1813.79,-4413.56
312417.1957,-10885.53,-406.03,-1659.68,-4272.8
312417.1967,-10795.45,-334.55,-1577.57,-4200.98
312417.1977,-10784.25,-329.78,-1583.53,-4191.83
312417.1987,-10804.03,-354.81,-1620.1,-4211.0
312417.1997,-10856.73,-421.14,-1692.25,-4257.11
312417.2007,-10939.93,-511.93,-1786.52,-4335.36
312417.2017,-11083.46,-652.98,-1927.38,-4469.82
312417.2027,-11254.69,-821.07,-2088.64,-4630.76
312417.2037,-11389.83,-954.58,-2211.19,-4764.84
312417.2047,-11534.41,-1095.25,-2319.05,-4900.22
312417.2057,-11683.42,-1233.77,-2448.65,-5036.93
312417.2067,-11758.76,-1299.0,-2522.95,-5105.93
312417.2077,-11779.31,-1319.46,-2557.8,-5130.53
312417.2087,-11769.25,-1309.87,-2555.7,-5121.28
312417.2097,-11688.81,-1231.58,-2482.08,-5046.46
312417.2107,-11572.79,-1111.94,-2372.07,-4933.17
312417.2117,-11444.81,-975.42,-2246.76,-4804.99
312417.2127,-11291.46,-822.54,-2088.02,-4657.36
312417.2137,-11134.1,-672.05,-1937.58,-4511.93
312417.2147,-10993.72,-534.06,-1805.88,-4382.56
312417.2157,-10863.4,-409.03,-1674.08,-4264.31
312417.2167,-10794.02,-340.6,-1588.2,-4196.07
312417.2177,-10773.18,-323.34,-1565.27,-4175.38
312417.2187,-10782.82,-341.56,-1588.39,-4188.68
312417.2197,-10847.81,-414.9,-1667.83,-4257.87
312417.2207,-10964.68,-528.86,-1787.0,-4365.3
312417.2217,-11115.12,-673.44,-1941.73,-4498.58
312417.2227,-11284.07,-836.42,-2121.31,-4654.46
312417.2237,-11442.0,-995.59,-2259.54,-4802.94
312417.2247,-11591.48,-1139.97,-2372.46,-4936.84
312417.2257,-11726.95,-1263.52,-2491.09,-5054.38
312417.2267,-11800.77,-1328.99,-2556.37,-5123.43
312417.2277,-11804.15,-1333.28,-2550.98,-5130.86
312417.2287,-11792.71,-1321.08,-2542.26,-5118.66
312417.2297,-11745.55,-1265.0,-2499.06,-5070.26
312417.2307,-11640.5,-1153.9,-2394.63,-4967.12
312417.2317,-11500.31,-1015.57,-2257.06,-4829.36
312417.2327,-11326.36,-847.29,-2118.02,-4669.62
312417.2337,-11163.52,-695.42,-1981.45,-4526.38
312417.2347,-11031.82,-568.34,-1842.83,-4406.36
312417.2357,-10902.17,-440.41,-1700.97,-4284.72
312417.2367,-10793.4,-343.51,-1584.72,-4184.96
312417.2377,-10746.43,-306.32,-1538.13,-4155.06
312417.2387,-10781.72,-340.22,-1576.61,-4187.44
312417.2397,-10864.69,-425.24,-1669.84,-4265.69
312417.2407,-10957.1,-514.17,-1758.53,-4358.29
312417.2417,-11088.71,-639.2,-1872.92,-4478.84
312417.2427,-11248.69,-793.27,-2025.8,-4622.7
312417.2437,-11410.76,-944.38,-2189.26,-4766.51
312417.2447,-11569.02,-1090.34,-2340.56,-4906.65
312417.2457,-11713.55,-1226.57,-2469.16,-5029.35
312417.2467,-11806.35,-1310.92,-2554.32,-5102.54
312417.2477,-11815.26,-1329.42,-2582.5,-5117.61
312417.2487,-11794.66,-1319.31,-2615.64,-5113.08
312417.2497,-11741.93,-1267.67,-2572.01,-5074.6
312417.2507,-11626.72,-1148.84,-2396.06,-4968.69
312417.2517,-11476.09,-990.25,-2231.03,-4822.78
312417.2527,-11318.68,-823.55,-2101.42,-4667.09
312417.2537,-11155.89,-661.23,-1942.92,-4513.79
312417.2547,-10987.33,-506.78,-1757.72,-4361.01
312417.2557,-10845.47,-377.85,-1610.61,-4229.83
312417.2567,-10771.37,-310.99,-1546.29,-4162.41
312417.2577,-10762.98,-309.52,-1545.33,-4155.78
312417.2587,-10794.35,-348.23,-1588.82,-4188.63
312417.2597,-10843.95,-412.37,-1655.48,-4246.43
312417.2607,-10925.96,-503.06,-1742.65,-4332.35
312417.2617,-11034.11,-611.26,-1844.64,-4436.02
312417.2627,-11172.11,-749.92,-1979.92,-4568.39
312417.2637,-11342.15,-919.15,-2147.67,-4731.04
312417.2647,-11532.02,-1097.68,-2327.87,-4904.46
312417.2657,-11699.96,-1250.36,-2491.52,-5055.95
312417.2667,-11795.28,-1329.99,-2587.84,-5137.16
312417.2677,-11822.18,-1344.49,-2616.26,-5154.9
312417.2687,-11809.4,-1320.55,-2604.01,-5135.82
312417.2697,-11737.16,-1236.87,-2523.52,-5058.38
312417.2707,-11621.48,-1114.37,-2398.3,-4942.89
312417.2717,-11493.54,-978.33,-2265.02,-4819.68
312417.2727,-11331.18,-811.77,-2107.72,-4660.42
312417.2737,-11140.06,-625.66,-1925.13,-4479.93
312417.2747,-10978.8,-475.6,-1767.68,-4338.12
312417.2757,-10873.89,-379.66,-1655.77,-4243.33
312417.2767,-10818.34,-337.03,-1585.82,-4195.02
312417.2777,-10798.26,-338.89,-1555.68,-4182.48
312417.2787,-10792.45,-359.49,-1558.3,-4193.5
312417.2797,-10825.25,-420.0,-1606.66,-4244.61
312417.2807,-10934.21,-529.96,-1721.57,-4348.56
312417.2817,-11067.11,-657.84,-1857.19,-4468.78
312417.2827,-11200.95,-797.56,-1996.28,-4597.86
312417.2837,-11361.6,-955.82,-2156.35,-4748.11
312417.2847,-11524.82,-1106.07,-2323.44,-4900.03
312417.2857,-11659.53,-1226.9,-2454.14,-5022.38
312417.2867,-11761.14,-1308.97,-2550.51,-5101.16
312417.2877,-11801.53,-1340.29,-2588.89,-5136.59
312417.2887,-11800.39,-1334.33,-2591.66,-5133.72
312417.2897,-11741.07,-1271.1,-2551.17,-5076.27
312417.2907,-11624.77,-1154.04,-2446.32,-4970.55
312417.2917,-11485.15,-1016.9,-2319.1,-4839.28
312417.2927,-11319.5,-854.64,-2158.31,-4684.64
312417.2937,-11155.7,-692.22,-1977.4,-4526.81
312417.2947,-11000.68,-536.97,-1801.68,-4372.88
312417.2957,-10880.19,-411.65,-1656.01,-4251.48
312417.2967,-10809.76,-338.03,-1570.18,-4180.53
312417.2977,-10771.42,-309.32,-1546.91,-4150.25
312417.2987,-10769.08,-316.43,-1578.62,-4157.59
312417.2997,-10852.24,-408.7,-1667.79,-4249.38
312417.3007,-10960.91,-521.76,-1762.91,-4355.86
312417.3017,-11060.76,-636.2,-1859.05,-4459.24
312417.3027,-11201.67,-783.54,-1991.18,-4603.67
312417.3037,-11352.97,-927.5,-2147.2,-4745.82
312417.3047,-11514.67,-1072.88,-2307.56,-4890.54
312417.3057,-11673.4,-1212.45,-2454.14,-5025.1
312417.3067,-11774.16,-1298.38,-2541.69,-5107.31
312417.3077,-11810.83,-1324.37,-2574.68,-5133.34
312417.3087,-11810.11,-1316.36,-2575.35,-5129.77
312417.3097,-11733.06,-1233.2,-2508.02,-5051.8
312417.3107,-11609.89,-1106.98,-2393.15,-4934.03
312417.3117,-11463.74,-960.02,-2242.14,-4797.94
312417.3127,-11312.92,-804.76,-2075.91,-4649.88
312417.3137,-11175.01,-668.57,-1931.33,-4516.27
312417.3147,-11038.54,-540.21,-1802.83,-4397.01
312417.3157,-10905.74,-413.56,-1666.83,-4270.89
312417.3167,-10818.29,-337.93,-1576.38,-4190.73
312417.3177,-10791.11,-320.72,-1556.54,-4173.76
312417.3187,-10809.95,-343.08,-1585.53,-4194.36
312417.3197,-10889.77,-418.19,-1683.76,-4262.21
312417.3207,-11000.54,-530.48,-1806.07,-4368.73
312417.3217,-11131.24,-666.0,-1932.67,-4496.43
312417.3227,-11268.43,-808.95,-2064.56,-4630.28
312417.3237,-11422.73,-963.07,-2216.77,-4779.72
312417.3247,-11576.42,-1114.94,-2362.35,-4922.68
312417.3257,-11702.97,-1238.39,-2476.74,-5039.6
312417.3267,-11779.55,-1308.97,-2546.6,-5110.26
312417.3277,-11817.03,-1335.76,-2582.22,-5137.73
312417.3287,-11813.59,-1324.51,-2576.78,-5129.05
312417.3297,-11744.45,-1250.17,-2511.31,-5061.2
312417.3307,-11625.2,-1133.2,-2403.93,-4954.72
312417.3317,-11478.71,-992.25,-2270.22,-4821.16
312417.3327,-11318.54,-838.33,-2126.07,-4672.72
312417.3337,-11164.86,-691.94,-1985.93,-4530.19
312417.3347,-11020.61,-554.99,-1841.4,-4399.35
312417.3357,-10881.95,-426.82,-1705.22,-4275.94
312417.3367,-10795.4,-350.19,-1619.39,-4199.51
312417.3377,-10774.71,-331.35,-1588.3,-4180.77
312417.3387,-10790.54,-351.1,-1587.96,-4198.03
312417.3397,-10855.2,-424.43,-1654.48,-4261.3
312417.3407,-10962.77,-529.24,-1765.54,-4363.49
312417.3417,-11127.28,-680.26,-1927.95,-4510.93
312417.3427,-11319.5,-858.74,-2117.49,-4684.45
312417.3437,-11470.13,-1008.42,-2257.49,-4824.5
312417.3447,-11593.92,-1129.44,-2355.15,-4938.41
312417.3457,-11722.85,-1247.31,-2483.56,-5052.19
312417.3467,-11795.81,-1305.01,-2567.48,-5103.16
312417.3477,-11828.47,-1323.13,-2606.68,-5122.14
312417.3487,-11803.68,-1297.81,-2589.42,-5106.31
312417.3497,-11675.93,-1182.32,-2447.18,-5002.5
312417.3507,-11546.76,-1054.24,-2297.5,-4883.72
312417.3517,-11430.93,-935.75,-2195.93,-4775.95
312417.3527,-11306.86,-810.58,-2080.87,-4657.84
312417.3537,-11163.9,-672.1,-1932.53,-4517.08
312417.3547,-11012.13,-536.54,-1785.14,-4387.0
312417.3557,-10882.86,-420.14,-1654.05,-4272.37
312417.3567,-10796.36,-341.27,-1570.89,-4192.21
312417.3577,-10764.55,-321.05,-1553.96,-4169.56
312417.3587,-10757.35,-327.4,-1557.87,-4173.8
312417.3597,-10812.67,-392.72,-1621.44,-4232.98
312417.3607,-10924.15,-508.5,-1735.59,-4341.7
312417.3617,-11062.72,-647.4,-1864.29,-4474.55
312417.3627,-11224.56,-806.95,-2014.97,-4624.89
312417.3637,-11393.41,-971.98,-2183.53,-4781.58
312417.3647,-11547.66,-1119.23,-2340.79,-4927.78
312417.3657,-11678.08,-1247.93,-2480.75,-5052.38
312417.3667,-11763.19,-1328.33,-2567.24,-5125.76
312417.3677,-11788.42,-1351.64,-2580.93,-5146.17
312417.3687,-11777.02,-1336.77,-2577.35,-5133.34
312417.3697,-11719.94,-1265.0,-2537.73,-5075.41
312417.3707,-11609.17,-1138.78,-2429.68,-4962.73
312417.3717,-11470.51,-998.12,-2274.56,-4828.74
312417.3727,-11327.89,-852.54,-2103.42,-4689.55
312417.3737,-11175.54,-700.52,-1932.38,-4545.45
312417.3747,-11021.66,-552.23,-1785.71,-4401.11
312417.3757,-10887.67,-421.86,-1661.44,-4278.09
312417.3767,-10787.73,-324.58,-1572.75,-4183.67
312417.3777,-10736.32,-276.37,-1527.4,-4132.27
312417.3787,-10754.73,-296.59,-1547.15,-4146.39
312417.3797,-10853.24,-397.59,-1643.71,-4240.13
312417.3807,-10992.34,-534.96,-1779.6,-4371.26
312417.3817,-11138.92,-680.02,-1917.65,-4504.3
312417.3827,-11285.5,-828.41,-2060.56,-4639.2
312417.3837,-11442.85,-978.23,-2213.76,-4786.21
312417.3847,-11592.77,-1123.95,-2350.86,-4923.06
312417.3857,-11704.4,-1233.1,-2451.61,-5027.34
312417.3867,-11753.85,-1281.79,-2500.49,-5070.31
312417.3877,-11767.34,-1294.76,-2544.16,-5087.42
312417.3887,-11768.01,-1288.08,-2558.14,-5090.9
312417.3897,-11730.43,-1236.2,-2501.44,-5041.79
312417.3907,-11656.57,-1134.78,-2419.71,-4948.81
312417.3917,-11502.27,-979.14,-2272.08,-4809.67
312417.3927,-11314.35,-801.99,-2078.25,-4643.35
312417.3937,-11164.0,-656.22,-1917.31,-4497.39
312417.3947,-11025.53,-529.34,-1789.19,-4372.41
312417.3957,-10877.23,-395.39,-1656.34,-4242.66
312417.3967,-10759.55,-297.59,-1561.12,-4148.29
312417.3977,-10721.49,-276.57,-1532.08,-4126.12
312417.3987,-10754.92,-317.67,-1562.88,-4163.41
312417.3997,-10850.0,-419.95,-1663.97,-4264.02
312417.4007,-10983.71,-554.04,-1806.21,-4394.2
312417.4017,-11115.7,-684.31,-1935.01,-4523.04
312417.4027,-11235.67,-810.48,-2049.54,-4646.11
312417.4037,-11376.95,-950.77,-2182.53,-4782.92
312417.4047,-11536.36,-1099.73,-2328.92,-4928.3
312417.4057,-11694.62,-1245.02,-2481.65,-5065.78
312417.4067,-11774.02,-1310.4,-2552.84,-5124.76
312417.4077,-11791.9,-1316.31,-2567.53,-5129.05
312417.4087,-11783.32,-1290.51,-2551.46,-5104.4
312417.4097,-11704.78,-1209.35,-2470.3,-5024.05
312417.4107,-11579.47,-1096.92,-2350.66,-4915.62
312417.4117,-11438.56,-964.45,-2216.39,-4792.17
312417.4127,-11289.55,-815.82,-2077.29,-4654.84
312417.4137,-11132.05,-666.14,-1928.28,-4510.31
312417.4147,-10980.8,-521.23,-1770.93,-4367.3
312417.4157,-10863.26,-401.35,-1641.89,-4248.76
312417.4167,-10812.14,-350.81,-1581.1,-4195.74
312417.4177,-10783.77,-330.54,-1564.12,-4172.95
312417.4187,-10775.47,-330.02,-1583.39,-4172.13
312417.4197,-10848.9,-395.44,-1662.64,-4236.65
312417.4207,-10955.62,-494.1,-1760.86,-4332.78
312417.4217,-11071.73,-609.92,-1868.06,-4442.98
312417.4227,-11226.23,-763.61,-2016.5,-4586.32
312417.4237,-11409.81,-943.99,-2195.41,-4757.36
312417.4247,-11604.83,-1130.34,-2391.29,-4941.23
312417.4257,-11752.37,-1269.58,-2536.01,-5077.65
312417.4267,-11811.73,-1322.94,-2584.12,-5128.0
312417.4277,-11814.88,-1315.16,-2567.43,-5125.24
312417.4287,-11804.87,-1297.76,-2551.32,-5109.6
312417.4297,-11755.47,-1244.02,-2511.41,-5059.77
312417.4307,-11658.72,-1142.79,-2422.0,-4966.88
312417.4317,-11514.05,-1005.84,-2290.15,-4838.9
312417.4327,-11341.05,-841.47,-2129.41,-4678.58
312417.4337,-11171.2,-680.49,-1973.25,-4522.42
312417.4347,-11018.61,-541.16,-1814.17,-4390.91
312417.4357,-10885.14,-417.61,-1673.98,-4277.9
312417.4367,-10795.79,-339.75,-1585.44,-4200.94
312417.4377,-10758.12,-307.75,-1546.67,-4167.32
312417.4387,-10777.38,-327.21,-1568.99,-4180.96
312417.4397,-10854.15,-402.83,-1640.27,-4253.72
312417.4407,-10950.66,-493.29,-1744.84,-4339.27
312417.4417,-11085.85,-620.65,-1894.76,-4460.24
312417.4427,-11262.23,-789.93,-2076.72,-4620.74
312417.4437,-11445.38,-964.98,-2252.77,-4791.88
312417.4447,-11597.59,-1108.36,-2392.15,-4929.02
312417.4457,-11707.88,-1221.13,-2507.02,-5033.49
312417.4467,-11779.02,-1301.72,-2561.57,-5102.3
312417.4477,-11821.8,-1345.83,-2564.29,-5142.16
312417.4487,-11832.67,-1348.54,-2571.73,-5148.22
312417.4497,-11764.48,-1280.83,-2530.38,-5088.28
312417.4507,-11613.37,-1149.23,-2381.66,-4958.34
312417.4517,-11437.99,-989.25,-2201.75,-4804.42
312417.4527,-11277.01,-822.54,-2043.96,-4655.79
312417.4537,-11118.79,-665.9,-1894.9,-4515.74
312417.4547,-10942.32,-501.2,-1726.87,-4356.34
312417.4557,-10778.09,-343.42,-1577.33,-4204.99
312417.4567,-10704.47,-268.13,-1516.29,-4127.46
312417.4577,-10709.0,-267.79,-1517.15,-4121.21
312417.4587,-10746.1,-306.56,-1543.47,-4151.77
312417.4597,-10817.48,-387.72,-1614.95,-4220.68
312417.4607,-10930.97,-506.35,-1739.84,-4327.68
312417.4617,-11077.17,-651.6,-1892.04,-4467.39
312417.4627,-11247.3,-815.01,-2057.5,-4628.33
312417.4637,-11421.44,-978.52,-2224.68,-4784.68
312417.4647,-11592.2,-1134.59,-2396.11,-4936.74
312417.4657,-11727.33,-1258.99,-2516.79,-5061.53
312417.4667,-11793.76,-1320.46,-2562.33,-5123.71
312417.4677,-11783.55,-1306.01,-2547.79,-5112.89
312417.4687,-11743.88,-1256.61,-2506.73,-5072.36
312417.4697,-11682.23,-1185.37,-2450.37,-5011.37
312417.4707,-11595.35,-1097.06,-2362.06,-4928.16
312417.4717,-11464.55,-966.17,-2224.78,-4801.46
312417.4727,-11297.7,-802.04,-2061.32,-4646.97
312417.4737,-11163.47,-670.48,-1930.67,-4523.99
312417.4747,-11031.68,-542.83,-1800.97,-4402.73
312417.4757,-10882.47,-409.7,-1660.92,-4266.26
312417.4767,-10796.98,-337.79,-1587.44,-4194.45
312417.4777,-10785.06,-329.88,-1578.43,-4180.38
312417.4787,-10819.53,-361.06,-1614.52,-4204.75
312417.4797,-10890.91,-441.93,-1692.87,-4281.81
312417.4807,-10985.23,-552.99,-1800.39,-4386.0
312417.4817,-11110.97,-683.02,-1937.72,-4510.45
312417.4827,-11272.15,-839.38,-2091.84,-4654.98
312417.4837,-11432.94,-989.01,-2234.27,-4799.89
312417.4847,-11571.46,-1119.42,-2355.53,-4925.01
312417.4857,-11684.37,-1225.42,-2457.09,-5027.25
312417.4867,-11750.65,-1281.5,-2525.0,-5087.66
312417.4877,-11785.41,-1306.72,-2558.52,-5118.13
312417.4887,-11789.51,-1297.43,-2552.32,-5113.55
312417.4897,-11732.29,-1230.24,-2494.43,-5052.85
312417.4907,-11617.71,-1117.32,-2383.76,-4945.99
312417.4917,-11447.34,-952.29,-2216.86,-4784.2
312417.4927,-11267.62,-771.14,-2037.05,-4613.35
312417.4937,-11119.99,-627.04,-1890.75,-4473.78
312417.4947,-10996.15,-511.55,-1770.59,-4360.58
312417.4957,-10884.48,-415.04,-1666.83,-4266.74
312417.4967,-10811.85,-352.81,-1604.18,-4203.89
312417.4977,-10782.15,-325.92,-1583.0,-4176.62
312417.4987,-10794.45,-342.32,-1608.23,-4195.36
312417.4997,-10879.47,-429.92,-1691.25,-4278.28
312417.5007,-11013.75,-557.66,-1801.82,-4396.3
312417.5017,-11158.94,-698.47,-1936.15,-4530.29
312417.5027,-11321.74,-856.11,-2096.22,-4679.3
312417.5037,-11469.22,-999.64,-2237.75,-4813.05
312417.5047,-11606.17,-1128.05,-2377.22,-4938.08
312417.5057,-11724.38,-1241.21,-2490.85,-5048.08
312417.5067,-11785.51,-1296.09,-2547.69,-5104.35
312417.5077,-11796.48,-1292.8,-2564.14,-5108.26
312417.5087,-11776.73,-1262.24,-2536.15,-5084.42
312417.5097,-11700.25,-1192.0,-2441.31,-5018.81
312417.5107,-11578.47,-1081.99,-2312.95,-4914.33
312417.5117,-11424.4,-935.51,-2159.12,-4771.33
312417.5127,-11256.31,-772.05,-2004.34,-4609.82
312417.5137,-11115.5,-635.24,-1884.56,-4479.74
312417.5147,-10982.61,-511.46,-1787.47,-4359.82
312417.5157,-10842.23,-387.86,-1681.85,-4239.13
312417.5167,-10765.41,-320.39,-1603.56,-4171.56
312417.5177,-10756.3,-308.37,-1582.0,-4158.59
312417.5187,-10786.49,-337.31,-1604.6,-4185.06
312417.5197,-10863.35,-415.61,-1665.21,-4257.06
312417.5207,-10982.37,-534.11,-1769.5,-4367.92
312417.5217,-11131.72,-678.59,-1894.43,-4507.59
312417.5227,-11287.64,-829.94,-2036.86,-4652.55
312417.5237,-11443.28,-978.28,-2194.12,-4796.84
312417.5247,-11578.13,-1103.69,-2329.3,-4921.53
312417.5257,-11684.37,-1205.06,-2443.6,-5016.04
312417.5267,-11762.91,-1278.35,-2537.11,-5088.66
312417.5277,-11812.88,-1322.7,-2603.34,-5135.01
312417.5287,-11815.98,-1318.74,-2629.66,-5130.1
312417.5297,-11724.09,-1231.96,-2558.18,-5043.36
312417.5307,-11565.16,-1090.96,-2381.61,-4906.99
312417.5317,-11419.06,-949.14,-2211.19,-4775.0
312417.5327,-11278.92,-807.81,-2086.21,-4646.4
312417.5337,-11113.03,-639.77,-1937.44,-4492.57
312417.5347,-10954.91,-479.36,-1787.28,-4340.6
312417.5357,-10846.52,-365.59,-1662.3,-4231.07
312417.5367,-10816.34,-335.79,-1599.65,-4199.55
312417.5377,-10806.32,-331.59,-1579.33,-4191.83
312417.5387,-10808.8,-343.37,-1590.2,-4204.18
312417.5397,-10867.41,-408.36,-1651.53,-4268.03
312417.5407,-10953.28,-496.58,-1720.38,-4348.37
312417.5417,-11103.15,-633.38,-1866.87,-4483.8
312417.5427,-11275.29,-799.04,-2033.76,-4640.68
312417.5437,-11435.8,-949.72,-2178.19,-4776.24
312417.5447,-11600.21,-1101.92,-2347.18,-4918.86
312417.5457,-11731.1,-1234.58,-2489.52,-5045.99
312417.5467,-11809.83,-1315.78,-2572.58,-5127.76
312417.5477,-11831.33,-1338.15,-2604.06,-5149.17
312417.5487,-11805.82,-1319.36,-2594.9,-5128.0
312417.5497,-11726.09,-1242.97,-2525.76,-5055.52
312417.5507,-11596.78,-1121.14,-2415.71,-4938.27
312417.5517,-11432.27,-968.93,-2248.1,-4790.83
312417.5527,-11254.36,-791.74,-2044.58,-4621.55
312417.5537,-11100.87,-631.95,-1881.89,-4468.3
312417.5547,-10972.83,-500.68,-1747.13,-4341.32
312417.5557,-10854.1,-382.14,-1615.24,-4223.16
312417.5567,-10773.04,-302.08,-1534.46,-4144.48
312417.5577,-10746.19,-283.86,-1515.72,-4120.97
312417.5587,-10768.94,-324.01,-1557.16,-4152.54
312417.5597,-10873.41,-431.68,-1671.84,-4258.68
312417.5607,-11013.32,-561.57,-1799.06,-4390.1
312417.5617,-11150.93,-693.66,-1932.91,-4522.8
312417.5627,-11291.22,-833.51,-2076.72,-4661.18
312417.5637,-11435.61,-973.89,-2215.43,-4797.6
312417.5647,-11569.79,-1107.03,-2349.14,-4925.59
312417.5657,-11693.67,-1230.24,-2471.54,-5043.08
312417.5667,-11764.62,-1296.52,-2540.78,-5112.51
312417.5677,-11790.75,-1313.83,-2569.29,-5131.77
312417.5687,-11783.32,-1296.47,-2563.86,-5114.75
312417.5697,-11705.97,-1215.32,-2488.28,-5037.02
312417.5707,-11586.05,-1096.06,-2365.54,-4924.39
312417.5717,-11447.67,-958.78,-2221.35,-4793.5
312417.5727,-11294.18,-807.24,-2069.76,-4650.35
312417.5737,-11137.25,-659.42,-1924.04,-4508.35
312417.5747,-10989.29,-521.14,-1782.27,-4375.98
312417.5757,-10864.69,-398.11,-1659.82,-4257.54
312417.5767,-10801.65,-335.6,-1595.31,-4193.74
312417.5777,-10779.19,-321.82,-1570.18,-4174.66
312417.5787,-10786.06,-335.84,-1574.9,-4182.43
312417.5797,-10866.5,-417.23,-1660.54,-4254.44
312417.5807,-10982.85,-530.0,-1779.89,-4363.78
312417.5817,-11119.51,-664.28,-1910.4,-4498.01
312417.5827,-11286.21,-827.41,-2064.99,-4659.7
312417.5837,-11460.31,-994.97,-2222.59,-4820.11
312417.5847,-11618.47,-1145.98,-2370.31,-4963.73
312417.5857,-11743.02,-1262.28,-2484.99,-5078.65
312417.5867,-11802.48,-1310.92,-2544.45,-5131.96
312417.5877,-11807.54,-1309.25,-2549.74,-5131.15
312417.5887,-11799.53,-1290.46,-2546.64,-5112.6
312417.5897,-11742.64,-1229.14,-2503.68,-5054.14
312417.5907,-11629.73,-1119.95,-2393.77,-4950.91
312417.5917,-11466.03,-963.16,-2231.5,-4803.23
312417.5927,-11285.88,-791.45,-2064.75,-4637.1
312417.5937,-11125.42,-647.59,-1911.5,-4496.53
312417.5947,-10961.15,-505.73,-1751.42,-4353.0
312417.5957,-10814.95,-364.88,-1600.98,-4214.95
312417.5967,-10749.06,-293.87,-1531.84,-4146.34
312417.5977,-10730.55,-281.43,-1519.68,-4134.42
312417.5987,-10740.62,-301.84,-1533.79,-4154.3
312417.5997,-10828.93,-391.1,-1633.74,-4240.32
312417.6007,-10974.46,-530.77,-1784.61,-4372.79
312417.6017,-11132.15,-676.2,-1938.06,-4510.36
312417.6027,-11295.03,-827.07,-2093.55,-4655.08
312417.6037,-11459.88,-974.7,-2249.15,-4801.46
312417.6047,-11600.21,-1110.03,-2382.18,-4932.02
312417.6057,-11713.08,-1229.95,-2504.06,-5045.75
312417.6067,-11780.74,-1297.33,-2583.03,-5113.13
312417.6077,-11819.32,-1323.6,-2609.68,-5140.64
312417.6087,-11837.91,-1330.95,-2618.5,-5144.31
312417.6097,-11776.93,-1263.71,-2557.8,-5080.32
312417.6107,-11644.41,-1127.53,-2403.78,-4949.43
312417.6117,-11481.33,-968.17,-2220.3,-4795.65
312417.6127,-11305.19,-803.76,-2057.98,-4638.15
312417.6137,-11133.48,-645.49,-1894.57,-4485.42
312417.6147,-10965.54,-491.91,-1720.24,-4336.5
312417.6157,-10823.39,-358.53,-1585.44,-4211.04
312417.6167,-10745.86,-292.16,-1533.32,-4147.39
312417.6177,-10721.16,-271.03,-1503.42,-4125.69
312417.6187,-10737.56,-289.3,-1521.4,-4137.37
312417.6197,-10830.4,-374.65,-1630.97,-4217.01
312417.6207,-10976.51,-506.07,-1779.37,-4342.03
312417.6217,-11142.35,-666.67,-1938.96,-4495.91
312417.6227,-11323.41,-845.15,-2115.35,-4666.14
312417.6237,-11488.63,-1008.8,-2282.33,-4824.54
312417.6247,-11639.41,-1158.57,-2439.59,-4969.31
312417.6257,-11771.25,-1285.6,-2575.16,-5096.39
312417.6267,-11826.85,-1348.4,-2617.93,-5159.0
312417.6277,-11813.45,-1344.54,-2585.84,-5156.8
312417.6287,-11772.97,-1303.01,-2530.38,-5114.7
312417.6297,-11691.0,-1216.65,-2451.32,-5033.78
312417.6307,-11573.7,-1091.29,-2338.74,-4917.34
312417.6317,-11412.76,-938.27,-2183.63,-4768.8
312417.6327,-11238.05,-773.76,-2035.67,-4610.63
312417.6337,-11092.57,-624.04,-1918.13,-4479.22
312417.6347,-10952.57,-488.47,-1792.62,-4352.33
312417.6357,-10838.7,-376.8,-1673.08,-4249.62
312417.6367,-10784.29,-314.33,-1581.48,-4191.83
312417.6377,-10764.98,-290.35,-1539.56,-4163.84
312417.6387,-10782.86,-302.79,-1539.04,-4173.33
312417.6397,-10860.73,-381.28,-1603.84,-4240.94
312417.6407,-10983.9,-506.02,-1746.7,-4356.62
312417.6417,-11147.6,-663.52,-1932.43,-4514.79
312417.6427,-11301.42,-815.34,-2092.79,-4660.46
312417.6437,-11446.05,-968.31,-2243.95,-4796.98
312417.6447,-11587.72,-1112.7,-2388.19,-4928.16
312417.6457,-11720.75,-1244.88,-2520.04,-5048.75
312417.6467,-11795.14,-1321.27,-2586.79,-5118.75
312417.6477,-11781.88,-1301.72,-2570.3,-5107.78
312417.6487,-11736.63,-1253.94,-2519.61,-5068.83
312417.6497,-11684.51,-1195.76,-2445.98,-5020.43
312417.6507,-11585.05,-1098.54,-2340.56,-4926.01
312417.6517,-11421.16,-946.19,-2184.34,-4774.28
312417.6527,-11239.58,-776.1,-2017.74,-4614.93
312417.6537,-11092.62,-634.05,-1883.17,-4481.89
312417.6547,-10965.87,-510.74,-1762.15,-4367.45
312417.6557,-10854.82,-396.2,-1651.0,-4259.25
312417.6567,-10789.2,-331.74,-1585.77,-4195.31
312417.6577,-10757.26,-308.08,-1556.44,-4167.51
312417.6587,-10756.3,-314.09,-1562.17,-4168.32
312417.6597,-10827.88,-388.24,-1635.98,-4236.32
312417.6607,-10950.76,-513.17,-1754.81,-4353.14
312417.6617,-11113.88,-671.72,-1919.32,-4503.44
312417.6627,-11303.52,-849.15,-2110.1,-4676.44
312417.6637,-11478.28,-1012.23,-2273.56,-4829.03
312417.6647,-11631.44,-1155.14,-2413.61,-4966.59
312417.6657,-11755.94,-1268.1,-2526.28,-5076.84
312417.6667,-11815.88,-1321.75,-2558.42,-5126.19
312417.6677,-11828.9,-1333.48,-2559.19,-5138.06
312417.6687,-11805.92,-1301.91,-2530.1,-5112.65
312417.6697,-11721.33,-1207.59,-2455.43,-5028.11
312417.6707,-11605.6,-1090.67,-2345.09,-4916.62
312417.6717,-11478.57,-962.78,-2215.48,-4797.41
312417.6727,-11314.58,-801.42,-2051.78,-4644.92
312417.6737,-11138.35,-632.33,-1883.08,-4484.03
312417.6747,-10988.48,-499.34,-1744.41,-4353.19
312417.6757,-10853.24,-384.43,-1621.77,-4246.9
312417.6767,-10773.95,-319.34,-1555.49,-4185.25
312417.6777,-10765.6,-320.15,-1575.66,-4185.92
312417.6787,-10783.44,-351.1,-1607.99,-4211.43
312417.6797,-10845.52,-417.61,-1664.11,-4268.79
312417.6807,-10940.03,-513.12,-1776.98,-4351.57
312417.6817,-11094.52,-658.32,-1934.05,-4487.75
312417.6827,-11292.79,-835.28,-2103.23,-4664.23
312417.6837,-11481.48,-1004.55,-2283.34,-4833.79
312417.6847,-11632.49,-1128.86,-2416.61,-4951.29
312417.6857,-11753.47,-1221.28,-2515.27,-5038.69
312417.6867,-11808.83,-1264.62,-2552.13,-5080.32
312417.6877,-11821.32,-1274.4,-2533.72,-5090.33
312417.6887,-11817.12,-1279.16,-2511.41,-5086.61
312417.6897,-11750.17,-1225.66,-2477.6,-5037.12
312417.6907,-11616.14,-1112.8,-2388.24,-4929.97
312417.6917,-11431.36,-948.14,-2227.45,-4773.57
312417.6927,-11263.75,-784.02,-2052.64,-4618.03
312417.6937,-11129.81,-649.4,-1911.69,-4489.85
312417.6947,-10993.53,-523.38,-1780.94,-4374.31
312417.6957,-10848.71,-392.72,-1630.83,-4254.77
312417.6967,-10760.64,-318.77,-1539.8,-4181.81
312417.6977,-10725.83,-293.4,-1512.38,-4155.92
312417.6987,-10738.56,-316.38,-1519.73,-4170.66
312417.6997,-10825.78,-408.84,-1594.02,-4249.19
312417.7007,-10940.17,-523.28,-1705.5,-4351.81
312417.7017,-11082.51,-658.37,-1878.74,-4486.51
312417.7027,-11254.74,-815.2,-2083.68,-4641.58
312417.7037,-11398.22,-947.28,-2227.93,-4768.9
312417.7047,-11519.72,-1063.54,-2341.46,-4878.09
312417.7057,-11630.92,-1167.25,-2449.85,-4976.23
312417.7067,-11724.76,-1252.22,-2531.81,-5060.77
312417.7077,-11785.99,-1303.05,-2579.88,-5115.56
312417.7087,-11785.84,-1297.47,-2570.01,-5114.99
312417.7097,-11703.68,-1209.31,-2476.45,-5041.79
312417.7107,-11577.23,-1076.41,-2334.93,-4920.2
312417.7117,-11426.4,-921.73,-2180.05,-4769.56
312417.7127,-11272.43,-765.9,-2020.74,-4616.69
312417.7137,-11133.29,-624.61,-1875.21,-4479.93
312417.7147,-11015.75,-507.45,-1763.77,-4367.83
312417.7157,-10911.9,-404.64,-1668.6,-4268.03
312417.7167,-10840.51,-343.66,-1595.5,-4207.13
312417.7177,-10808.9,-325.2,-1578.28,-4188.92
312417.7187,-10816.86,-344.28,-1620.15,-4205.75
312417.7197,-10875.42,-412.65,-1679.9,-4272.37
312417.7207,-10974.36,-517.75,-1771.64,-4374.93
312417.7217,-11110.12,-655.03,-1907.63,-4506.02
312417.7227,-11259.18,-798.7,-2057.65,-4639.48
312417.7237,-11418.49,-946.09,-2200.79,-4772.0
312417.7247,-11567.74,-1093.72,-2341.37,-4905.99
312417.7257,-11696.1,-1221.37,-2473.07,-5024.82
312417.7267,-11771.11,-1292.8,-2564.53,-5098.72
312417.7277,-11794.81,-1311.35,-2593.37,-5122.47
312417.7287,-11774.78,-1285.17,-2568.1,-5102.11
312417.7297,-11688.57,-1197.58,-2479.89,-5020.48
312417.7307,-11583.85,-1086.66,-2369.12,-4917.48
312417.7317,-11454.25,-947.86,-2222.11,-4788.92
312417.7327,-11302.04,-793.7,-2062.42,-4644.54
312417.7337,-11147.6,-642.3,-1917.84,-4500.2
312417.7347,-10988.24,-491.43,-1771.55,-4359.34
312417.7357,-10855.87,-367.02,-1647.38,-4240.18
312417.7367,-10783.29,-310.04,-1587.06,-4184.2
312417.7377,-10758.45,-304.27,-1568.17,-4173.95
312417.7387,-10779.19,-331.5,-1599.31,-4201.6
312417.7397,-10859.54,-410.84,-1691.2,-4276.18
312417.7407,-10982.09,-531.15,-1823.38,-4387.67
312417.7417,-11136.06,-678.59,-1962.04,-4523.33
312417.7427,-11308.39,-840.47,-2088.64,-4675.48
312417.7437,-11470.41,-1001.41,-2227.83,-4822.83
312417.7447,-11619.86,-1145.32,-2371.03,-4959.63
312417.7457,-11741.16,-1257.13,-2488.28,-5063.34
312417.7467,-11787.51,-1294.09,-2523.99,-5096.01
312417.7477,-11787.85,-1287.32,-2528.76,-5093.62
312417.7487,-11757.85,-1253.61,-2510.5,-5067.16
312417.7497,-11678.79,-1179.84,-2454.57,-5001.59
312417.7507,-11576.89,-1085.66,-2370.21,-4919.2
312417.7517,-11444.62,-950.43,-2229.64,-4791.59
312417.7527,-11281.87,-791.31,-2058.17,-4636.38
312417.7537,-11109.16,-625.85,-1882.41,-4483.65
312417.7547,-10948.04,-467.16,-1731.68,-4336.74
312417.7557,-10835.84,-353.34,-1632.5,-4227.26
312417.7567,-10781.05,-303.6,-1586.72,-4178.33
312417.7577,-10763.17,-298.07,-1589.49,-4165.27
312417.7587,-10779.1,-323.25,-1641.8,-4188.4
312417.7597,-10865.31,-417.61,-1743.22,-4273.61
312417.7607,-11003.78,-556.09,-1869.15,-4397.58
312417.7617,-11162.62,-712.25,-1990.32,-4542.88
312417.7627,-11341.0,-880.29,-2092.55,-4700.23
312417.7637,-11502.89,-1034.12,-2195.98,-4843.09
312417.7647,-11655.62,-1178.46,-2348.28,-4981.09
312417.7657,-11801.91,-1307.77,-2504.4,-5104.59
312417.7667,-11858.66,-1349.4,-2560.57,-5145.74
312417.7677,-11845.88,-1325.85,-2547.88,-5128.1
312417.7687,-11809.26,-1279.74,-2519.8,-5092.53
312417.7697,-11723.42,-1188.04,-2447.56,-5009.46
312417.7707,-11584.66,-1047.04,-2328.78,-4883.53
312417.7717,-11409.33,-878.29,-2171.33,-4727.36
312417.7727,-11234.05,-717.93,-2004.24,-4574.35
312417.7737,-11093.05,-591.28,-1886.22,-4455.57
312417.7747,-10945.37,-466.39,-1746.94,-4335.5
312417.7757,-10806.47,-353.57,-1612.47,-4221.39
312417.7767,-10733.89,-294.69,-1547.48,-4164.98
312417.7777,-10722.5,-282.86,-1536.94,-4156.54
312417.7787,-10745.53,-299.74,-1562.74,-4174.47
312417.7797,-10825.44,-384.52,-1648.38,-4250.34
312417.7807,-10963.92,-521.28,-1785.76,-4377.37
312417.7817,-11116.51,-667.19,-1929.38,-4517.79
312417.7827,-11272.24,-813.91,-2065.47,-4656.27
312417.7837,-11432.41,-965.45,-2214.86,-4796.22
312417.7847,-11593.77,-1113.22,-2361.73,-4933.17
312417.7857,-11742.07,-1244.83,-2493.19,-5060.63
312417.7867,-11817.84,-1308.25,-2563.1,-5122.66
312417.7877,-11827.04,-1313.07,-2564.81,-5123.81
312417.7887,-11796.86,-1280.64,-2525.0,-5093.15
312417.7897,-11691.95,-1189.47,-2420.52,-5002.5
312417.7907,-11539.37,-1059.82,-2288.15,-4876.66
312417.7917,-11389.07,-914.05,-2173.9,-4745.01
312417.7927,-11229.75,-761.7,-2037.14,-4601.19
312417.7937,-11069.73,-607.44,-1863.29,-4454.37
312417.7947,-10924.72,-460.91,-1704.98,-4316.9
312417.7957,-10825.25,-360.16,-1623.15,-4228.78
312417.7967,-10790.54,-325.63,-1607.23,-4198.74
312417.7977,-10784.44,-321.53,-1603.75,-4193.59
312417.7987,-10805.37,-344.66,-1616.95,-4215.43
312417.7997,-10887.86,-434.73,-1696.3,-4302.45
312417.8007,-11007.21,-561.09,-1820.42,-4419.71
312417.8017,-11137.39,-687.31,-1960.85,-4536.1
312417.8027,-11292.79,-828.6,-2100.18,-4669.86
312417.8037,-11448.34,-967.07,-2232.84,-4802.08
312417.8047,-11565.64,-1074.17,-2346.23,-4897.98
312417.8057,-11665.15,-1158.81,-2443.98,-4978.23
312417.8067,-11747.93,-1226.33,-2521.18,-5044.99
312417.8077,-11801.82,-1272.54,-2564.48,-5090.43
312417.8087,-11818.46,-1291.42,-2573.59,-5110.07
312417.8097,-11742.31,-1220.18,-2494.05,-5041.41
312417.8107,-11606.41,-1089.62,-2364.73,-4916.53
312417.8117,-11444.9,-934.89,-2209.76,-4770.33
312417.8127,-11281.92,-779.44,-2048.92,-4624.32
312417.8137,-11131.38,-634.38,-1906.06,-4490.42
312417.8147,-10999.78,-505.69,-1795.72,-4370.55
312417.8157,-10864.97,-374.84,-1668.31,-4248.52
312417.8167,-10762.6,-284.72,-1550.72,-4161.22
312417.8177,-10735.94,-258.06,-1503.52,-4134.66
312417.8187,-10789.25,-303.51,-1551.01,-4176.81
312417.8197,-10908.32,-412.18,-1669.6,-4275.27
312417.8207,-11048.32,-551.8,-1787.38,-4401.4
312417.8217,-11193.94,-702.48,-1934.67,-4537.87
312417.8227,-11356.69,-869.51,-2115.35,-4692.89
312417.8237,-11499.84,-1021.58,-2275.18,-4837.94
312417.8247,-11595.3,-1132.01,-2371.22,-4938.94
312417.8257,-11684.04,-1232.81,-2465.2,-5030.54
312417.8267,-11723.14,-1279.16,-2524.61,-5072.79
312417.8277,-11711.6,-1268.53,-2523.66,-5065.35
312417.8287,-11711.03,-1253.08,-2523.57,-5061.25
312417.8297,-11673.69,-1194.76,-2488.9,-5017.61
312417.8307,-11554.05,-1069.12,-2356.24,-4901.93
312417.8317,-11396.36,-908.09,-2179.15,-4751.4
312417.8327,-11235.81,-753.26,-2001.71,-4603.82
312417.8337,-11072.73,-598.29,-1846.27,-4460.53
312417.8347,-10915.95,-443.12,-1695.87,-4318.48
312417.8357,-10816.05,-333.12,-1602.03,-4213.48
312417.8367,-10778.24,-287.87,-1563.64,-4168.46
312417.8377,-10777.38,-283.81,-1562.26,-4162.65
312417.8387,-10806.42,-314.81,-1595.55,-4191.35
312417.8397,-10896.92,-410.8,-1686.43,-4278.33
312417.8407,-11038.4,-544.93,-1822.95,-4403.88
312417.8417,-11191.66,-689.79,-1969.81,-4539.82
312417.8427,-11354.88,-847.53,-2120.97,-4690.46
312417.8437,-11523.06,-1004.27,-2272.8,-4845.14
312417.8447,-11677.55,-1153.9,-2418.61,-4986.67
312417.8457,-11804.15,-1272.06,-2546.17,-5096.72
312417.8467,-11846.97,-1319.41,-2587.8,-5135.78
312417.8477,-11821.27,-1308.78,-2570.44,-5122.52
312417.8487,-11770.82,-1265.1,-2535.87,-5085.8
312417.8497,-11666.68,-1163.91,-2444.84,-4993.01
312417.8507,-11537.74,-1038.98,-2314.14,-4878.28
312417.8517,-11405.56,-906.18,-2162.74,-4754.83
312417.8527,-11263.23,-765.28,-2018.83,-4619.89
312417.8537,-11098.67,-609.02,-1860.81,-4469.06
312417.8547,-10945.27,-463.39,-1713.61,-4328.92
312417.8557,-10813.52,-341.61,-1592.21,-4209.61
312417.8567,-10752.25,-289.2,-1541.95,-4158.93
312417.8577,-10746.1,-288.87,-1545.95,-4159.78
312417.8587,-10775.85,-323.1,-1570.27,-4189.3
312417.8597,-10881.14,-424.34,-1659.97,-4282.33
312417.8607,-11022.38,-563.57,-1794.96,-4410.12
312417.8617,-11166.0,-705.1,-1935.1,-4545.64
312417.8627,-11321.16,-852.97,-2104.38,-4686.59
312417.8637,-11486.58,-1001.98,-2278.71,-4831.36
312417.8647,-11621.81,-1129.15,-2419.04,-4955.48
312417.8657,-11728.72,-1234.01,-2527.67,-5057.38
312417.8667,-11781.03,-1283.36,-2583.84,-5098.96
312417.8677,-11791.61,-1285.31,-2587.51,-5096.39
312417.8687,-11786.51,-1274.78,-2565.34,-5091.05
312417.8697,-11715.51,-1199.01,-2482.13,-5023.1
312417.8707,-11590.91,-1075.7,-2361.11,-4904.56
312417.8717,-11437.8,-931.98,-2218.1,-4768.18
312417.8727,-11263.56,-766.94,-2053.79,-4610.97
312417.8737,-11091.95,-606.39,-1888.47,-4460.72
312417.8747,-10961.34,-482.32,-1750.52,-4348.47
312417.8757,-10860.4,-387.76,-1654.43,-4259.25
312417.8767,-10795.69,-325.06,-1593.3,-4200.13
312417.8777,-10735.13,-264.12,-1524.59,-4144.91
312417.8787,-10740.76,-275.09,-1522.64,-4155.02
312417.8797,-10855.72,-399.83,-1638.79,-4275.94
312417.8807,-11002.73,-549.41,-1798.34,-4420.61
312417.8817,-11142.11,-683.26,-1946.02,-4543.59
312417.8827,-11327.03,-851.97,-2115.68,-4697.85
312417.8837,-11498.98,-1012.42,-2265.84,-4845.0
312417.8847,-11646.8,-1154.9,-2383.33,-4971.89
312417.8857,-11777.97,-1286.55,-2504.87,-5092.67
312417.8867,-11854.27,-1358.37,-2590.42,-5163.67
312417.8877,-11871.01,-1366.95,-2619.22,-5174.73
312417.8887,-11817.27,-1316.74,-2580.69,-5127.38
312417.8897,-11705.69,-1205.06,-2470.35,-5020.19
312417.8907,-11562.4,-1059.1,-2338.98,-4882.43
312417.8917,-11395.17,-895.79,-2164.08,-4732.85
312417.8927,-11233.14,-734.19,-1982.74,-4585.51
312417.8937,-11070.35,-577.64,-1821.23,-4436.16
312417.8947,-10909.46,-422.76,-1681.38,-4291.58
312417.8957,-10803.46,-316.0,-1592.68,-4192.07
312417.8967,-10759.31,-280.86,-1554.54,-4157.02
312417.8977,-10751.63,-287.91,-1556.35,-4154.06
312417.8987,-10771.56,-314.43,-1591.4,-4179.29
312417.8997,-10850.48,-399.59,-1660.39,-4259.92
312417.9007,-10977.13,-528.96,-1779.41,-4382.85
312417.9017,-11137.3,-695.8,-1945.26,-4539.16
312417.9027,-11277.72,-845.0,-2081.25,-4677.77
312417.9037,-11396.74,-956.3,-2179.34,-4782.87
312417.9047,-11530.88,-1081.32,-2306.46,-4901.98
312417.9057,-11686.47,-1224.8,-2455.95,-5041.93
312417.9067,-11789.99,-1308.92,-2549.93,-5120.8
312417.9077,-11798.43,-1304.44,-2553.22,-5120.42
312417.9087,-11752.94,-1251.41,-2508.45,-5075.55
312417.9097,-11661.01,-1154.23,-2417.18,-4985.76
312417.9107,-11540.32,-1029.63,-2304.6,-4867.84
312417.9117,-11393.5,-880.48,-2169.56,-4729.46
312417.9127,-11224.8,-717.31,-2002.33,-4577.21
312417.9137,-11082.36,-583.12,-1853.8,-4451.08
312417.9147,-10959.53,-467.25,-1727.1,-4340.27
312417.9157,-10851.91,-362.54,-1625.59,-4237.94
312417.9167,-10785.44,-300.22,-1565.36,-4173.57
312417.9177,-10767.56,-283.29,-1547.34,-4158.35
312417.9187,-10795.4,-315.33,-1581.48,-4187.68
312417.9197,-10888.72,-413.13,-1692.25,-4279.42
312417.9207,-11017.9,-545.69,-1832.44,-4402.83
312417.9217,-11150.7,-682.21,-1962.47,-4530.34
312417.9227,-11297.08,-830.84,-2103.09,-4672.05
312417.9237,-11454.68,-987.96,-2255.25,-4819.2
312417.9247,-11609.41,-1137.21,-2398.4,-4957.15
312417.9257,-11740.07,-1257.42,-2512.07,-5072.45
312417.9267,-11797.72,-1307.3,-2557.33,-5118.85
312417.9277,-11815.55,-1316.98,-2576.78,-5129.39
312417.9287,-11815.93,-1302.39,-2589.85,-5121.9
312417.9297,-11729.81,-1208.54,-2522.28,-5036.35
312417.9307,-11565.02,-1046.09,-2352.48,-4881.67
312417.9317,-11395.12,-875.28,-2154.88,-4722.17
312417.9327,-11252.17,-729.42,-2010.2,-4590.85
312417.9337,-11117.08,-599.86,-1898.34,-4472.73
312417.9347,-10984.76,-472.5,-1780.18,-4354.86
312417.9357,-10858.97,-353.19,-1653.86,-4239.89
312417.9367,-10776.62,-275.47,-1561.45,-4160.83
312417.9377,-10777.76,-277.19,-1551.25,-4154.21
312417.9387,-10833.46,-332.07,-1594.97,-4199.79
312417.9397,-10922.48,-419.57,-1674.08,-4280.42
312417.9407,-11034.59,-534.96,-1788.71,-4390.0
312417.9417,-11172.96,-677.39,-1931.38,-4525.47
312417.9427,-11330.27,-833.75,-2094.13,-4675.2
312417.9437,-11488.39,-989.25,-2258.21,-4824.26
312417.9447,-11644.36,-1137.83,-2412.61,-4967.79
312417.9457,-11770.77,-1256.23,-2530.86,-5081.13
312417.9467,-11837.29,-1311.4,-2582.31,-5132.15
312417.9477,-11854.84,-1321.6,-2590.75,-5141.69
312417.9487,-11823.56,-1289.89,-2559.95,-5109.93
312417.9497,-11730.39,-1197.15,-2467.97,-5022.57
312417.9507,-11602.07,-1071.21,-2346.37,-4908.23
312417.9517,-11452.39,-925.78,-2203.94,-4773.95
312417.9527,-11287.74,-774.38,-2045.44,-4632.14
312417.9537,-11121.18,-627.8,-1888.13,-4489.66
312417.9547,-10965.54,-485.13,-1748.37,-4350.09
312417.9557,-10855.39,-381.99,-1656.1,-4245.62
312417.9567,-10805.56,-339.08,-1609.9,-4201.94
312417.9577,-10793.16,-328.4,-1599.65,-4194.98
312417.9587,-10819.91,-351.91,-1632.5,-4226.02
312417.9597,-10879.33,-411.89,-1693.92,-4286.29
312417.9607,-10982.71,-509.45,-1776.31,-4376.36
312417.9617,-11135.01,-650.41,-1902.2,-4505.87
312417.9627,-11318.26,-813.1,-2071.29,-4662.13
312417.9637,-11502.08,-979.71,-2249.34,-4821.83
312417.9647,-11643.51,-1108.5,-2390.1,-4944.66
312417.9657,-11751.99,-1210.79,-2507.26,-5041.55
312417.9667,-11799.43,-1264.76,-2564.48,-5096.05
312417.9677,-11816.55,-1298.52,-2582.5,-5124.09
312417.9687,-11768.06,-1261.9,-2537.35,-5085.99
312417.9697,-11671.88,-1173.69,-2442.84,-5001.4
312417.9707,-11569.17,-1075.36,-2333.59,-4910.8
312417.9717,-11419.68,-937.65,-2198.31,-4775.86
312417.9727,-11208.15,-749.45,-2015.88,-4596.14
312417.9737,-11020.61,-572.49,-1832.2,-4431.49
312417.9747,-10903.55,-452.85,-1708.94,-4315.19
312417.9757,-10815.76,-360.54,-1623.01,-4226.59
312417.9767,-10760.36,-309.32,-1557.83,-4176.95
312417.9777,-10738.33,-291.44,-1531.08,-4158.88
312417.9787,-10763.12,-314.43,-1558.59,-4179.0
312417.9797,-10854.44,-399.26,-1660.87,-4260.4
312417.9807,-10979.22,-517.46,-1795.1,-4375.03
312417.9817,-11131.24,-665.66,-1945.92,-4511.5
312417.9827,-11315.54,-841.33,-2119.78,-4677.2
312417.9837,-11494.3,-1010.7,-2281.95,-4838.13
312417.9847,-11650.42,-1151.66,-2419.57,-4975.99
312417.9857,-11776.73,-1260.47,-2520.04,-5087.23
312417.9867,-11840.11,-1312.73,-2562.38,-5139.64
312417.9877,-11844.87,-1315.64,-2566.43,-5143.5
312417.9887,-11799.77,-1273.2,-2522.95,-5105.83
312417.9897,-11699.39,-1174.74,-2431.68,-5013.18
312417.9907,-11572.08,-1051.71,-2316.09,-4898.79
312417.9917,-11424.64,-912.48,-2189.26,-4766.51
312417.9927,-11260.08,-761.22,-2039.72,-4618.98
312417.9937,-11109.31,-621.13,-1897.91,-4485.7
312417.9947,-10974.41,-486.09,-1761.53,-4360.15
312417.9957,-10830.45,-358.3,-1623.3,-4230.07
312417.9967,-10749.68,-295.73,-1545.48,-4162.74
312417.9977,-10748.44,-302.98,-1536.46,-4159.55
312417.9987,-10779.72,-338.6,-1560.5,-4191.97
312417.9997,-10871.75,-427.1,-1652.86,-4268.74
312418.0007,-10999.39,-551.22,-1801.16,-4382.32
312418.0017,-11158.32,-706.77,-1955.22,-4530.72
312418.0027,-11339.0,-874.66,-2122.83,-4692.79
312418.0037,-11492.16,-1015.81,-2268.12,-4835.08
312418.0047,-11619.52,-1135.3,-2397.39,-4951.67
312418.0057,-11720.94,-1217.99,-2503.82,-5037.5
312418.0067,-11771.44,-1257.61,-2549.93,-5082.8
312418.0077,-11797.72,-1287.46,-2567.82,-5111.22
312418.0087,-11788.89,-1275.87,-2549.7,-5098.53
312418.0097,-11710.17,-1180.89,-2469.92,-5016.71
312418.0107,-11569.64,-1038.98,-2350.33,-4888.11
312418.0117,-11381.87,-860.55,-2167.23,-4723.88
312418.0127,-11201.72,-688.89,-1990.75,-4555.99
312418.0137,-11064.01,-554.42,-1854.47,-4421.09
312418.0147,-10940.46,-430.39,-1739.03,-4302.79
312418.0157,-10830.21,-323.58,-1647.42,-4204.42
312418.0167,-10776.23,-282.0,-1599.84,-4165.6
312418.0177,-10773.23,-287.25,-1581.81,-4175.0
312418.0187,-10813.14,-327.06,-1598.22,-4209.47
312418.0197,-10905.89,-420.38,-1659.16,-4297.59
312418.0207,-11036.45,-552.99,-1774.36,-4422.28
312418.0217,-11171.91,-691.94,-1913.98,-4552.22
312418.0227,-11305.72,-826.31,-2057.7,-4681.87
312418.0237,-11439.37,-952.1,-2194.98,-4804.13
312418.0247,-11573.32,-1068.26,-2305.13,-4909.04
312418.0257,-11710.6,-1192.9,-2437.21,-5017.0
312418.0267,-11802.15,-1283.22,-2538.35,-5104.73
312418.0277,-11834.29,-1317.88,-2571.92,-5139.83
312418.0287,-11800.82,-1284.5,-2548.69,-5109.26
312418.0297,-11698.49,-1187.66,-2456.47,-5020.43
312418.0307,-11577.04,-1072.6,-2359.01,-4914.09
312418.0317,-11420.73,-918.67,-2215.53,-4764.41
312418.0327,-11241.44,-736.57,-2011.39,-4592.23
312418.0337,-11078.45,-578.5,-1834.11,-4445.22
312418.0347,-10951.57,-453.42,-1706.08,-4326.92
312418.0357,-10848.9,-358.39,-1605.27,-4230.6
312418.0367,-10786.39,-307.7,-1554.11,-4178.43
312418.0377,-10772.85,-301.6,-1551.91,-4170.61
312418.0387,-10794.12,-330.31,-1586.25,-4195.74
312418.0397,-10867.17,-408.36,-1688.58,-4271.7
312418.0407,-11008.12,-541.69,-1846.79,-4399.78
312418.0417,-11192.75,-714.78,-2021.03,-4563.9
312418.0427,-11369.18,-883.39,-2179.24,-4725.03
312418.0437,-11512.85,-1021.0,-2308.75,-4859.78
312418.0447,-11624.77,-1130.01,-2412.32,-4962.64
312418.0457,-11718.8,-1216.41,-2494.38,-5044.89
312418.0467,-11772.87,-1264.86,-2542.83,-5093.05
312418.0477,-11783.65,-1271.1,-2555.99,-5105.83
312418.0487,-11757.9,-1243.02,-2520.8,-5082.89
312418.0497,-11671.74,-1162.67,-2420.76,-5008.46
312418.0507,-11549.0,-1041.17,-2299.74,-4895.59
312418.0517,-11394.88,-890.54,-2160.98,-4751.06
312418.0527,-11215.83,-716.97,-1997.52,-4586.84
312418.0537,-11062.34,-563.62,-1835.73,-4440.83
312418.0547,-10926.06,-425.43,-1690.82,-4307.99
312418.0557,-10819.2,-321.01,-1598.41,-4203.7
312418.0567,-10787.63,-288.15,-1589.87,-4173.52
312418.0577,-10798.98,-301.22,-1605.61,-4184.01
312418.0587,-10830.79,-342.7,-1630.64,-4216.67
312418.0597,-10896.64,-422.0,-1696.16,-4285.91
312418.0607,-11002.07,-536.87,-1811.74,-4397.11
312418.0617,-11158.52,-694.04,-1963.57,-4546.21
312418.0627,-11332.66,-863.03,-2126.26,-4709.91
312418.0637,-11494.83,-1015.52,-2282.33,-4860.45
312418.0647,-11654.19,-1164.58,-2435.73,-5007.84
312418.0657,-11775.3,-1266.77,-2541.97,-5101.78
312418.0667,-11832.91,-1302.67,-2588.89,-5137.35
312418.0677,-11843.21,-1302.19,-2600.57,-5138.11
312418.0687,-11803.68,-1265.1,-2560.47,-5098.15
312418.0697,-11713.55,-1167.63,-2462.2,-5010.51
312418.0707,-11585.81,-1038.6,-2337.5,-4886.58
312418.0717,-11418.39,-879.29,-2173.19,-4730.27
312418.0727,-11237.91,-718.55,-1996.23,-4574.35
312418.0737,-11078.36,-577.88,-1848.51,-4438.59
312418.0747,-10932.07,-451.23,-1720.67,-4319.76
312418.0757,-10824.92,-348.66,-1616.24,-4220.82
312418.0767,-10757.07,-288.44,-1545.14,-4163.12
312418.0777,-10724.83,-265.36,-1504.99,-4135.61
312418.0787,-10748.82,-295.5,-1534.65,-4157.59
312418.0797,-10851.43,-400.21,-1655.91,-4257.77
312418.0807,-11002.73,-544.98,-1818.28,-4399.16
312418.0817,-11167.34,-704.24,-1977.06,-4554.08
312418.0827,-11326.93,-859.64,-2129.22,-4703.33
312418.0837,-11476.57,-1000.5,-2265.45,-4835.18
312418.0847,-11619.19,-1135.44,-2389.67,-4963.68
312418.0857,-11740.3,-1255.85,-2495.34,-5079.56
312418.0867,-11796.05,-1305.63,-2550.79,-5128.96
312418.0877,-11812.21,-1309.63,-2569.34,-5141.21
312418.0887,-11796.43,-1291.18,-2565.96,-5128.15
312418.0897,-11709.45,-1200.82,-2487.71,-5041.89
312418.0907,-11581.37,-1069.83,-2352.38,-4919.1
312418.0917,-11437.51,-923.59,-2190.78,-4779.67
312418.0927,-11270.38,-756.5,-2021.12,-4614.12
312418.0937,-11100.06,-594.66,-1873.49,-4457.86
312418.0947,-10959.67,-461.01,-1774.55,-4330.44
312418.0957,-10853.05,-354.67,-1663.26,-4227.69
312418.0967,-10784.34,-287.44,-1561.26,-4160.21
312418.0977,-10734.08,-244.76,-1522.49,-4110.29
312418.0987,-10722.59,-240.76,-1536.42,-4097.32
312418.0997,-10816.38,-334.45,-1631.59,-4194.45
312418.1007,-10992.48,-508.31,-1795.34,-4370.64
312418.1017,-11188.94,-695.75,-1973.49,-4556.51
312418.1027,-11364.32,-857.45,-2126.22,-4711.29
312418.1037,-11508.75,-992.35,-2227.35,-4834.46
312418.1047,-11647.08,-1127.77,-2354.96,-4967.55
312418.1057,-11770.77,-1249.41,-2507.88,-5090.19
312418.1067,-11818.7,-1301.57,-2594.76,-5137.3
312418.1077,-11805.44,-1286.94,-2593.85,-5122.57
312418.1087,-11759.81,-1231.15,-2537.82,-5075.6
312418.1097,-11677.46,-1147.27,-2447.99,-4994.68
312418.1107,-11584.14,-1055.29,-2349.04,-4908.47
312418.1117,-11451.44,-923.59,-2195.74,-4783.01
312418.1127,-11259.08,-745.49,-1996.71,-4606.82
312418.1137,-11074.07,-581.41,-1837.35,-4442.64
312418.1147,-10925.68,-445.89,-1714.18,-4309.94
312418.1157,-10821.92,-345.85,-1624.87,-4209.57
312418.1167,-10789.01,-307.85,-1596.55,-4171.66
312418.1177,-10782.05,-302.17,-1585.1,-4165.13
312418.1187,-10807.75,-333.88,-1596.07,-4194.36
312418.1197,-10892.73,-426.82,-1670.46,-4277.71
312418.1207,-11016.61,-551.8,-1792.86,-4399.49
312418.1217,-11157.04,-692.22,-1920.65,-4538.68
312418.1227,-11315.82,-851.01,-2068.62,-4691.89
312418.1237,-11498.12,-1027.87,-2247.24,-4864.12
312418.1247,-11664.96,-1191.09,-2407.03,-5020.33
312418.1257,-11795.67,-1312.83,-2532.67,-5138.21
312418.1267,-11859.08,-1364.28,-2597.09,-5190.13
312418.1277,-11847.35,-1352.55,-2582.88,-5182.08
312418.1287,-11774.06,-1287.17,-2517.8,-5122.81
312418.1297,-11638.93,-1146.6,-2409.32,-4997.78
312418.1307,-11480.86,-979.85,-2287.72,-4845.24
312418.1317,-11335.33,-827.98,-2164.27,-4699.52
312418.1327,-11197.0,-685.36,-2027.51,-4564.86
312418.1337,-11055.57,-545.93,-1879.93,-4427.48
312418.1347,-10883.86,-389.34,-1700.02,-4265.69
312418.1357,-10751.92,-277.57,-1553.06,-4148.67
312418.1367,-10696.7,-236.65,-1495.03,-4100.13
312418.1377,-10706.24,-246.1,-1508.9,-4107.19
312418.1387,-10759.69,-296.93,-1562.4,-4154.63
312418.1397,-10857.92,-396.01,-1662.21,-4249.57
312418.1407,-10987.71,-520.04,-1781.75,-4366.83
312418.1417,-11152.94,-676.25,-1930.24,-4516.08
312418.1427,-11334.13,-850.96,-2104.33,-4683.4
312418.1437,-11489.58,-1005.03,-2264.31,-4834.99
312418.1447,-11635.26,-1142.31,-2414.37,-4977.89
312418.1457,-11764.0,-1252.03,-2528.38,-5091.52
312418.1467,-11838.72,-1310.16,-2586.41,-5153.37
312418.1477,-11859.23,-1325.42,-2603.86,-5170.06
312418.1487,-11809.68,-1279.69,-2564.86,-5127.38
312418.1497,-11690.33,-1162.48,-2458.05,-5014.37
312418.1507,-11547.09,-1010.66,-2314.57,-4877.9
312418.1517,-11367.99,-829.36,-2136.85,-4711.44
312418.1527,-11209.92,-670.53,-1983.12,-4556.56
312418.1537,-11097.0,-553.75,-1884.56,-4440.88
312418.1547,-10991.67,-444.03,-1790.09,-4334.5
312418.1557,-10864.93,-326.97,-1638.6,-4211.57
312418.1567,-10791.88,-272.99,-1554.92,-4147.72
312418.1577,-10760.5,-261.12,-1532.51,-4133.03
312418.1587,-10794.97,-305.84,-1577.23,-4173.71
312418.1597,-10900.26,-417.04,-1682.14,-4269.55
312418.1607,-11032.92,-549.51,-1810.6,-4392.67
312418.1617,-11174.63,-687.79,-1923.28,-4526.38
312418.1627,-11324.45,-836.94,-2071.91,-4670.48
312418.1637,-11461.59,-968.46,-2211.14,-4801.04
312418.1647,-11597.44,-1113.46,-2348.28,-4944.04
312418.1657,-11725.81,-1240.3,-2478.7,-5068.87
312418.1667,-11775.73,-1281.69,-2532.82,-5109.12
312418.1677,-11770.73,-1274.73,-2530.43,-5102.16
312418.1687,-11744.31,-1248.46,-2517.8,-5082.89
