TimeStamp,ECR,FCR,ECU,FCU,time_index
312441.7197,51.75213103582951,41.34165554519929,50.404935113500464,76.26444948586253,26.0
312441.7207,51.832819421800465,42.722148527925505,50.59648881382462,75.5675516065076,26.00099999998929
312441.7217,51.347228920347874,43.69480333776382,50.203745003089644,74.10126583341061,26.00199999997858
312441.7227,50.22707676729441,44.15102730507905,49.140632161327126,71.8020516747784,26.00299999996787
312441.7237,48.41432363770618,43.98913840564208,47.33341283183394,68.62104407281105,26.00399999995716
312441.7247,45.86957278095938,43.12401371520282,44.73031663607299,64.53210260997318,26.005000000004657
312441.7257,42.57937362086027,41.49567314070947,41.30988571335405,59.538496514905134,26.005999999993946
312441.7267,38.56162940423271,39.07596835214016,37.08716576255273,53.67747612146661,26.006999999983236
312441.7277,33.86847971515275,35.8727194995559,32.11706325839755,47.022168731637834,26.007999999972526
312441.7287,28.58626462286943,31.930879218853544,26.494444714149566,39.68048332064878,26.008999999961816
312441.7297,22.832455441279595,27.33058221513525,20.350853340404385,31.79099109627106,26.010000000009313
312441.7307,16.74973075430158,22.182232767193643,13.848033897944196,23.516040603941143,26.010999999998603
312441.7317,10.497656950125448,16.619063554638924,7.168757942521525,15.032638582363791,26.011999999987893
312441.7327,4.242672460531353,10.787840062335032,0.505700061220348,6.521854302638992,26.012999999977183
312441.7337,-1.852749624091736,4.838561964482464,-5.950693971512395,-1.8423370512089294,26.013999999966472
312441.7347,-7.640792676271444,-1.085891144707506,-12.02430267739708,-9.903783626408645,26.014999999955762
312441.7357,-12.997872466331692,-6.8592172302514784,-17.564337404931265,-17.53349100555972,26.01600000000326
312441.7367,-17.83222116650253,-12.379386799960663,-22.45430578912553,-24.636706664963775,26.01699999999255
312441.7377,-22.08878003840814,-17.57388023178983,-26.6181549208931,-31.157096590930365,26.01799999998184
312441.7387,-25.75094756226758,-22.4020104159797,-30.023075392052466,-37.0776174424556,26.01899999997113
312441.7397,-28.839021480925094,-26.85415650169744,-32.67875317110844,-42.417990250322276,26.01999999996042
312441.7407,-31.405482698852857,-30.948034670534174,-34.63318252341109,-47.22899682091219,26.021000000007916
312441.7417,-33.52756646362937,-34.72242012144615,-35.96546891193204,-51.5841178705698,26.021999999997206
312441.7427,-35.297823016943596,-38.22898270620687,-36.77632592305536,-55.56928398280453,26.022999999986496
312441.7437,-36.81356098751651,-41.523082580113304,-37.1771785216368,-59.271692470327956,26.023999999975786
312441.7447,-38.16617352103424,-44.65447372661592,-37.278906513549046,-62.768737395165346,26.024999999965075
312441.7457,-39.431358918298855,-47.65887218398053,-37.18128547082621,-66.11809688200886,26.026000000012573
312441.7467,-40.66116295317198,-50.55126116607056,-36.96410548623338,-69.34992117795878,26.027000000001863
312441.7477,-41.87859694129029,-53.32163506982613,-36.680778538213474,-72.46187562309925,26.027999999991152
312441.7487,-43.075340443067205,-55.93364497596558,-36.35499941863911,-75.41753213797286,26.028999999980442
312441.7497,-44.21274356551244,-58.326322784394044,-35.98072683499479,-78.14829507236684,26.029999999969732
312441.7507,-45.22602920517966,-60.41875716315619,-35.52542913898451,-80.55872080876757,26.030999999959022
312441.7517,-46.03129023940861,-62.117301402687374,-34.93622402964753,-82.5347756454606,26.03200000000652
312441.7527,-46.53460969159947,-63.32463937889662,-34.14826360933918,-83.95430239100584,26.03299999999581
312441.7537,-46.64242863138506,-63.949845688408644,-33.09450173558551,-84.69875817748789,26.0339999999851
312441.7547,-46.27216627239307,-63.91846805632226,-31.71584992276351,-84.66516349053038,26.03499999997439
312441.7557,-45.362070724507355,-63.181644893594274,-29.97069322824614,-83.7771766513615,26.03599999996368
312441.7567,-43.879349496838394,-61.723350105605554,-27.842801528630147,-81.99428136035341,26.037000000011176
312441.7577,-41.82578931853907,-59.56502363627144,-25.34682784050533,-79.31824067009384,26.038000000000466
312441.7587,-39.240309841252355,-56.767084194543536,-22.530818589611545,-75.79621364301794,26.038999999989755
312441.7597,-36.19818298277611,-53.42710777008627,-19.475448435574226,-71.52022862032352,26.039999999979045
312441.7607,-32.806961847298474,-49.674764836945045,-16.290006777162933,-66.62303211840299,26.040999999968335
312441.7617,-29.19947078480008,-45.663911375537495,-13.105474311327862,-61.27065501119308,26.041999999957625
312441.7627,-25.524482189613924,-41.56249544879001,-10.065306340651873,-55.652328246308684,26.043000000005122
312441.7637,-21.93592028000408,-37.54114680809812,-7.314758510184513,-49.96861227497503,26.043999999994412
312441.7647,-18.58156722015683,-33.761442358645354,-4.989729657122368,-44.41875651937925,26.044999999983702
312441.7657,-15.592290002659901,-30.364873343658743,-3.2061425453992887,-39.18836387199658,26.04599999997299
312441.7667,-13.072753738031908,-27.463477611987877,-2.0508324409490077,-34.43839546854934,26.04699999996228
312441.7677,-11.094443760867708,-25.13294817548945,-1.5747710708978135,-30.29641705105609,26.04800000000978
312441.7687,-9.69159922815788,-23.408801829121632,-1.7892335710127654,-26.85077319440493,26.04899999999907
312441.7697,-8.86038587623185,-22.285910445249858,-2.665240001676215,-24.1481001271594,26.04999999998836
312441.7707,-8.56133173908029,-21.72138931029499,-4.1362976098726305,-22.19427805060287,26.05099999997765
312441.7717,-8.724745973198742,-21.64053072617333,-6.104164589263179,-20.95860905649264,26.051999999966938
312441.7727,-9.258566372128,-21.945195949998638,-8.44707978483664,-20.380716558164195,26.052999999956228
312441.7737,-10.057861618999782,-22.52386022563785,-11.029681706526596,-20.379423634938913,26.054000000003725
312441.7747,-11.015070302478664,-23.262364454775796,-13.713694916212615,-20.86270278184274,26.054999999993015
312441.7757,-12.030003301997356,-24.054375769372385,-16.36840540620289,-21.73771299901426,26.055999999982305
312441.7767,-13.018673812770393,-24.8106020358899,-18.879983386090192,-22.919958128290883,26.056999999971595
312441.7777,-13.920145525589454,-25.465937262486527,-21.158837313857106,-24.34070992838032,26.057999999960884
312441.7787,-14.700791312001336,-25.983922627834435,-23.144383946983304,-25.952028900468346,26.059000000008382
312441.7797,-15.355612038426063,-26.358170904097204,-24.806875433262697,-27.728966097198814,26.05999999999767
312441.7807,-15.906552531006872,-26.610694800655185,-26.146210706006606,-29.66881519338978,26.06099999998696
312441.7817,-16.39804126091262,-26.787374003947843,-27.1879468079516,-31.787577910559968,26.06199999997625
312441.7827,-16.890244116948626,-26.95106336775949,-27.976988502014287,-34.11407899165233,26.06299999996554
312441.7837,-17.45073556776534,-27.17306060147486,-28.569646730028992,-36.68239320132494,26.06400000001304
312441.7847,-18.145432692988088,-27.52379595740235,-29.024898472315442,-39.523405058970795,26.06500000000233
312441.7857,-19.029696195578712,-28.06366602611122,-29.395739742267654,-42.65639789702764,26.065999999991618
312441.7867,-20.140473104851754,-28.834904327974137,-29.721495448474144,-46.0815563217485,26.066999999980908
312441.7877,-21.490242596368084,-29.85526713196196,-30.0218388504808,-49.774167912792265,26.067999999970198
312441.7887,-23.063341487451854,-31.114126202878957,-30.29309153012021,-53.68113704102356,26.068999999959487
312441.7897,-24.815008640713035,-32.57132020516021,-30.5071411238117,-57.72019412624765,26.070000000006985
312441.7907,-26.673221700247154,-34.158847397149394,-30.613052197082236,-61.78192079729282,26.070999999996275
312441.7917,-28.54313168765766,-35.785210610101615,-30.541181629484704,-65.73444133018211,26.071999999985565
312441.7927,-30.313657154461755,-37.34197769443512,-30.209369504084815,-69.43037963905215,26.072999999974854
312441.7937,-31.865603155674282,-38.71192020006835,-29.530582757341904,-72.71547274146666,26.073999999964144
312441.7947,-33.08053951219392,-39.77795851239235,-28.421259724431483,-75.43808504800958,26.07500000001164
312441.7957,-33.849619078811806,-40.43208462435516,-26.80955049025035,-77.45879559212803,26.07600000000093
312441.7967,-34.0815435992507,-40.58345794464459,-24.64267420734897,-78.65923744266225,26.07699999999022
312441.7977,-33.70898771746933,-40.164970667763235,-21.892715935607384,-78.94945223122829,26.07799999997951
312441.7987,-32.69295886257617,-39.13774538045089,-18.560350421735485,-78.27317285167238,26.0789999999688
312441.7997,-31.024783925630356,-37.49324066313194,-14.676190848117269,-76.61064768108663,26.07999999995809
312441.8007,-28.725650565821848,-35.252878098747864,-10.299695038981303,-73.97884947846825,26.081000000005588
312441.8017,-25.8438673675694,-32.46534200275893,-5.515796089959419,-70.42914853424588,26.081999999994878
312441.8027,-22.450219210484548,-29.201917542981615,-0.42963554051227004,-66.04274981281516,26.082999999984168
312441.8037,-18.631961320774053,-25.550402851359586,4.840055498841695,-60.92437716919085,26.083999999973457
312441.8047,-14.486101722766156,-21.608240348243314,10.168274138161648,-55.19481787993715,26.084999999962747
312441.8057,-10.112657873597724,-17.47555242018406,15.431070551433534,-48.983007085424425,26.086000000010245
312441.8067,-5.608537164544918,-13.248734790257862,20.512220459878577,-42.41833030374618,26.086999999999534
312441.8077,-1.062588192536893,-9.015162819429147,25.308684420922777,-35.62375581984724,26.087999999988824
312441.8087,3.447787451650978,-4.8494137800660075,29.734446024822507,-28.710286766890807,26.088999999978114
312441.8097,7.858266869882856,-0.8112194717503447,33.72251121673601,-21.773059727277108,26.089999999967404
312441.8107,12.117493916555013,3.054840448938605,37.22505747062388,-14.889231047917566,26.090999999956694
312441.8117,16.185437822947254,6.71809095603093,40.211922213250986,-8.117603917206278,26.09200000000419
312441.8127,20.03060847753238,10.159314961249803,42.66779336526698,-1.4997783619814624,26.09299999999348
312441.8137,23.626638472106475,13.367584468227703,44.58859284493739,4.937529958251084,26.09399999998277
312441.8147,26.948804897834012,16.336909376382835,45.977613062819294,11.179444814945962,26.09499999997206
312441.8157,29.97105897062446,19.063240996163067,46.84196988619067,17.219634156930418,26.09599999996135
312441.8167,32.66405957919294,21.542299999759408,47.18987342916883,23.057216789626935,26.097000000008848
312441.8177,34.99457574302403,23.768574584408935,47.02909756384271,28.694247788209193,26.097999999998137
312441.8187,36.92644712824751,25.73566826173463,46.36686379718225,34.13404259003251,26.098999999987427
312441.8197,38.42309049025141,27.43798678398443,45.21116354559251,39.380456262387376,26.099999999976717
312441.8207,39.45133535365146,28.873561823763986,43.573346222749855,44.4380818643705,26.100999999966007
312441.8217,39.98618709324097,30.047637057942733,41.47162096942134,49.31318829136711,26.101999999955297
312441.8227,40.01597067313971,30.976510227337812,38.93497767393375,54.015100415582495,26.103000000002794
312441.8237,39.54722041296646,31.69104842130224,36.0069447250488,58.55764655851213,26.103999999992084
312441.8247,38.608661237692246,32.239283351038864,32.74857769764879,62.96026968525769,26.104999999981374
312441.8257,37.25367890313535,32.68755191618895,29.24011912358469,67.24842307127673,26.105999999970663
312441.8267,35.560797198346755,33.11977083519601,25.580881606105514,71.45294659466138,26.106999999959953
312441.8277,33.63185848129667,33.63461145157304,21.887074724506995,75.60823865642261,26.10800000000745
312441.8287,31.587823326308055,34.340555089277494,18.287504287891593,79.74918857085153,26.10899999999674
312441.8297,29.56234423797869,35.34903928808362,14.917299856475784,83.9069990281668,26.10999999998603
312441.8307,27.693503546115366,36.76612749522836,11.910049898057329,88.10418984190764,26.11099999997532
312441.8317,26.114312847005312,38.683326050594836,9.38892015886859,92.34921441120723,26.11199999996461
312441.8327,24.942729058954125,41.16831178692102,7.4574786652171285,96.63122261425724,26.113000000012107
312441.8337,24.27203311291599,44.256405096622935,6.191033463726279,100.9155551138788,26.114000000001397
312441.8347,24.162430517611746,47.94361704561693,5.629296119699667,105.14054609853834,26.114999999990687
312441.8357,24.634664948876956,52.18201264346151,5.7711118145077664,109.21614197544196,26.115999999979977
312441.8367,25.66629093335428,56.877971157855285,6.571850099137036,113.02471643718162,26.116999999969266
312441.8377,27.191041546604428,61.89370131484999,7.943840953986208,116.42428767058234,26.117999999958556
312441.8387,29.101470298746246,67.05210363132852,9.759987200291238,119.25413651960267,26.119000000006054
312441.8397,31.25476635264953,72.14478784017761,11.860409664008522,121.34260422196607,26.119999999995343
312441.8407,33.48136485469739,76.94277657288359,14.061711491297952,122.5166359588333,26.120999999984633
312441.8417,35.59572552881047,81.20918314990095,16.16820837683645,122.61245283293587,26.121999999973923
312441.8427,37.40845645399306,84.71296476925147,17.98428543171359,121.48659875389099,26.122999999963213
312441.8437,38.738835046329754,87.24274084814965,19.326927444349188,119.02653465541869,26.12400000001071
312441.8447,39.42673702646268,88.619641211035,20.03743919973127,115.159949428329,26.125
312441.8457,39.34303106026186,88.70821369404119,19.99143029165816,109.86202721196798,26.12599999998929
312441.8467,38.397627980430585,87.42457062700882,19.10628014820746,103.16004956176249,26.12699999997858
312441.8477,36.54457720258368,84.74117565258194,17.345511478743013,95.13490720931846,26.12799999996787
312441.8487,33.78386041888288,80.68794672887634,14.719764870732925,85.91933276834345,26.12899999995716
312441.8497,30.159820037454473,75.34965323558178,11.284359573683757,75.69292190639226,26.130000000004657
312441.8507,25.756450429921045,68.85988749036852,7.133718577482998,64.67426324513943,26.130999999993946
312441.8517,20.690046837566157,61.39216621747605,2.393202681975732,53.11072376128522,26.131999999983236
312441.8527,15.099925033685752,53.14894063368632,-2.790886479658753,41.26661626352735,26.132999999972526
312441.8537,9.138074465491837,44.34944474703182,-8.26223060593391,29.410592460433428,26.133999999961816
312441.8547,2.95867511054532,35.21737691543791,-13.865382996477807,17.8031489358945,26.135000000009313
312441.8557,-3.291611926683856,25.969384475234076,-19.45568852326523,6.685100626761577,26.135999999998603
312441.8567,-9.481775165350108,16.805208697385137,-24.907420129237742,-3.732229013199711,26.136999999987893
312441.8577,-15.502378984181153,7.900159110641392,-30.119508784707918,-13.27451939060682,26.137999999977183
312441.8587,-21.268894423827806,-0.5996588417302077,-35.01849193192544,-21.809296834399834,26.138999999966472
312441.8597,-26.722311095541148,-8.579216601068547,-39.558585254443734,-29.24798021093632,26.139999999955762
312441.8607,-31.827180278573184,-15.953672783419673,-43.71906676387261,-35.54523662773034,26.14100000000326
312441.8617,-36.567491994914235,-22.665119151226516,-47.499422929306355,-40.69597456875959,26.14199999999255
312441.8627,-40.940995935294474,-28.677574243016036,-50.91291840190557,-44.73047924909405,26.14299999998184
312441.8637,-44.95271734621433,-33.97098254629109,-53.979393116173945,-47.708314860693314,26.14399999997113
312441.8647,-48.60848068700748,-38.535041409141584,-56.718149323005974,-49.7116703954859,26.14499999996042
312441.8657,-51.90923023926908,-42.363655017269494,-59.14176079448679,-50.838806462497686,26.146000000007916
312441.8667,-54.84683060048202,-45.45070783537398,-61.251520220522664,-51.19817377411551,26.146999999997206
312441.8677,-57.40185208275271,-47.78767045307673,-63.0350504269972,-50.90363041961241,26.147999999986496
312441.8687,-59.543614655230066,-49.36331760139637,-64.46635966490568,-50.07100112233362,26.148999999975786
312441.8697,-61.23250288308741,-50.1655754799612,-65.50834563742896,-48.81601800861653,26.149999999965075
312441.8707,-62.424300178859085,-50.18525078740534,-66.11747514081252,-47.253481740078925,26.151000000012573
312441.8717,-63.076050999930445,-49.42115467725262,-66.25011465949743,-45.49730675560967,26.152000000001863
312441.8727,-63.15276964398436,-47.88594658673831,-65.86978810125824,-43.66098495389543,26.152999999991152
312441.8737,-62.63419455213452,-45.61190589996132,-64.95451225528404,-41.85793397176208,26.153999999980442
312441.8747,-61.520751240441264,-42.65580709329886,-63.5033225586608,-40.2011985491653,26.154999999969732
312441.8757,-59.83794054597848,-39.10213132325179,-61.54115680564662,-38.80204817392755,26.155999999959022
312441.8767,-57.63850819573119,-35.06399026898849,-59.12140869126668,-37.767155277736705,26.15700000000652
312441.8777,-55.00196438402461,-30.681353586419732,-56.325683670809866,-37.19423222039722,26.15799999999581
312441.8787,-52.031287951983785,-26.116439109468207,-53.260565770945654,-37.16623229009629,26.1589999999851
312441.8797,-48.84694292651894,-21.54641880315194,-50.05150898937309,-37.74445555539954,26.15999999997439
312441.8807,-45.57862626885168,-17.1538841218626,-46.83427066703797,-38.961118048495464,26.16099999996368
312441.8817,-42.35542489897193,-13.11577225014894,-43.7445761585583,-40.81211638587213,26.162000000011176
312441.8827,-39.295260094645045,-9.591652745020287,-40.90691627544931,-43.250826783386955,26.163000000000466
312441.8837,-36.494616174426945,-6.712390766652095,-38.42350870756515,-46.18380057932095,26.163999999989755
312441.8847,-34.01957349287798,-4.570224375497546,-36.364486980455304,-49.46914881581322,26.164999999979045
312441.8857,-31.89908788359774,-3.2112143769569514,-34.760309766170295,-52.91824633600716,26.165999999968335
312441.8867,-30.12128432464817,-2.63085071962232,-33.59721376631611,-56.301141062718386,26.166999999957625
312441.8877,-28.63327593225325,-2.7733437172847046,-32.81627885656803,-59.35574555558616,26.168000000005122
312441.8887,-27.34470300391302,-3.534813761518684,-32.31635714860157,-61.80054209932608,26.168999999994412
312441.8897,-26.134839723979628,-4.770248250033093,-31.96076698384889,-63.35018119506891,26.169999999983702
312441.8907,-24.86277101857464,-6.303751185921738,-31.587301303069996,-63.73303042482668,26.17099999997299
312441.8917,-23.37983222153007,-7.941301774584475,-31.02078071243804,-62.70946923472013,26.17199999996228
312441.8927,-21.543260406175353,-9.484993192165051,-30.087125765522927,-60.08955392605384,26.17300000000978
312441.8937,-19.22985354387658,-10.747565843234652,-28.62775587691249,-55.74861747946835,26.17399999999907
312441.8947,-16.348389013767573,-11.565997297264438,-26.51306125202927,-49.63943260913743,26.17499999998836
312441.8957,-12.849623426746485,-11.812970585289348,-23.653746879181142,-41.7997544768408,26.17599999997765
312441.8967,-8.732877491435197,-11.405210245163735,-20.00901102302848,-32.35436119326316,26.176999999966938
312441.8977,-4.048488415504304,-10.307937932926627,-15.590781427453921,-21.511104248718752,26.177999999956228
312441.8987,1.1042355855315225,-8.535034146677589,-10.463568011505233,-9.550936935397184,26.179000000003725
312441.8997,6.583529636594352,-6.144870286949073,-4.739871505667171,3.187630284192978,26.179999999993015
312441.9007,12.215724861520863,-3.232162279046867,1.4285208994149863,16.328732922948642,26.180999999982305
312441.9017,17.809036719159373,0.08344152882656818,7.862654608456275,29.48268942563225,26.181999999971595
312441.9027,23.16947793858112,3.6710223680704184,14.37093364818924,42.27122889281113,26.182999999960884
312441.9037,28.11756892580715,7.403070279535074,20.76482248166163,54.352569448577896,26.184000000008382
312441.9047,32.50441547156244,11.169837641894677,26.87437550476532,65.44445109860776,26.18499999999767
312441.9057,36.22574408676653,14.892031314576613,32.562246671726996,75.34332023879351,26.18599999998696
312441.9067,39.2326288027027,18.530632910039152,37.734950104709164,83.93810156199427,26.18699999997625
312441.9077,41.53789825014813,22.092869786567086,42.35036862308016,91.21736074409891,26.18799999996554
312441.9087,43.21755676635813,25.63368057905604,46.420821092356356,97.26913084302095,26.18900000001304
312441.9097,44.406958656208865,29.25240083698794,50.01137377987451,102.27321098706375,26.19000000000233
312441.9107,45.29190570993525,33.0848035679398,53.2334827021549,106.48630608530212,26.190999999991618
312441.9117,46.09525762235891,37.291030688748634,56.234448178041376,110.22091708664126,26.191999999980908
312441.9127,47.06001716598801,42.040309801672414,59.183515283464104,113.81937022238793,26.192999999970198
312441.9137,48.43014526786045,47.493635441788705,62.255734426301366,117.62475305197977,26.193999999959487
312441.9147,50.43055105926259,53.78578071807922,65.61488126000326,121.95077535094404,26.195000000006985
312441.9157,53.24777326056032,61.008078604030544,69.396809768432,127.05267469998485,26.195999999996275
312441.9167,57.01281715868546,69.19336663051028,73.69457164960569,133.10123273373392,26.196999999985565
312441.9177,61.787441925499635,78.30432946923948,78.54648440658893,140.1617634541302,26.197999999974854
312441.9187,67.55492217241228,88.22621580867373,83.92808471585028,148.17959667507895,26.198999999964144
312441.9197,74.21595996337985,98.76457230753144,89.74858565608892,156.97313463711316,26.20000000001164
312441.9207,81.59002964837175,109.64825765055997,95.85209504765005,166.23504303329912,26.20100000000093
312441.9217,89.42203171310447,120.53760653113669,102.02347938060966,175.54158886958905,26.20199999999022
312441.9227,97.39374739914876,131.03723975253388,107.99840564955088,184.3695980084083,26.20299999997951
312441.9237,105.13925427695862,140.71269291321386,113.47679116022066,192.12001435176546,26.2039999999688
312441.9247,112.26320981771472,149.10978734573055,118.13866299208564,198.1466349301982,26.20499999995809
312441.9257,118.3607531736055,155.775510733488,121.66129090417508,201.78829767807724,26.206000000005588
312441.9267,123.03772364093166,160.27911999454184,123.73641802421284,202.40262895798506,26.206999999994878
312441.9277,125.9299468731325,162.23222518230196,124.08647150746553,199.39942297099515,26.207999999984168
312441.9287,126.72048685986442,161.30675097702974,122.47878059546764,192.27182132689387,26.208999999973457
312441.9297,125.15398503410438,157.24988475802243,118.73704469071421,180.6236744490895,26.209999999962747
312441.9307,121.04748358951261,149.8953843222531,112.74955604533577,164.1917747943398,26.211000000010245
312441.9317,114.2974305524988,139.1709076474914,104.47396397342999,142.86202636358058,26.211999999999534
312441.9327,104.88286085678051,125.10131447287456,93.93864299465254,116.67902329118832,26.212999999988824
312441.9337,92.86501400359352,107.80814952882571,81.24097083307821,85.84891931713648,26.213999999978114
312441.9347,78.38386264431172,87.50572888742106,66.54301293585469,50.73584871553523,26.214999999967404
312441.9357,61.65217177469267,64.49439916941182,50.065233623214965,11.852481551136346,26.215999999956694
312441.9367,42.94777705825766,39.1516166346579,32.078903117728395,-30.15445749482265,26.21700000000419
312441.9377,22.604763162616802,11.921499660330879,12.897845441693452,-74.52271841633473,26.21799999999348
312441.9387,1.00414679231255,-16.696548707751695,-7.129917019045454,-120.39604596982181,26.21899999998277
312441.9397,-21.435461068105752,-46.159657843892816,-27.630205738055036,-166.84764874606452,26.21999999997206
312441.9407,-44.26690380014734,-75.89339380059135,-48.21016830616717,-212.90466264467614,26.22099999996135
312441.9417,-67.02310559777958,-105.30354704365087,-68.46513232974591,-257.5727947135402,26.222000000008848
312441.9427,-89.22530908627839,-133.78773927670034,-87.98492742225976,-299.86050527469195,26.222999999998137
312441.9437,-110.3910931069745,-160.74689660330216,-106.35990323219985,-338.80226655417255,26.223999999987427
312441.9447,-130.04242810209635,-185.5967061954202,-123.186953993682,-373.48060274839,26.224999999976717
312441.9457,-147.7140572140383,-207.77919335117105,-138.0758839063458,-403.04675097549534,26.225999999966007
312441.9467,-162.96246031335616,-226.7745231769348,-150.65640972638624,-426.7398713239056,26.226999999955297
312441.9477,-175.37556893931801,-242.11305039833212,-160.5860012619592,-443.90476997480727,26.228000000002794
312441.9487,-184.58326250018146,-253.38752213756638,-167.55861754492875,-454.00808181663183,26.228999999992084
312441.9497,-190.26850558808997,-260.26519674794156,-171.314222275001,-456.65279461789845,26.229999999981374
312441.9507,-192.17880249687616,-262.4994949222935,-171.6487764855815,-451.5908983185963,26.230999999970663
312441.9517,-190.13746961331682,-259.9406664329924,-168.42423083451158,-438.73382771507414,26.231999999959953
312441.9527,-184.05408075533845,-252.54485534257046,-161.57789563627585,-418.16025498919885,26.23300000000745
312441.9537,-173.93334388438126,-240.38089393906594,-151.13047230361016,-390.1207010677122,26.23399999999674
312441.9547,-159.8816347307316,-223.6341622162167,-137.1919993235913,-355.0383909189812,26.23499999998603
312441.9557,-142.11045263940244,-202.60692105763331,-119.96500730665252,-313.5057929313146,26.23599999997532
312441.9567,-120.93617832393205,-177.71466273768132,-99.74429210746406,-266.2763660079889,26.23699999996461
312441.9577,-96.77569682731117,-149.4782148910091,-76.912896369891,-214.25119234599597,26.238000000012107
312441.9587,-70.13768942903981,-118.51157083614882,-51.93412509692182,-158.46039360586852,26.239000000001397
312441.9597,-41.609677059981976,-85.50568236819976,-25.33969121017178,-100.03950019558923,26.239999999990687
312441.9607,-11.841192084162815,-51.2087198581168,2.285630394288757,-40.20124777254734,26.240999999979977
312441.9617,18.476260260274668,-16.403556214272644,30.322192109693713,19.79641320570824,26.241999999969266
312441.9627,48.631540367458044,18.11655605364405,58.135626064964036,78.68501783375876,26.242999999958556
312441.9637,77.9174117817933,51.57299138630021,85.09790773492044,135.22167726815096,26.244000000006054
312441.9647,105.65406357093893,83.22623805416316,110.60818455140553,188.22507079737142,26.244999999995343
312441.9657,131.211379909008,112.39866578508747,134.1122181165874,236.6097757811377,26.245999999984633
312441.9667,154.02879015661986,138.4944648512334,155.11937566746903,279.4174026056639,26.246999999973923
312441.9677,173.63169431593641,161.01581968164066,173.21628070718538,315.8431413442502,26.247999999963213
312441.9687,189.64369882042845,179.57462260606633,188.07648081108672,345.2565676806551,26.24900000001071
312441.9697,201.79419645188963,193.8993275095139,199.4657917321087,367.21588061059157,26.25
312441.9707,209.92115608342837,203.83686514182514,207.2433045684484,381.47512778572855,26.25099999998929
312441.9717,213.96932362466876,209.3498644500478,211.35836710661326,387.98438433451645,26.25199999997858
312441.9727,213.98434487035254,210.50971965214632,211.8441412700858,386.8832528977218,26.25299999996787
312441.9737,210.10357599366972,207.48628486779637,208.80856828162052,378.48841241610484,26.25399999995716
312441.9747,202.54452533329027,200.53514564101354,202.4237196465718,363.27623107350496,26.255000000004657
312441.9757,191.59195556938997,189.98349530336895,192.9145613548404,341.8616522304989,26.255999999993946
312441.9767,177.584662237565,176.2156281781529,180.54810640604168,314.97464832199864,26.256999999983236
312441.9777,160.9028365692064,159.65895489819022,165.6237828122919,283.4355145498706,26.257999999972526
312441.9787,141.95673121468,140.77126057388904,148.46561639514078,248.13015069028125,26.258999999961816
312441.9797,121.17709803382935,120.02968509013179,129.4165440619984,209.98627410209815,26.260000000009313
312441.9807,99.00758530397592,97.9216330742695,108.83486382074557,169.95124625827452,26.260999999998603
312441.9817,75.89899795276663,74.93754865718574,87.09252540728856,128.9719096102804,26.261999999987893
312441.9827,52.30506922619362,51.56524645304484,64.57470236149028,87.97655334598255,26.262999999977183
312441.9837,28.679192758908645,28.285301313377037,41.67989112522508,47.85888544366478,26.263999999966472
312441.9847,5.471441497809662,5.566885406511368,18.81967687654328,9.463708928194109,26.264999999955762
312441.9857,-16.874832668218016,-16.13658609201668,-3.5826980727475637,-26.42610073243733,26.26600000000326
312441.9867,-37.927463885465485,-36.39257745674114,-25.095727206059987,-59.10173499027861,26.26699999999255
312441.9877,-57.27149925057183,-54.79575574345417,-45.28556194443524,-87.94005717570187,26.26799999998184
312441.9887,-74.5170652773337,-70.97573761299508,-63.72475746147754,-112.41488050420318,26.26899999997113
312441.9897,-89.30908303766026,-84.60622926555475,-80.00381214483316,-132.1079324209601,26.26999999996042
312441.9907,-101.33855203203198,-95.41526117236468,-93.74512701361682,-146.71929693530365,26.271000000007916
312441.9917,-110.35484382743459,-103.19596630517957,-104.61868286058129,-156.0769058703667,26.271999999997206
312441.9927,-116.17820756585743,-107.81714126002089,-112.35845289689647,-160.14445864462488,26.272999999986496
312441.9937,-118.71151708808745,-109.2326887219725,-116.77836657392459,-159.0270140310603,26.273999999975786
312441.9947,-117.9502039923019,-107.48898520016044,-117.78653846674557,-152.9734366245834,26.274999999965075
312441.9957,-113.98933465579185,-102.72925947583406,-115.39648795774214,-142.37490833053752,26.276000000012573
312441.9967,-107.02690487918048,-95.19420481501365,-109.73420383394921,-127.7588350775151,26.277000000001863
312441.9977,-97.36263636235962,-85.21827210454154,-101.0401448412656,-109.77768583235492,26.277999999991152
312441.9987,-85.39184843923073,-73.22138325381553,-89.66559451738786,-89.19258059387559,26.278999999980442
312441.9997,-71.59432231731672,-59.696138930856165,-76.0631793893198,-66.8517744412035,26.279999999969732
312442.0007,-56.51844380575973,-45.190941766660025,-60.77178076477221,-43.66453835765614,26.280999999959022
312442.0017,-40.761271645144674,-30.28978361748869,-44.396485568812565,-20.57128385131046,26.28200000000652
312442.0027,-24.945499789634123,-15.58972275212769,-27.58459487430719,1.4889133751296708,26.28299999999581
312442.0037,-9.694534386395771,-1.677277752037611,-10.999007450981411,21.61199322538223,26.2839999999851
312442.0047,4.392933068225901,10.894929716530973,4.709505989371981,38.96224327688258,26.28499999997439
312442.0057,16.767420315022918,21.62995157131291,18.929540809302665,52.80368162921032,26.28599999996368
312442.0067,26.950836843475276,30.105484407465703,31.11425328308352,62.52794821626176,26.287000000011176
312442.0077,34.55513619757626,35.989013240637846,40.80311618767699,67.67732742866887,26.288000000000466
312442.0087,39.296472020741554,39.04838727999883,47.63910048303994,67.96178353637977,26.288999999989755
312442.0097,41.0042111653942,39.15742036836516,51.380487230398415,63.26922219477168,26.289999999979045
312442.0107,39.62451507855875,36.29646370831662,51.90689915006704,53.668570096227015,26.290999999968335
312442.0117,35.21856543223679,30.54824330024925,49.21953870723566,39.4056610874471,26.291999999957625
312442.0127,27.955850251374436,22.089558890909093,43.43599525484538,20.892300719909887,26.293000000005122
312442.0137,18.103214576570238,11.179679499388435,34.78030686200649,-1.3107757042902706,26.293999999994412
312442.0147,6.010592902682344,-1.853575894921834,23.569208527715485,-26.516057330128852,26.294999999983702
312442.0157,-7.905534914600782,-16.629025098271516,10.195651360395285,-53.93533144495252,26.29599999997299
312442.0167,-23.179892043646817,-32.72756583330571,-4.889269625661386,-82.70837520951567,26.29699999996228
312442.0177,-39.316344410058015,-49.706986931443666,-21.194885029966947,-111.93294585701398,26.29800000000978
312442.0187,-55.805155455538966,-67.11545138073353,-38.20905188342978,-140.6948152772879,26.29899999999907
312442.0197,-72.13887411270856,-84.50319326711566,-55.41501264041545,-168.0967301926607,26.29999999998836
312442.0207,-87.8264024512413,-101.43222794741204,-72.30647219806045,-193.28536537440536,26.30099999997765
312442.0217,-102.4050252257415,-117.48412308604443,-88.40059865713408,-215.47555275358235,26.301999999966938
312442.0227,-115.45040124619288,-132.2660912909745,-103.24888552347471,-233.97129144175696,26.302999999956228
312442.0237,-126.58469377233165,-145.41582133855124,-116.44600755926845,-248.18325186662204,26.304000000003725
312442.0247,-135.48313718284052,-156.60554940149117,-127.63694142217744,-257.64266441701415,26.304999999993015
312442.0257,-141.87939030353454,-165.54587743544843,-136.52269465932568,-262.0116174159968,26.305999999982305
312442.0267,-145.57001131610366,-171.98977480867913,-142.86498973443597,-261.08987534319965,26.306999999971595
312442.0277,-146.4183114642033,-175.73706166682607,-146.49018889038257,-254.81836690733084,26.307999999960884
312442.0287,-144.3577184028249,-176.63948595499772,-147.292633461304,-243.27949071771323,26.309000000008382
312442.0297,-139.39462423628171,-174.60629337376054,-145.23742621002415,-226.6943556958649,26.30999999999767
312442.0307,-131.61053080396465,-169.6099766584281,-140.3625294830594,-205.41702904670882,26.31099999998696
312442.0317,-121.16315932779145,-161.6917034999903,-132.7799086908445,-179.92582293322403,26.31199999997625
312442.0327,-108.28608519519018,-150.96578472737323,-122.67534160660966,-150.8116275768539,26.31299999996554
312442.0337,-93.28640932269927,-137.6224746209078,-110.30645708019088,-118.76330623058804,26.31400000001304
312442.0347,-76.5399968896356,-121.92840503479998,-95.99857386211501,-84.55021486278608,26.31500000000233
312442.0357,-58.483906217361984,-104.22404771710579,-80.1379858254765,-49.001999433255875,26.315999999991618
312442.0367,-39.605790832216286,-84.9177694457676,-63.16248044586628,-12.985953247726586,26.316999999980908
312442.0377,-20.430273847076098,-64.4762786644628,-45.549071672616726,22.617622983162224,26.317999999970198
312442.0387,-1.5025463544677842,-43.41153950748704,-27.79915834730883,56.9414392270282,26.318999999959487
312442.0397,16.63029383995834,-22.26452377224851,-10.421562318354484,89.15781816487065,26.320000000006985
312442.0407,33.43939700049815,-1.5864554349658146,6.085868859573143,118.50493322664057,26.320999999996275
312442.0417,48.434835247151796,18.081551979878284,21.255216265415125,144.31162182204523,26.321999999985565
312442.0427,61.1856774523759,36.22938196343585,34.66698850023116,166.01965839721123,26.322999999974854
312442.0437,71.33828694973077,52.39814104292184,45.96709476446943,183.20238886857888,26.323999999964144
312442.0447,78.63169677845956,66.1985314330844,54.881249939727645,195.57872380275884,26.32500000001164
312442.0457,82.90904539147189,77.32626467318467,61.22588532878156,203.02166294939747,26.32600000000093
312442.0467,84.12427185743411,85.57358702112298,64.91483536667606,205.56077154219946,26.32699999999022
312442.0477,82.34355786436947,90.83623847827032,65.9613333705727,203.3783351400585,26.32799999997951
312442.0487,77.74134153733475,93.11547174146214,64.47515700452401,196.79926441424968,26.3289999999688
312442.0497,70.59108757359044,92.51508904428212,60.6550908522715,186.27517926064482,26.32999999995809
312442.0507,61.251349530080404,89.23378548885428,54.777191522943504,172.36344544718918,26.331000000005588
312442.0517,50.147973828194566,83.55338931273802,47.179622863351504,155.702239147233,26.331999999994878
312442.0527,37.75354496872897,75.82383790580404,38.24505108442731,136.9829501255353,26.332999999984168
312442.0537,24.565337021315283,66.44590394532231,28.381733307602182,116.92138295066877,26.333999999973457
312442.0547,11.083104610339117,55.852776427847154,18.00448669985423,96.22926429127112,26.334999999962747
312442.0557,-2.211987065498507,44.49160231462105,7.516685632824381,75.58750836536467,26.336000000010245
312442.0567,-14.876124654980725,32.80600983852686,-2.7056938104586887,55.62253617386625,26.336999999999534
312442.0577,-26.518348387782535,21.220475721064954,-12.327166302208887,36.88670019436784,26.337999999988824
312442.0587,-36.81211968197401,10.127183411162484,-21.062410812211407,19.84355527153033,26.338999999978114
312442.0597,-45.50259987672674,-0.1242297679964384,-28.682261176826824,4.85836478828258,26.339999999967404
312442.0607,-52.40961488975105,-9.233897533940098,-35.01604710741683,-7.806131575584714,26.340999999956694
312442.0617,-57.426592636586754,-16.956026810100273,-39.950595769673214,-17.98900594506301,26.34200000000419
312442.0627,-60.516028552235795,-23.100590156294885,-43.42643622385766,-25.62610048912594,26.34299999999348
312442.0637,-61.70223817234374,-27.53287569210897,-45.43191750900247,-30.741496916603033,26.34399999998277
312442.0647,-61.06227963767642,-30.171451174750786,-45.99604329470625,-33.43647909154911,26.34499999997206
312442.0657,-58.71596611677347,-30.98511933630952,-45.18083663065295,-33.87701755044437,26.34599999996135
312442.0667,-54.815839687083916,-29.98939597236545,-43.07398009303525,-32.2807590617825,26.347000000008848
312442.0677,-49.537853344369154,-27.242940179077628,-39.782339762880326,-28.904376138283137,26.347999999998137
312442.0687,-43.07332265682776,-22.844222634716992,-35.42679260838121,-24.031938145050148,26.348999999987427
312442.0697,-35.622484577427784,-16.92855184159222,-30.13855736282869,-17.964730611235115,26.349999999976717
312442.0707,-27.389762652375403,-9.665410570574135,-24.05700288362691,-11.01269912648209,26.350999999966007
312442.0717,-18.58061058810678,-1.255905877643261,-17.32869945892328,-3.4874559711208835,26.351999999955297
312442.0727,-9.39961332368722,8.069975905223298,-10.107309611062464,4.3034135516437875,26.353000000002794
312442.0737,-0.04938572420550856,18.056679001793572,-2.5538032346595516,12.061151800357672,26.353999999992084
312442.0747,9.270262952453104,28.427324882204033,5.16356118425603,19.500215577758027,26.354999999981374
312442.0757,18.363429602251262,38.88920946601041,12.87001792731214,26.35272321281163,26.355999999970663
312442.0767,27.039941442597037,49.140750557389985,20.386268050936156,32.37335650950792,26.356999999959953
312442.0777,35.11822859907452,58.87992706974964,27.531919578025036,37.344968264089765,26.35800000000745
312442.0787,42.42939047974594,67.81406565780692,34.13047018379418,41.08495535778419,26.35899999999674
312442.0797,48.82239705724405,75.67063658777295,40.015692408920664,43.452242363165446,26.35999999998603
312442.0807,54.17016049592777,82.20854042771408,45.03906988517986,44.354506375920145,26.36099999997532
312442.0817,58.37602895442356,87.22922109722887,49.07774968306988,43.75508585323677,26.36199999996461
312442.0827,61.380114060866944,90.58684680362926,52.04234137768131,41.6788777787706,26.363000000012107
312442.0837,63.164783212917634,92.19677154358843,53.883823599687766,38.216457100870194,26.364000000001397
312442.0847,63.75863804262438,92.04153320509894,54.59882304699402,33.52566233450555,26.364999999990687
312442.0857,63.238364448388566,90.17375999996177,54.2326111382852,27.829986073267083,26.365999999979977
312442.0867,61.7279733687205,86.71553807415613,52.879314076407596,21.41328532905923,26.366999999969266
312442.0877,59.3951437314718,81.85402624215384,50.679040432412954,14.610572480334946,26.367999999958556
312442.0887,56.44461259924502,75.83337006951541,47.81187806324853,7.794944386936799,26.369000000006054
312442.0897,53.10881103040988,68.94324450505789,44.48897683759697,1.3610304985934985,26.369999999995343
312442.0907,49.63619396622929,61.50461782864786,40.941190983650664,-4.2943374869800195,26.370999999984633
312442.0917,46.2779349471664,53.85355631505205,37.40598099447226,-8.793240910067057,26.371999999973923
312442.0927,43.27383029315745,46.32405797938477,34.11344862793412,-11.7983485658171,26.372999999963213
312442.0937,40.83836539081433,39.23099904959504,31.272482854964522,-13.033774725434082,26.37400000001071
312442.0947,39.14792652461345,32.854288631115345,29.058018938712358,-12.303695871929675,26.375
312442.0957,38.33009069505146,27.425252806714834,27.600353498334524,-9.507362007043964,26.37599999998929
312442.0967,38.45579576261468,23.116114066213875,26.97731913724188,-4.649309852992748,26.37699999997858
312442.0977,39.53499377148532,20.033207530654618,27.209913798416416,2.1561414487401316,26.37799999996787
312442.0987,41.51613740729302,18.214300096092906,28.261719432959286,10.686674412322342,26.37899999995716
312442.0997,44.28956407567941,17.630075128432686,30.042153558748247,20.62018407805036,26.380000000004657
312442.1007,47.69454799561278,18.18953907465669,32.413300457023006,31.549120796918814,26.380999999993946
312442.1017,51.52951295448651,19.74882312233437,35.199791484429866,43.000236106070325,26.381999999983236
312442.1027,55.56466078880196,22.122616794392325,38.200970194089095,54.45861171432408,26.382999999972526
312442.1037,59.55609377957938,25.097301063754863,41.204408005429876,65.39453524031128,26.383999999961816
312442.1047,63.26040837760739,28.444760313096868,43.999744928256106,75.29157107267847,26.385000000009313
312442.1057,66.44872176570634,31.935852115888157,46.391825326282344,83.67407880405041,26.385999999998603
312442.1067,68.91916294247332,35.35260024803127,48.21218113690193,90.13246359863987,26.386999999987893
312442.1077,70.50700969644184,38.498340393513416,49.328076658013295,94.34460043352605,26.387999999977183
312442.1087,71.0918681387394,41.20527322497565,49.64855493496416,96.09214475047128,26.388999999966472
312442.1097,70.60155238128436,43.339143652197855,49.12719487235382,95.27080360778714,26.389999999955762
312442.1107,69.01260424434577,44.801042079955394,47.76157533585825,91.89406443402656,26.39100000000326
312442.1117,66.34767039308207,45.526586414098155,45.58972093843194,86.09032868030484,26.39199999999255
312442.1127,62.67020153163304,45.48296681888992,42.68404815914587,78.09383906481888,26.39299999998184
312442.1137,58.0771329075917,44.6644975927096,39.14351771742254,68.2301872132474,26.39399999997113
312442.1147,52.69033049209534,43.08740713505484,35.08481328715174,56.8975133366591,26.39499999996042
312442.1157,46.64763297095451,40.78460090796799,30.6333986362227,44.54473821504953,26.396000000007916
312442.1167,40.09428428460338,37.80105527461036,25.91525430017229,31.64828612452804,26.396999999997206
312442.1177,33.175441161685306,34.19035229268978,21.049968348572378,18.688761302696363,26.397999999986496
312442.1187,26.030268528688637,30.012664477873606,16.145668454798518,6.128935885918274,26.398999999975786
312442.1197,18.78792233166988,25.33426727989173,11.296054889023306,-5.60579113108724,26.399999999965075
312442.1207,11.5654874452432,20.228421692412795,6.579550403069021,-16.143574149742527,26.401000000012573
312442.1217,4.467712590841696,14.777256594265902,2.060348591286336,-25.178364442197246,26.402000000001863
312442.1227,-2.4118120139756125,9.074114261375174,-2.2090588890792495,-32.47796881507552,26.402999999991152
312442.1237,-8.988535298762743,3.2257222564660033,-6.184443734970672,-37.887988301788745,26.403999999980442
312442.1247,-15.18446819749594,-2.6464670797197933,-9.826138708976378,-41.33197344207302,26.404999999969732
312442.1257,-20.925944185351405,-8.406367991680124,-13.095724438473592,-42.80834275885343,26.405999999959022
312442.1267,-26.142153193510616,-13.905244071000029,-15.95368865017685,-42.38474613807056,26.40700000000652
312442.1277,-30.764861019457996,-18.98584055194615,-18.35850523566935,-40.19060981359402,26.40799999999581
312442.1287,-34.729553072926954,-23.488677616342915,-20.26739294757051,-36.40857764398734,26.4089999999851
312442.1297,-37.97803759057635,-27.260250710241028,-21.63879444043812,-31.265474936800928,26.40999999997439
312442.1307,-40.462331763171754,-30.162627707636997,-22.43638923447937,-25.023282906130614,26.41099999996368
312442.1317,-42.14945790212114,-32.08371387410481,-22.634243382678108,-17.970444724173138,26.412000000011176
312442.1327,-43.026617721124275,-32.947298957545414,-22.2225270511718,-10.413650623515293,26.413000000000466
312442.1337,-43.106109215537636,-32.72192569780702,-21.213117930870023,-2.6700915675386696,26.413999999989755
312442.1347,-42.42931508211083,-31.42763717185463,-19.644366614872467,4.939952354145195,26.414999999979045
312442.1357,-41.0691297766706,-29.139774098586543,-17.58433578094656,12.10039728818225,26.415999999968335
312442.1367,-39.130302178774635,-25.989195315814694,-15.131936240088919,18.506741267114332,26.416999999957625
312442.1377,-36.74734293506113,-22.15856879910224,-12.415559849669888,23.87373723368919,26.418000000005122
312442.1387,-34.079863795892926,-17.874702868282004,-9.589035259720061,27.943449638243347,26.418999999994412
312442.1397,-31.30545955436053,-13.397228329587303,-6.8249855849190375,30.493660664633577,26.419999999983702
312442.1407,-28.610487606029753,-9.00427047145412,-4.30592254299687,31.34643966644634,26.42099999997299
312442.1417,-26.17932134370246,-4.976034001425959,-2.213644146114321,30.376534342501365,26.42199999996228
312442.1427,-24.182829355696104,-1.5774368906867164,-0.717689631926926,27.519104963885002,26.42300000000978
312442.1437,-22.766944831734705,0.9589501332487504,0.03627256556325452,22.776222463151175,26.42399999999907
312442.1447,-22.042226938883996,2.448385356987455,-0.06279739224080357,16.22150274922414,26.42499999998836
312442.1457,-22.0752736736853,2.7666767875539358,-1.0822922729891333,8.002263406607028,26.42599999997765
312442.1467,-22.882726851394136,1.8591502161699407,-3.0394490156364444,-1.6613310589910173,26.426999999966938
312442.1477,-24.428424623641927,-0.25485233703614063,-5.897937115300657,-12.480525750634103,26.427999999956228
312442.1487,-26.624021416714225,-3.482325827230858,-9.567896703739642,-24.105826130663296,26.429000000003725
312442.1497,-29.3331300343398,-7.661822370272262,-13.909512965378426,-36.13839799300307,26.429999999993015
312442.1507,-32.37876884851663,-12.573186290442589,-18.739939839115568,-48.14471376725348,26.430999999982305
312442.1517,-35.553641757487235,-17.951114301230433,-23.84312799809569,-59.6738856732176,26.431999999971595
312442.1527,-38.63256137681966,-23.50157084427956,-28.98189153223484,-70.2768934100446,26.432999999960884
312442.1537,-41.38616458262914,-28.919887883717887,-33.91138254883943,-79.52672616814614,26.434000000008382
312442.1547,-43.59497680658258,-33.90927226602269,-38.393045878120105,-87.0383338077171,26.43499999999767
312442.1557,-45.06286409714467,-38.19843890551461,-42.208103935891096,-92.48723324705192,26.43599999998696
312442.1567,-45.628970111943886,-41.55718273570613,-45.16967473593611,-95.62565053977355,26.43699999997625
312442.1577,-45.17736268690473,-43.80888651780068,-47.13274784315599,-96.29519699878743,26.43799999996554
312442.1587,-43.6437994571491,-44.83921793865565,-48.00142177306175,-94.4352721553783,26.43900000001304
312442.1597,-41.01924753263644,-44.60057507583067,-47.7330254502643,-90.08664375081827,26.44000000000233
312442.1607,-37.350038638775416,-43.11216783243727,-46.338986261017375,-83.3899561247555,26.440999999991618
312442.1617,-32.73478720043958,-40.455946725931206,-43.88254712188388,-74.57924001659367,26.441999999980908
312442.1627,-27.318423855846053,-36.76888304343642,-40.47365459782831,-63.97081363497581,26.442999999970198
312442.1637,-21.283882470461442,-32.23234293120197,-36.261521628907886,-51.9482518320323,26.443999999959487
312442.1647,-14.842110529081697,-27.059464968838,-31.42549807679511,-38.94433486179015,26.445000000006985
312442.1657,-8.221141772347954,-21.481535530607047,-26.16495152187255,-25.42105268901406,26.445999999996275
312442.1667,-1.6549731767218767,-15.734355710392034,-20.688866906133878,-11.848823661037288,26.446999999985565
312442.1677,4.6270707556079635,-10.045512418026613,-15.205820169781612,1.3139165432548858,26.447999999974854
312442.1687,10.40991561852328,-4.623316116353402,-9.914877011071981,13.63968483249624,26.448999999964144
312442.1697,15.500836875675237,0.35203400400197044,-4.997826922790421,24.748565057397578,26.45000000001164
312442.1707,19.735834248873882,4.7347284162171155,-0.6130014265640468,34.321763345244214,26.45100000000093
312442.1717,22.984207458452357,8.416978907355826,3.109238063929275,42.11164547505744,26.45199999999022
312442.1727,25.1514177462902,11.330135951704712,6.069405689930448,47.948052387682296,26.45299999997951
312442.1737,26.180444608548726,13.443610969392052,8.20037117598598,51.74093280681704,26.4539999999688
312442.1747,26.051927601161246,14.762057656855044,9.46767311698094,53.4795426261176,26.45499999995809
312442.1757,24.783412627659082,15.321340339448053,9.868954954584359,53.2286236953186,26.456000000005588
312442.1767,22.4280006630779,15.18382704428651,9.432797181885904,51.12208037308687,26.456999999994878
312442.1777,19.072630511065608,14.433494910497704,8.217162462035752,47.354717857402754,26.457999999984168
312442.1787,14.836127553925138,13.171236151267328,6.30758321152485,42.17259569977878,26.458999999973457
312442.1797,9.867033349376792,11.510619591575248,3.8151182082148973,35.862492867580215,26.459999999962747
312442.1807,4.341114534697806,9.574214564256403,0.874002429439987,28.740891646612322,26.461000000010245
312442.1817,-1.5416477612301298,7.49044043636266,-2.361170786412465,21.14278372040553,26.461999999999534
312442.1827,-7.5608484762860355,5.390784827707277,-5.718949313957378,13.41050066266023,26.462999999988824
312442.1837,-13.480503291323155,3.4071519282926213,-9.015427822208164,5.882688970093978,26.463999999978114
312442.1847,-19.055180472459142,1.6690694414097367,-12.05974513493578,-1.1165008262806315,26.464999999967404
312442.1857,-24.03755702226448,0.3005026215946525,-14.660772280882764,-7.287953149984067,26.465999999956694
312442.1867,-28.187392562840955,-0.5839059165093151,-16.634961634817156,-12.36776826049524,26.46700000000419
312442.1877,-31.281736364789204,-0.8832403100484383,-17.81516996061476,-16.13693541740197,26.46799999999348
312442.1887,-33.125989423959695,-0.5152901965254633,-18.06009871757586,-18.430261102964792,26.46899999998277
312442.1897,-33.5652565916963,0.578113808525992,-17.26383375390437,-19.144218444745505,26.46999999997206
312442.1907,-32.49526655592746,2.425764802707133,-15.364834216245145,-18.24329600306594,26.47099999996135
312442.1917,-29.87203140390623,5.022212040275126,-12.353636185528812,-15.764362685523615,26.472000000008848
312442.1927,-25.719379936114095,8.323895141156626,-8.278515305945508,-11.818546574742749,26.472999999998137
312442.1937,-20.133541024303685,12.246824819214929,-3.2484037994280466,-6.590160606902958,26.473999999987427
312442.1947,-13.284078633887228,16.66630431587503,2.5675170426147034,-0.3323032447000536,26.474999999976717
312442.1957,-5.410683827690414,21.41907471340037,8.943932960598103,6.641083277024472,26.475999999966007
312442.1967,3.1844018845044237,26.308103186322043,15.607354346003104,13.966708711845946,26.476999999955297
312442.1977,12.148243279680647,31.110029183324208,22.247760065347247,21.246753195931102,26.478000000002794
312442.1987,21.092925915466864,35.58505724964121,28.5334707687999,28.066516414321796,26.478999999992084
312442.1997,29.614381488488153,39.48885734827293,34.128506856395965,34.014150714669334,26.479999999981374
312442.2007,37.31329096447217,42.5858257369088,38.71143803904434,38.70150628480324,26.480999999970663
312442.2017,43.81681151516632,44.66289227028201,41.99454725336074,41.78494468167808,26.481999999959953
312442.2027,48.799739912573045,45.54295099230486,43.74203106602436,42.98487834031361,26.48300000000745
312442.2037,52.00369437956007,45.09695294354456,43.785954528505464,42.10278267930928,26.48399999999674
312442.2047,53.252975772157505,43.25374014862755,42.03877565131858,39.034511449289276,26.48499999998603
312442.2057,52.465954915519944,40.006817917997296,38.50144955935654,33.778924352409,26.48599999997532
312442.2067,49.66111422715276,35.41745208845242,33.266402705875905,26.441099637323887,26.48699999996461
312442.2077,44.95722829966437,29.61372526777295,26.515013267432302,17.229736394626098,26.488000000012107
312442.2087,38.567572879720544,22.78547261224622,18.509618814599776,6.448728004712215,26.489000000001397
312442.2097,30.78847300610199,15.175320193950444,9.580466263579048,-5.51671885845403,26.489999999990687
312442.2107,21.982905284898084,7.0663425629607985,0.10839011960402768,-18.21866707549582,26.490999999979977
312442.2117,12.560223584077365,-1.2328842546278864,-9.495677526354788,-31.168648612470278,26.491999999969266
312442.2127,2.953352753208626,-9.40485492408161,-18.813024642886873,-43.86213658163814,26.492999999958556
312442.2137,-6.405031450015437,-17.14022415242976,-27.439827537615724,-55.803782829422076,26.494000000006054
312442.2147,-15.105760631150996,-24.154263119875733,-35.0086693089409,-66.53186224992274,26.494999999995343
312442.2157,-22.784358110109263,-30.201581721650076,-41.20750028624585,-75.64043000170292,26.495999999984633
312442.2167,-29.138816154268234,-35.088151690634575,-45.79483326407085,-82.79787532241913,26.496999999973923
312442.2177,-33.94291204074433,-38.67987835599655,-48.61025970257763,-87.7608316072064,26.497999999963213
312442.2187,-37.054364545770405,-40.907239858815224,-49.5797344945188,-90.38275397745326,26.49900000001071
312442.2197,-38.417534433760544,-41.76581889952726,-48.715476151553034,-90.61687300493809,26.5
312442.2207,-38.060786803159516,-41.31286718304993,-46.11073280888761,-88.51364266998111,26.50099999998929
312442.2217,-36.089024897673276,-39.660339534273355,-41.93003842227386,-84.21318706640541,26.50199999997858
312442.2227,-32.672241647868695,-36.965087772077084,-36.3958967712585,-77.9335811263528,26.50299999996787
312442.2237,-28.03118941978902,-33.4170925088682,-29.773057748081243,-69.95604843669722,26.50399999995716
312442.2247,-22.421420550533455,-29.22671878499147,-22.351673129651076,-60.60830481452041,26.505000000004657
312442.2257,-16.116991037729946,-24.612001020634683,-14.430629317055354,-50.24731034630221,26.505999999993946
312442.2267,-9.395047351314163,-19.786894521919034,-6.302254325684283,-39.242616436763214,26.506999999983236
312442.2277,-2.5223421220192837,-14.951283178289588,1.7606024425382671,-27.961319872251245,26.507999999972526
312442.2287,4.255532038465289,-10.283321771556057,9.514395662290429,-16.755383912611954,26.508999999961816
312442.2297,10.721713380883351,-5.934437949834849,16.751219597611566,-5.95178479377901,26.510000000009313
312442.2307,16.69230562145724,-2.027048513823084,23.30160383565184,4.154377464208968,26.510999999998603
312442.2317,22.017463149095438,1.3452164544812886,29.034050545290317,13.303969877795629,26.511999999987893
312442.2327,26.579801752043235,4.115214916512253,33.85188071610045,21.27554506159146,26.512999999977183
312442.2337,30.29083171027094,6.238524215963193,37.68817218295355,27.88530463535978,26.513999999966472
312442.2347,33.08624658528164,7.688907203940753,40.49969830854157,32.98602962903045,26.514999999955762
312442.2357,34.92094168657086,8.453738849704392,42.260803508382246,36.46571166680995,26.51600000000326
312442.2367,35.76458037920868,8.530060479442914,42.95808067404473,38.246539264104946,26.51699999999255
312442.2377,35.59838314068861,7.921798559516874,42.586555896262524,38.284734766433985,26.51799999998184
312442.2387,34.41360117129071,6.638498065277864,41.147856116001904,36.57151902335934,26.51899999997113
312442.2397,32.211877678993226,4.695697656828727,38.65056041468209,33.13522843095844,26.51999999996042
312442.2407,29.00742411639859,2.1168394247214106,35.112644614261285,28.044351334024967,26.521000000007916
312442.2417,24.830675324313813,-1.0636146681916645,30.565651875943672,21.41101712230925,26.521999999997206
312442.2427,19.73286471331791,-4.7963702973217055,25.059987455427823,13.394288301798301,26.522999999986496
312442.2437,13.790801816564288,-9.013427632740088,18.67056755682652,4.202494853544637,26.523999999975786
312442.2447,7.111056572006625,-13.624835442013651,11.50196739402227,-5.906174414639541,26.524999999965075
312442.2457,-0.16723397822644084,-18.516733869282557,3.6922208008410045,-16.625541365746436,26.526000000012573
312442.2467,-7.871620845293155,-23.551243360745946,-4.585477435502426,-27.60633065641649,26.527000000001863
312442.2477,-15.798165182694808,-28.568585401940414,-13.123734406029802,-38.46441389218483,26.527999999991152
312442.2487,-23.716091534114685,-33.39159796335555,-21.68490947157839,-48.792446632765696,26.528999999980442
312442.2497,-31.375257704519736,-37.83255726247769,-30.008088421776044,-58.174620305351986,26.529999999969732
312442.2507,-38.516137666800844,-41.70196338717072,-37.81881858112233,-66.20393181973108,26.530999999959022
312442.2517,-44.88174340438877,-44.818716913389075,-44.84105933379252,-72.50108449184981,26.53200000000652
312442.2527,-50.23068685824412,-47.020931292327774,-50.81056382287726,-76.73390345421952,26.53299999999581
312442.2537,-54.35042720278766,-48.17651134830119,-55.48873639935411,-78.63600115412639,26.5339999999851
312442.2547,-57.06967805537614,-48.19259499953268,-58.675923918908026,-78.02338098651664,26.53499999997439
312442.2557,-58.268972356964724,-47.02300858559423,-60.22310635907739,-74.80772807695718,26.53599999996368
312442.2567,-57.88849900056386,-44.67302267480856,-60.041053695613954,-69.00530454477901,26.537000000011176
312442.2577,-55.93252529024206,-41.200903337639986,-58.10620282241177,-60.74063125380298,26.538000000000466
312442.2587,-52.46998530909814,-36.716014801871495,-54.46276366687692,-50.24447909413677,26.538999999989755
312442.2597,-47.63112209727525,-31.373518962551206,-49.22086413988188,-37.84608287613957,26.539999999979045
312442.2607,-41.60039285064561,-25.3660082038706,-42.55086146317057,-23.959897662204106,26.540999999968335
312442.2617,-34.60615137054385,-18.912672868514747,-34.67425340977088,-9.067606530142925,26.541999999957625
312442.2627,-26.90788241250145,-12.246818327144453,-25.851888967445703,6.303572724174438,26.543000000005122
312442.2637,-18.78195431231356,-5.602688640110271,-16.370379726944734,21.604975335242667,26.543999999994412
312442.2647,-10.506961791241128,0.7973892493555004,-6.527733003738963,36.29150719356204,26.544999999983702
312442.2657,-2.349740878092277,6.754560437171151,3.3807446339297624,49.84608361642876,26.54599999997299
312442.2667,5.446947759057292,12.102836758415759,13.075290268051395,61.80205264916468,26.54699999996228
312442.2677,12.674243255832241,16.715669082486762,22.302441779447076,71.76234679399047,26.54800000000978
312442.2687,19.163935283432572,20.50928995360219,30.843097789947674,79.4143785711569,26.54899999999907
312442.2697,24.791848327604598,23.44270837084527,38.517537304544916,84.54003262325938,26.54999999998836
312442.2707,29.47787429404795,25.514534906454696,45.187345559562715,87.02047961813322,26.55099999997765
312442.2717,33.18296532231595,26.757091777784247,50.75447533686033,86.8359119761958,26.551999999966938
312442.2727,35.90365739879501,27.22849349592862,55.15792182104544,84.06064609904344,26.552999999956228
312442.2737,37.66489158378309,27.003548161315198,58.36868046429883,78.85432165775839,26.554000000003725
312442.2747,38.51201550991916,26.164412437506794,60.38377365369419,71.45013330691837,26.554999999993015
312442.2757,38.50287328660613,24.79192739771409,61.22016319338697,62.14113997325605,26.555999999982305
312442.2767,37.70082595809291,22.95846880238185,60.90931021395359,51.26570719951553,26.556999999971595
312442.2777,36.16939510237447,20.72297316920855,59.49300929166804,39.19305421443199,26.557999999960884
312442.2787,33.96900513112836,18.12856688283873,57.020924464804594,26.309713736186954,26.559000000008382
312442.2797,31.156038092374295,15.202952076798447,53.55001309342987,13.007490615946836,26.55999999999767
312442.2807,27.784135396490687,11.961416396663576,49.145765029308066,-0.3267481221395579,26.56099999998696
312442.2817,23.90741266542611,8.412061610595472,43.88493691374651,-13.319375751223836,26.56199999997625
312442.2827,19.58502441930055,4.562614628611515,37.85925103163257,-25.616556214176708,26.56299999996554
312442.2837,14.886348157116409,0.4280162158629577,31.17937759677427,-36.88938011545827,26.56400000001304
312442.2847,9.895969786940306,-3.9621061266928552,23.978445023549135,-46.838039187607585,26.56500000000233
312442.2857,4.717653434769154,-8.556975323406016,16.41433316678566,-55.19552994331387,26.565999999991618
312442.2867,-0.5234314977683714,-13.280018561227763,8.67009942892641,-61.73133657173896,26.566999999980908
312442.2877,-5.680783476875855,-18.026677031770195,0.952058037887232,-66.25543161426683,26.567999999970198
312442.2887,-10.589267127949656,-22.665079709813767,-6.51473812330215,-68.6227661161191,26.568999999959487
312442.2897,-15.070489641017467,-27.03971675402987,-13.493598887056269,-68.73822049207774,26.570000000006985
312442.2907,-18.94062408553694,-30.977960255830375,-19.74559306842476,-66.56177868267119,26.570999999996275
312442.2917,-22.020180528927018,-34.29900434457076,-25.040695687799513,-62.11349765237227,26.571999999985565
312442.2927,-24.145001001152814,-36.824559190296696,-29.16993081918728,-55.477696294699946,26.572999999974854
312442.2937,-25.177594992067956,-38.39045649012449,-31.957609080469943,-46.80570219779584,26.573999999964144
312442.2947,-25.017854246391654,-38.85822390419759,-33.2726939064347,-36.31648465712064,26.57500000001164
312442.2957,-23.612197065656705,-38.125671517162104,-33.03835381883644,-24.294572933074168,26.57600000000093
312442.2967,-20.96029239410818,-36.135605453050495,-31.238867604691393,-11.08480663874316,26.57699999999022
312442.2977,-17.118693441337356,-32.88193483365813,-27.923236036211403,2.9163212350273087,26.57799999997951
312442.2987,-12.200952825238856,-28.412653588327277,-23.20510067355774,17.27270725677664,26.5789999999688
312442.2997,-6.374073845105121,-22.829437630098507,-17.258855015735143,31.523760395380037,26.57999999995809
312442.3007,0.14855032020165987,-16.28387627643658,-10.312130109105482,45.20201651928426,26.581000000005588
312442.3017,7.117272775855876,-8.970628785469305,-2.635119125772109,57.85240305821256,26.581999999994878
312442.3027,14.258720389301025,-1.1180378464446346,5.472551561201801,69.05211227748542,26.582999999984168
312442.3037,21.289840316436877,7.023079455807082,13.696514715661934,78.42991464635375,26.583999999973457
312442.3047,27.932480080428746,15.19162220119964,21.722921107818507,85.68370368985411,26.584999999962747
312442.3057,33.927486380433166,23.128493588177143,29.2532452898617,90.59511701397793,26.586000000010245
312442.3067,39.04736365875059,30.588138015806923,36.017680543978805,93.04022355856635,26.586999999999534
312442.3077,43.10666814227343,37.34858801146,41.78630475168387,92.99549545777835,26.587999999988824
312442.3087,45.96951331264047,43.21945111498254,46.377402066729815,90.5385779827006,26.588999999978114
312442.3097,47.553809597085426,48.04747844875389,49.66257256997953,85.84371088393696,26.589999999967404
312442.3107,47.8321316524033,51.719588732620906,51.56853034736094,79.17201293900398,26.590999999956694
312442.3117,46.82937628043932,54.16345068586977,52.07575492795813,70.8571905617457,26.59200000000419
312442.3127,44.617618571754114,55.34593069785912,51.21439779020712,61.28754321869736,26.59299999999348
312442.3137,41.30877182726141,55.26987201212496,49.058033755823175,50.88538809006274,26.59399999998277
312442.3147,37.0457913523642,53.969772081833945,45.71597061078165,40.0851937634946,26.59499999997206
312442.3157,31.993222820419025,51.506958201469985,41.32487980430654,29.31178430851025,26.59599999996135
312442.3167,26.327879289785724,47.96482710555566,36.04048457623118,18.959945363483715,26.597000000008848
312442.3177,20.230341417835486,43.444618219075394,30.029944929888845,9.376635928013497,26.597999999998137
312442.3187,13.877824347381079,38.06204538844345,23.465424079456344,0.8467947792619641,26.598999999987427
312442.3197,7.438759504619849,31.94493606861542,16.519126634646746,-6.416552434007143,26.599999999976717
312442.3207,1.0692216932445775,25.23184115120201,9.3598869308697,-12.277505902068373,26.600999999966007
312442.3217,-5.088885062200388,18.071404910460696,2.151180181629821,-16.677786994972934,26.601999999955297
312442.3227,-10.908162364874196,10.622143539675308,-4.949747799503165,-19.632808468055824,26.603000000002794
312442.3237,-16.27500098450533,3.0521894448735605,-11.79206531750729,-21.223901285525173,26.603999999992084
312442.3247,-21.08832993766793,-4.461471634806256,-18.23135354024641,-21.587506765826383,26.604999999981374
312442.3257,-25.2583683018743,-11.734707776579068,-24.12991611223081,-20.90229082131473,26.605999999970663
312442.3267,-28.70586750727407,-18.57923028335817,-29.357824988986813,-19.375197767493617,26.606999999959953
312442.3277,-31.36221905672967,-24.807050834798595,-33.7949958958041,-17.227434544271166,26.60800000000745
312442.3287,-33.17064004361981,-30.236402094887758,-37.334409657305514,-14.681270593223053,26.60899999999674
312442.3297,-34.0884557537965,-34.69891126028806,-39.886393933853725,-11.948369743643807,26.60999999998603
312442.3307,-34.090298049935434,-38.04761663750776,-41.383677552490155,-9.220159450835922,26.61099999997532
312442.3317,-33.171854382549064,-40.16524811358241,-41.78675124832698,-6.660513897111397,26.61199999996461
312442.3327,-31.353657977875358,-40.972074189753414,-41.08893684987143,-4.400805519865339,26.613000000012107
312442.3337,-28.684323867794923,-40.43256714048902,-39.32049980817382,-2.5371868773045474,26.614000000001397
312442.3347,-25.24262063930725,-38.560163256273235,-36.55114887323462,-1.1298190776769301,26.614999999990687
312442.3357,-21.13782906371507,-35.419498619835295,-32.890354937759554,-0.203675386859603,26.615999999979977
312442.3367,-16.50797263428286,-31.1256758465108,-28.485083169368494,0.24947742372787318,26.616999999969266
312442.3377,-11.515699722694881,-25.840349363824085,-23.514754739875865,0.2682861934782966,26.617999999958556
312442.3387,-6.341833571498415,-19.76468534847903,-18.18351580965981,-0.08150411865245669,26.619000000006054
312442.3397,-1.1768603477980613,-13.129532141172307,-12.710165916057731,-0.7107063128715349,26.619999999995343
312442.3407,3.7891301743688977,-6.183400558951194,-7.316357049160523,-1.5106213790941008,26.620999999984633
312442.3417,8.377329216365741,0.8209255603288711,-2.2138904416779464,-2.3572833814769756,26.621999999973923
312442.3427,12.431050330170452,7.640173228191057,2.407914156993491,-3.116135513664912,26.622999999963213
312442.3437,15.825592137961225,14.053711547453151,6.393740716354135,-3.6472880393925133,26.62400000001071
312442.3447,18.476210961451784,19.875004693719966,9.631690239304392,-3.8114922809071614,26.625
312442.3457,20.343408035479975,24.960476468093766,12.059717913221936,-3.4768971462716074,26.62599999998929
312442.3467,21.43493687772733,29.215077603406733,13.668448611950028,-2.5265426087328127,26.62699999997858
312442.3477,21.804205232911002,32.59411756445371,14.50001736299157,-0.8664012880275418,26.62799999996787
312442.3487,21.545058666638216,35.101238624736,14.642918058404913,1.566376997522286,26.62899999995716
312442.3497,20.783260056766466,36.78274296085453,14.223194020001015,4.795511178177885,26.630000000004657
312442.3507,19.6652893912064,37.718802691735696,13.392635024113451,8.798537981447351,26.630999999993946
312442.3517,18.3453508532573,38.012358363564424,12.314925208300712,13.501347565916097,26.631999999983236
312442.3527,16.97166265646344,37.77671726861885,11.150887444924493,18.77499730142891,26.632999999972526
312442.3537,15.67319978370906,37.12297943668651,10.044071942700882,24.435432226466617,26.633999999961816
312442.3547,14.548049837584806,36.148434657758706,9.107928907822938,30.246605579209888,26.635000000009313
312442.3557,13.654426742796462,34.926986360292275,8.415686289458929,35.927292133111415,26.635999999998603
312442.3567,13.00517525741479,33.50247501512397,7.9938336147632985,41.16163447655263,26.636999999987893
312442.3577,12.566309510593877,31.885511217040346,7.819810832245281,45.6131772560456,26.637999999977183
312442.3587,12.259786790348786,30.054110222010678,7.82414367790542,48.94185015234685,26.638999999966472
312442.3597,11.970354076144986,27.95807402204967,7.896886115356487,50.82308224618977,26.639999999955762
312442.3607,11.55595175403746,25.52672493040721,7.897859627713436,50.96799332898732,26.64100000000326
312442.3617,10.860847821591065,22.679286596408115,7.669851154393296,49.14343392113874,26.64199999999255
312442.3627,9.730433947073116,19.33696168430668,7.053674772753512,45.19055307335493,26.64299999998184
312442.3637,8.026462877465946,15.435591907410044,5.90383874415709,39.04057321689249,26.64399999997113
312442.3647,5.641457674596835,10.937720087432869,4.103502801394808,30.726549116212876,26.64499999996042
312442.3657,2.5110808262675057,5.842911209760396,1.5774646620962414,20.390080550455732,26.646000000007916
312442.3667,-1.3765900283428216,0.19532685138119218,-1.6979257537962806,8.282225451072035,26.646999999997206
312442.3677,-5.975687191301867,-5.912227030321096,-5.688775426899764,-5.24179521649429,26.647999999986496
312442.3687,-11.181574452066938,-12.338264660219222,-10.302112087479902,-19.73412026173754,26.648999999975786
312442.3697,-16.83440939436002,-18.896745512919804,-15.388972972203847,-34.67161105521323,26.649999999965075
312442.3707,-22.7270293219265,-25.365156356321553,-20.751916283145306,-49.478270599634605,26.651000000012573
312442.3717,-28.616601985952556,-31.49601125981548,-26.15640075054333,-63.55157948634685,26.652000000001863
312442.3727,-34.23918828777,-37.03094015141119,-31.34517525579164,-76.29132085337731,26.652999999991152
312442.3737,-39.32614139078522,-41.71631609997006,-36.054590442334806,-87.12926786651032,26.653999999980442
312442.3747,-43.62113260773625,-45.31923985661189,-40.03160559017311,-95.55801503168793,26.654999999969732
312442.3757,-46.8965588483937,-47.64266827562198,-43.050226769869994,-101.15725765726549,26.655999999959022
312442.3767,-48.968150793890324,-48.538543227809924,-44.926177736745025,-103.61596229221503,26.65700000000652
312442.3777,-49.706758385372524,-47.917942714803445,-45.52876576888305,-102.74911642756653,26.65799999999581
312442.3787,-49.04652600393243,-45.7575209170387,-44.78914529550741,-98.5080812751151,26.6589999999851
312442.3797,-46.988962753193526,-42.10180668859327,-42.70448072579657,-90.98397298541185,26.65999999997439
312442.3807,-43.60273781878539,-37.06126339348401,-39.33783978882884,-80.40393586321315,26.66099999996368
312442.3817,-39.019358920866665,-30.806347304074816,-34.81398112148377,-67.12061360868147,26.662000000011176
312442.3827,-33.425195492950095,-23.558107615439273,-29.311506323070915,-51.59553861892479,26.663000000000466
312442.3837,-27.050562134016538,-15.576121961926166,-23.052101641054243,-34.377514548771494,26.663999999989755
312442.3847,-20.156761696397307,-7.144736022100401,-16.287777419731846,-16.07733820449205,26.664999999979045
312442.3857,-13.022087404021022,1.4413394382974463,-9.287110942999435,2.6596249004976573,26.665999999968335
312442.3867,-5.927793885586777,9.891031118976123,-2.3215049566123795,21.181440981305418,26.666999999957625
312442.3877,0.8550293960927888,17.92956406223001,4.347606888710641,38.85667035461079,26.668000000005122
312442.3887,7.076901391951884,25.309020129898084,10.479833892192891,55.09913686031067,26.668999999994412
312442.3897,12.519139432471132,31.816272925746965,15.864623293654308,69.38929346913795,26.669999999983702
312442.3907,17.000472384863848,37.27805139963177,20.327468618525995,81.29137729216936,26.67099999997299
312442.3917,20.381009532346983,41.56316353212935,23.733482549327647,90.46588219404532,26.67199999996228
312442.3927,22.563737273538365,44.582168361552824,25.98852667608183,96.67721252375758,26.67300000000978
312442.3937,23.493915091106555,46.284993919964,27.038290050144933,99.79668813268634,26.67399999999907
312442.3947,23.156882464479903,46.65714049734561,26.865847530787143,99.8013243072647,26.67499999998836
312442.3957,21.57485734921201,45.71517053802637,25.488295438920858,96.76899273948865,26.67599999997765
312442.3967,18.80330035873494,43.50216451399466,22.953052074466846,90.8706717886216,26.676999999966938
312442.3977,14.927341100493587,40.083721451319114,19.334328736182492,82.36051566915599,26.677999999956228
312442.3987,10.058626377340376,35.54491699737743,14.730135474267918,71.56442115436548,26.679000000003725
312442.3997,4.332772867862732,29.98842160883616,9.260003948396232,58.86766269086772,26.679999999993015
312442.4007,-2.0925873411098537,23.53375204270893,3.06341098565526,44.70202369189837,26.680999999982305
312442.4017,-9.039366202300926,16.31740839638505,-3.7013038305519332,29.532697292808482,26.681999999971595
312442.4027,-16.31053577253853,8.493463185348897,-10.857890419164239,13.84508811106341,26.682999999960884
312442.4037,-23.692053090830335,0.23404135736699314,-18.2134774271281,-1.8684611313558046,26.684000000008382
312442.4047,-30.955678434690537,-8.27092255948775,-25.56069988941683,-17.12205184458269,26.68499999999767
312442.4057,-37.86312841121731,-16.815233242519234,-32.68112506468442,-31.44975297303765,26.68599999998696
312442.4067,-44.171888119565416,-25.179758885023208,-39.3503199026158,-44.419236834339934,26.68699999997625
312442.4077,-49.64282538354323,-33.137814453715244,-45.34472300821417,-55.64538583544016,26.68799999996554
312442.4087,-54.04952277101495,-40.462646976462146,-50.4502571794691,-64.80357938951488,26.68900000001304
312442.4097,-57.18899393363349,-46.93679664558214,-54.47236983090022,-71.64220648215668,26.69000000000233
312442.4107,-58.893207609933064,-52.36283862320279,-57.24694578114831,-75.99379583856373,26.690999999991618
312442.4117,-59.040634188050944,-56.57477241461044,-58.6513286701255,-77.78403835265091,26.691999999980908
312442.4127,-57.56688254917537,-59.449146911600536,-58.61454008914182,-77.03791875978835,26.692999999970198
312442.4137,-54.473430363007594,-60.914912901554224,-57.12572054825819,-73.88219348482812,26.693999999959487
312442.4147,-49.83348275507518,-60.96099640198549,-54.2398471582032,-68.54355933418822,26.695000000006985
312442.4157,-43.79412652177911,-59.640691374434425,-50.079913392209406,-61.34205384864253,26.695999999996275
312442.4167,-36.57417373208541,-57.07217439299203,-44.83498024329306,-52.679503125411365,26.696999999985565
312442.4177,-28.4573934279478,-53.434731485548404,-38.75380916470156,-43.0231674701557,26.697999999974854
312442.4187,-19.781188210673374,-48.960634258828115,-32.13414026730464,-32.88510193449302,26.698999999964144
312442.4197,-10.92115221143378,-43.92297724051912,-25.308052740868288,-22.798114632094467,26.70000000001164
312442.4207,-2.272313177083747,-38.62015584406248,-18.624203290328907,-13.289535378717266,26.70100000000093
312442.4217,5.771821038807442,-33.35798872446067,-12.428047475132878,-4.85426663572948,26.70199999999022
312442.4227,12.841054122577313,-28.430736921545922,-7.0413767514223995,2.0712511867566032,26.70299999997951
312442.4237,18.609641813242035,-24.102418961917223,-2.7426261781016277,7.1324883542086175,26.7039999999688
312442.4247,22.81528111752239,-20.58984916473823,0.25059087435710903,10.076107977082662,26.70499999995809
312442.4257,25.27456256511885,-18.04873004133261,1.7953878902341855,10.763722355993176,26.706000000005588
312442.4267,25.893732529781705,-16.56391500468335,1.8328569813111184,9.179101470078834,26.706999999994878
312442.4277,24.67394522431659,-16.144642070448548,0.39191141890084996,5.428240862294101,26.707999999984168
312442.4287,21.71058879458836,-16.7251499908853,-2.4126303219824843,-0.2678158335684704,26.708999999973457
312442.4297,17.186712591609364,-18.170659543049332,-6.3876274636972274,-7.586996880747217,26.709999999962747
312442.4307,11.361025328198242,-20.288272473072077,-11.27433847961939,-16.126176270778178,26.711000000010245
312442.4317,4.5513386611346895,-22.841946957522083,-16.76535812849408,-25.42578856633192,26.711999999999534
312442.4327,-2.885336389895423,-25.570385937085998,-22.524527675109663,-34.9974442642535,26.712999999988824
312442.4337,-10.57459935249987,-28.206451118244594,-28.208359472923895,-44.352700724424494,26.713999999978114
312442.4347,-18.14682012754815,-30.496609376401306,-33.48742056398417,-53.03107871044734,26.714999999967404
312442.4357,-25.25810239133837,-32.218937444878904,-38.066150016233465,-60.62549356834755,26.715999999956694
312442.4367,-31.60863670300198,-33.198351514604795,-41.69973673216597,-66.803485538302,26.71700000000419
312442.4377,-36.95727053159304,-33.317976321435495,-44.206943262131695,-71.32296695600131,26.71799999999348
312442.4387,-41.13144931369782,-32.52589991255917,-45.4781026798491,-74.04162701776589,26.71899999998277
312442.4397,-44.03206578786228,-30.836945227334493,-45.47790925372794,-74.91961232118102,26.71999999997206
312442.4407,-45.63316068158724,-28.32949371594034,-44.24303527149166,-74.01559469337494,26.72099999996135
312442.4417,-45.97681188100351,-25.13778458747451,-41.875001206237236,-71.47680753681331,26.722000000008848
312442.4427,-45.16389912358352,-21.440453498930374,-38.52907219280991,-67.52404152708895,26.722999999998137
312442.4437,-43.34170948886887,-17.446339352009595,-34.40022343516411,-62.432909270687105,26.723999999987427
312442.4447,-40.68953505661874,-13.378757568821214,-29.707390941382908,-56.51289401868303,26.724999999976717
312442.4457,-37.40349621171115,-9.459501901469935,-24.677290930831532,-50.08577725335749,26.725999999966007
312442.4467,-33.68179974699075,-5.89379321289952,-19.529049897395943,-43.464992244285106,26.726999999955297
312442.4477,-29.711517031185465,-2.8572508739096394,-14.460745499483039,-36.93728453675054,26.728000000002794
312442.4487,-25.65775942750182,-0.48573700047192986,-9.638732451532942,-30.747794492192366,26.728999999992084
312442.4497,-21.655858122850024,1.1313610275866213,-5.190340477837813,-25.08933797076461,26.729999999981374
312442.4507,-17.8068505408719,1.9541607450318048,-1.200210835131123,-20.096280852901458,26.730999999970663
312442.4517,-14.176264716725207,1.991696948034278,2.2897863535128016,-15.8430155087018,26.731999999959953
312442.4527,-10.795905002864776,1.2980775973616914,5.277410619159418,-12.346685939514012,26.73300000000745
312442.4537,-7.668102645460509,-0.03401509684113059,7.794289975915687,-9.573502777925219,26.73399999999674
312442.4547,-4.7717229989440515,-1.8817075194504167,9.898321027022199,-7.4477629549050235,26.73499999998603
312442.4557,-2.069130040093811,-4.101344046617967,11.665103777297654,-5.862556695426491,26.73599999997532
312442.4567,0.48669728446788496,-6.538065284077591,13.179288621932333,-4.691112322772258,26.73699999996461
312442.4577,2.9456276726581967,-9.034778126010334,14.526632870150873,-3.7977933685403924,26.738000000012107
312442.4587,5.35500639276684,-11.43988942987961,15.78741216684307,-3.0479101644884774,26.739000000001397
312442.4597,7.755844093997875,-13.613372922685256,17.031627151297066,-2.3157196802253615,26.739999999990687
312442.4607,10.180737792516952,-15.430962545545858,18.316211034832886,-1.4902380829992161,26.740999999979977
312442.4617,12.653472300844605,-16.78648996858404,19.684204960774153,-0.4787531124931787,26.741999999969266
312442.4627,15.190047734166383,-17.592585627159647,21.16564996327004,0.7918290290047258,26.742999999958556
312442.4637,17.80071852611292,-17.780120934319807,22.779768959668424,2.3754589591305555,26.744000000006054
312442.4647,20.49252750714005,-17.29686934244643,24.537896221445592,4.3087474534557115,26.744999999995343
312442.4657,23.271784277607324,-16.10589751389074,26.446565180353435,6.613521688314922,26.745999999984633
312442.4667,26.14597214528872,-14.184164333326983,28.51019069598692,9.299552158800758,26.746999999973923
312442.4677,29.124666640609657,-11.521711482400846,30.73287388544657,12.36693118373226,26.747999999963213
312442.4687,32.219198698691564,-8.12168784099922,33.119004236341944,15.807706282198698,26.74900000001071
312442.4697,35.44097929893479,-4.001279003993023,35.672517398695994,19.60653643267792,26.75
312442.4707,38.798598533764924,0.8065664644509263,38.394866542084266,23.74032545218421,26.75099999998929
312442.4717,42.29399835415287,6.250889264215126,41.28195779972231,28.17697188412428,26.75199999997858
312442.4727,45.9181732870741,12.260359376144688,44.32046431151931,32.87353693163211,26.75299999996787
312442.4737,49.64695915400431,18.741298089854396,47.48405002280165,37.77425209769183,26.75399999995716
312442.4747,53.43751325008893,25.576600957775728,50.73008997959002,42.80885212761484,26.755000000004657
312442.4757,57.22606404166362,32.62604033356901,53.997461069210466,47.891718737813584,26.755999999993946
312442.4767,60.927414878717734,39.72832317512205,57.20589586603808,52.92225574401229,26.756999999983236
312442.4777,64.43653241141521,46.705123097473084,60.257249623896094,57.786793114646954,26.757999999972526
312442.4787,67.63235080875128,53.367110215248296,63.03884032846251,62.36214933273839,26.758999999961816
312442.4797,70.38369714782196,59.521787621760055,65.42880323250668,66.52078668328895,26.760000000009313
312442.4807,72.55701437292687,64.98273154662824,67.30317702222288,70.13729445091127,26.760999999998603
312442.4817,74.02534986174332,69.57964586555566,68.5442324217875,73.09575325355506,26.761999999987893
312442.4827,74.67791222302426,73.16850136915234,69.04938803522556,75.29739108032085,26.762999999977183
312442.4837,74.42939497791248,75.64095265516322,68.73995126497367,76.66785539515038,26.763999999966472
312442.4847,73.2282358975001,76.93222148282864,67.56888724290111,77.16340742370207,26.764999999955762
312442.4857,71.06303038355072,77.02670865052454,65.52686170543096,76.7753987919405,26.76600000000326
312442.4867,67.96644385819744,75.96074305721997,62.645922593941684,75.532513638387,26.76699999999255
312442.4877,64.0161613504536,73.82208532786142,59.000370024570444,73.50044035308949,26.76799999998184
312442.4887,59.33265516597941,70.74605654381335,54.704598426763454,70.77885905963885,26.76899999997113
312442.4897,54.07382135264223,66.90843774646648,49.90795613656175,67.49587218124599,26.76999999996042
312442.4907,48.42680730237293,62.515557834546925,44.786931545737495,63.80024199937881,26.771000000007916
312442.4917,42.59760047698934,57.792230876788295,39.53521552934733,59.85200736019913,26.771999999997206
312442.4927,36.799148242312306,52.96839558144168,34.352383842912104,55.812210653841355,26.772999999986496
312442.4937,31.23891193773471,48.26543110511591,29.43207147119052,51.83255977324959,26.773999999975786
312442.4947,26.106811755827145,43.883162337142736,24.950560846286184,48.045868288696596,26.774999999965075
312442.4957,21.56448752601676,39.98851968106062,21.056672366606765,44.558058246628335,26.776000000012573
312442.4967,17.736686945769097,36.70668671418892,17.86373177016734,41.44237902250652,26.777000000001863
312442.4977,14.705407810501914,34.115365308712875,15.444205445145712,38.73630464290885,26.777999999991152
312442.4987,12.507181684574055,32.24252998038219,13.827359167097184,36.44133870847567,26.778999999980442
312442.4997,11.133615543672175,31.067754583377614,13.000030428655483,34.52570213995758,26.779999999969732
312442.5007,10.53503034229956,30.526901031251576,12.910334578265292,32.92962785929108,26.780999999959022
312442.5017,10.626776778196417,30.51968791065107,13.473875774769631,31.5727611989974,26.78200000000652
312442.5027,11.29759230527782,30.919430962841115,14.581828473946063,30.362985742736477,26.78299999999581
312442.5037,12.419209066259462,31.584087334121985,16.11011257825201,29.2058774696933,26.7839999999851
312442.5047,13.856343286323302,32.367654895027194,17.928818136129063,28.01394571662835,26.78499999997439
312442.5057,15.476199029396426,33.13098298088617,19.911048897502404,26.71485110119994,26.78599999996368
312442.5067,17.15670160913908,33.75113980400237,21.94044568003799,25.257894728148287,26.787000000011176
312442.5077,18.792829395306548,34.12864496642533,23.916810454775277,23.618239685590122,26.788000000000466
312442.5087,20.300621654698407,34.1920965948073,25.759463892481445,21.798539333695842,26.788999999989755
312442.5097,21.61868365512634,33.899980025582664,27.40821147461139,19.827887280327392,26.789999999979045
312442.5107,22.707264591029432,33.23971390211996,28.82204194342794,17.7582489247652,26.790999999968335
312442.5117,23.54522408652645,32.224244365336666,29.975912080722185,15.65876138434669,26.791999999957625
312442.5127,24.125405668982157,30.88671465424424,30.85616066024124,13.608476602729967,26.793000000005122
312442.5137,24.449080965915034,29.273895673358368,31.455223124298634,11.688254280499772,26.793999999994412
312442.5147,24.520202390751646,27.43914853400687,31.766374294650273,9.972575114860875,26.794999999983702
312442.5157,24.340197750790047,25.435695574551946,31.779203765218377,8.522035320388529,26.79599999997299
312442.5167,23.90395836556311,23.31090271971408,31.476430002875,7.377202199853797,26.79699999996228
312442.5177,23.19752158750817,21.102131992754156,30.832494844787394,6.5543662309139386,26.79800000000978
312442.5187,22.19774478509416,18.834524385650294,29.814167105969414,6.04353243772383,26.79899999999907
312442.5197,20.874032153817797,16.520841494121377,28.383144666420137,5.808772143863456,26.79999999998836
312442.5207,19.191932904828064,14.163254088320414,26.500403945629394,5.790827787949434,26.80099999997765
312442.5217,17.118205172169237,11.756742715079726,24.131829778010967,5.911651170641668,26.801999999966938
312442.5227,14.626758451834782,9.293593304212317,21.254490843653624,6.080380445735299,26.802999999956228
312442.5237,11.704768430826611,6.768349058857954,17.862824754986107,6.20014066403973,26.804000000003725
312442.5247,8.358215240177383,4.182531731318271,13.973974673975327,6.174998353309702,26.804999999993015
312442.5257,4.61613515960701,1.5484759682046842,9.63157981687709,5.916417173855656,26.805999999982305
312442.5267,0.5329936895606563,-1.1082734676994677,4.907460563357027,5.348646355899017,26.806999999971595
312442.5277,-3.8112266854913837,-3.748381551652758,-0.09915807697374139,4.412616383626783,26.807999999960884
312442.5287,-8.313396547323766,-6.320124011811749,-5.2649935021038825,3.0681009849885146,26.809000000008382
312442.5297,-12.851981234625505,-8.762695726852211,-10.448465603203141,1.2941101131636774,26.80999999999767
312442.5307,-17.29381206235802,-11.011119156408109,-15.497455074217413,-0.9123178679156349,26.81099999998696
312442.5317,-21.50231912317528,-13.002242295231609,-20.258424111691266,-3.538578116982157,26.81199999997625
312442.5327,-25.346486553225077,-14.681166030204365,-24.58610302573569,-6.559735556734666,26.81299999996554
312442.5337,-28.709693743313228,-16.007362329481058,-28.352864009310952,-9.941983123113094,26.81400000001304
312442.5347,-31.497593909424374,-16.95974753907837,-31.456909443211103,-13.645766489872154,26.81500000000233
312442.5357,-33.644257431866656,-17.540060682188276,-33.82849756929859,-17.628086625474737,26.815999999991618
312442.5367,-35.11596495484365,-17.774057610840735,-35.43360477744646,-21.843621461382778,26.816999999980908
312442.5377,-35.912259328581484,-17.710252472805898,-36.27466426426232,-26.244486506911745,26.817999999970198
312442.5387,-36.06413388608518,-17.41619587267462,-36.38830176598722,-30.778661179573195,26.818999999959487
312442.5397,-35.62952021367554,-16.972547556581162,-35.84028234985457,-35.387318928077455,26.820000000006985
312442.5407,-34.68651230417881,-16.4654520035383,-34.71815818648789,-40.00148971990628,26.820999999996275
312442.5417,-33.32499742026188,-15.977930816693,-33.12233755927823,-44.53862952576743,26.821999999985565
312442.5427,-31.637532536059165,-15.58114326151911,-31.156456129569257,-48.89975366019768,26.822999999974854
312442.5437,-29.71039055845207,-15.326419269661859,-28.918005461244256,-52.96779632476667,26.823999999964144
312442.5447,-27.615692583005835,-15.238929690795336,-26.490152370722935,-56.607782667150694,26.82500000001164
312442.5457,-25.405440510463702,-15.313727882156208,-23.935566695124876,-59.66924626107248,26.82600000000093
312442.5467,-23.108077305362823,-15.514685644775815,-21.292875006151935,-61.991107056618425,26.82699999999022
312442.5477,-20.727947696490887,-15.776574317226135,-18.57609271133462,-63.40896316048901,26.82799999997951
312442.5487,-18.247735026778088,-16.010234505175774,-15.77708276999599,-63.764470620027616,26.8289999999688
312442.5497,-15.633639826424195,-16.11046565590446,-12.870776105229472,-62.91621813768515,26.82999999995809
312442.5507,-12.842773892700015,-15.965980921457808,-9.822598230464873,-60.75127782781341,26.831000000005588
312442.5517,-9.83200026055309,-15.470543016875984,-6.59730830277884,-57.19645517093734,26.831999999994878
312442.5527,-6.567280083933019,-14.534247647808673,-3.168295579444916,-52.22819168719313,26.832999999984168
312442.5537,-3.0325106953902643,-13.09386959001601,0.47368851578965937,-45.88010469795186,26.833999999973457
312442.5547,0.7631355020771893,-11.121240266811618,4.3133486755429296,-38.247282178304744,26.834999999962747
312442.5557,4.780234743748692,-8.62878193427711,8.30606389202035,-29.48667901658946,26.836000000010245
312442.5567,8.947144030694652,-5.671569319804321,12.37613020721325,-19.81326597809933,26.836999999999534
312442.5577,13.161399261428754,-2.345602616396139,16.418360374667866,-9.491937942115646,26.837999999988824
312442.5587,17.294505549140954,1.2176730668049889,20.30304098397244,1.1744387616728127,26.838999999978114
312442.5597,21.199803499184828,4.860210746072744,23.883908517631113,11.860104000679527,26.839999999967404
312442.5607,24.72277557095288,8.408849679460584,27.00849271477544,22.23356620474762,26.840999999956694
312442.5617,27.71289179488295,11.688466289392112,29.529919634650376,31.97558716235749,26.84200000000419
312442.5627,30.03591121604855,14.535628674169427,31.31909388764504,40.79661080921994,26.84299999999348
312442.5637,31.58547404821188,16.811524697068755,32.276107840029944,48.45226137526481,26.84399999998277
312442.5647,32.29284960457528,18.412977303214397,32.33976384989312,54.7556631263475,26.84499999997206
312442.5657,32.13384589638602,19.28051631624447,31.494241927840015,59.58557551211221,26.84599999996135
312442.5667,31.132126885644638,19.402730342945915,29.772187405893813,62.88967456536245,26.847000000008848
312442.5677,29.35850150798458,18.816452926692794,27.253809676807652,64.68271537748636,26.847999999998137
312442.5687,26.926115684366913,17.602713710361005,24.061944902680157,65.03974612627368,26.848999999987427
312442.5697,23.981860437710502,15.878773461187553,20.35340917484323,64.0849726010703,26.849999999976717
312442.5707,20.694669857218557,13.786925361357943,16.307318797270707,61.977254573609315,26.850999999966007
312442.5717,17.241687493384884,11.481049959071937,12.111347820739493,58.89351640348581,26.851999999955297
312442.5727,13.793499174441799,9.11212877487621,7.947101311779083,55.01154555881735,26.853000000002794
312442.5737,10.499742315299349,6.814030851499216,3.975885455235918,50.49371552461706,26.853999999992084
312442.5747,7.476394561410933,4.690876520151855,0.32614156913226866,45.47309660281574,26.854999999981374
312442.5757,4.795917232776407,2.807153324290115,-2.916319564339889,40.04321439953123,26.855999999970663
312442.5767,2.4811919738740027,1.181521434042728,-5.714383031261094,34.25239828944779,26.856999999959953
312442.5777,0.5038631200135456,-0.21507889347500603,-8.081415901598099,28.103258217387733,26.85800000000745
312442.5787,-1.212687149684731,-1.456787967197187,-10.078572120127529,21.557373164331484,26.85899999999674
312442.5797,-2.7859138113158473,-2.6558315864618445,-11.807812397871281,14.544808502249651,26.85999999998603
312442.5807,-4.362814311596464,-3.9517388317399886,-13.401218457333448,6.977643364792903,26.86099999997532
312442.5817,-6.105692610859544,-5.497684581724224,-15.007513905167697,-1.23367855417186,26.86199999996461
312442.5827,-8.176177992196042,-7.445131636119456,-16.776956293545194,-10.162628467981817,26.863000000012107
312442.5837,-10.718857531862493,-9.928106417761745,-18.845913683548076,-19.849099178882465,26.864000000001397
312442.5847,-13.845924739082514,-13.048483253875,-21.32247095822188,-30.28374303659717,26.864999999990687
312442.5857,-17.624167696556363,-16.863571822043752,-24.27432374874161,-41.395615818250334,26.865999999979977
312442.5867,-22.06542565533382,-21.377108114586772,-27.72001954468005,-53.04434659606433,26.866999999969266
312442.5877,-27.12135135813393,-26.534459054701507,-31.624314788323023,-65.01769589765418,26.867999999958556
312442.5887,-32.682953834619006,-32.22249101403195,-35.89806014684577,-77.03493404704075,26.869000000006054
312442.5897,-38.58499552553756,-38.27415529384165,-40.40263603973576,-88.75600484391003,26.869999999995343
312442.5907,-44.6149138751077,-44.47744455725095,-44.95857186618627,-99.79597567325013,26.870999999984633
312442.5917,-50.525566298879355,-50.58800849066186,-49.3576296826201,-109.74385201929849,26.871999999973923
312442.5927,-56.05079062547858,-56.34441654330809,-53.37734712498345,-118.18448655534239,26.872999999963213
312442.5937,-60.9225564651199,-61.48484617587806,-56.79683956061154,-124.72206811355848,26.87400000001071
312442.5947,-64.88837379439205,-65.76387392250001,-59.41257367399295,-129.0035525474887,26.875
312442.5957,-67.72763082621465,-68.96806107506349,-61.052849966852875,-130.74040400009778,26.87599999998929
312442.5967,-69.2656510276859,-70.92915275548476,-61.58986572967237,-129.72714862469826,26.87699999997858
312442.5977,-69.38447605508209,-71.53393523489221,-60.948458891962574,-125.85549003202324,26.87799999996787
312442.5987,-68.02967583886999,-70.7300994522755,-59.110934384262606,-119.12307402425695,26.87899999995716
312442.5997,-65.21283096371205,-68.52780994984415,-56.117719636068855,-109.6363897040721,26.880000000004657
312442.6007,-61.00969387759972,-64.99704510590334,-52.063952489571044,-97.60772051722198,26.880999999993946
312442.6017,-55.554381526197965,-60.261123006761615,-47.09244056818486,-83.34647652863055,26.881999999983236
312442.6027,-49.03025219183034,-54.48712630743779,-41.38371604018226,-67.24561439282618,26.882999999972526
312442.6037,-41.65834816746237,-47.87416302886582,-35.14411919583223,-49.76415502196583,26.883999999961816
312442.6047,-33.68442538267823,-40.64053016675406,-28.592961401464855,-31.407019151391346,26.885000000009313
312442.6057,-25.36563218293952,-33.01087431231357,-21.94983504846847,-12.703505195327287,26.885999999998603
312442.6067,-16.957842763961494,-25.20436929582198,-15.423057057756536,5.814270763700934,26.886999999987893
312442.6077,-8.704506248983066,-17.42476595779177,-9.200064657079398,23.63175923825908,26.887999999977183
312442.6087,-0.8276581581718057,-9.85293276709194,-3.440346884190016,40.270164348382444,26.888999999966472
312442.6097,6.4785187406032465,-2.642223738565236,1.7287820986100684,55.301667380059385,26.889999999955762
312442.6107,13.051474738135083,4.083288749816047,6.213552622494779,68.36121203995393,26.89100000000326
312442.6117,18.761572018255897,10.22796404689798,9.952512030654095,79.15467512603342,26.89199999999255
312442.6127,23.511249184822827,15.721618186300251,12.913193055147035,87.4635243842796,26.89299999998184
312442.6137,27.232629718040403,20.515095664610428,15.087340126988988,93.14629879258007,26.89399999997113
312442.6147,29.88422994178824,24.57515993881862,16.485446288485413,96.13741714540205,26.89499999996042
312442.6157,31.44743869111833,27.87948699561165,17.131359055105108,96.4439176529017,26.896000000007916
312442.6167,31.923378238490024,30.412472847380712,17.057636641711305,94.14075143021299,26.896999999997206
312442.6177,31.330623857958745,32.16241656514392,16.30218701911793,89.36520139388759,26.897999999986496
312442.6187,29.704074448260105,33.12043316596903,14.906518986411063,82.31088760403028,26.898999999975786
312442.6197,27.095050962454234,33.28120863899903,12.915699745867597,73.22166865078835,26.899999999965075
312442.6207,23.572478070683434,32.64545912092519,10.379873153954325,62.385578167753295,26.901000000012573
312442.6217,19.224803007182302,31.223724711404486,7.356972994407521,50.128769199151215,26.902000000001863
312442.6227,14.162147226507367,29.04094041189674,3.916090074762008,36.80929905109692,26.902999999991152
312442.6237,8.518090028314564,26.141102228569565,0.1408398148781647,22.81049202282743,26.903999999980442
312442.6247,2.4504608727831463,22.59129895482377,-3.8679591683281638,8.53358015846868,26.904999999969732
312442.6257,-3.8594269788763484,18.48441489270948,-7.990940449541506,-5.610650910225684,26.905999999959022
312442.6267,-10.209538647866884,13.939922635050655,-12.090702520651424,-19.211394261095794,26.90700000000652
312442.6277,-16.38212036225737,9.102366711028367,-16.014515158500807,-31.868571845916467,26.90799999999581
312442.6287,-22.150951781289955,4.137370105106155,-19.599321769615983,-43.20466058708056,26.9089999999851
312442.6297,-27.290602125785604,-0.7747470434513909,-22.67888282609851,-52.87725340576856,26.90999999997439
312442.6307,-31.587196951994606,-5.44739009203978,-25.092651504498885,-60.59182142787941,26.91099999996368
312442.6317,-34.8499891438391,-9.697576793490894,-26.69574850981695,-66.1139813483894,26.912000000011176
312442.6327,-36.92287237208364,-13.356531139878475,-27.369232972662516,-69.28046216561374,26.913000000000466
312442.6337,-37.694896419382864,-16.280116123208067,-27.029769450813617,-70.00792560202534,26.913999999989755
312442.6347,-37.108852657253266,-18.358208384876676,-25.637779677321443,-68.29883520919148,26.914999999979045
312442.6357,-35.16709728688233,-19.52217469228509,-23.203245696092516,-64.24369304188943,26.915999999968335
312442.6367,-31.933963442548535,-19.74974891301142,-19.788493501322737,-58.019163865146716,26.916999999957625
312442.6377,-27.534366128302835,-19.066816420696863,-15.5075198653957,-49.881870788819796,26.918000000005122
312442.6387,-22.148504280409774,-17.54587159154947,-10.521709053059203,-40.15795154938531,26.918999999994412
312442.6397,-16.002884987820686,-15.301199182984652,-5.03209460723195,-29.228784775531487,26.919999999983702
312442.6407,-9.358206510869298,-12.481115213948971,0.7313744569330055,-17.51360128627233,26.92099999997299
312442.6417,-2.4949099894056896,-9.25786068176017,6.522832767164537,-5.449957855592745,26.92199999996228
312442.6427,4.302581445477167,-5.815947709195201,12.094821113591472,6.526755816041183,26.92300000000978
312442.6437,10.761793422597808,-2.3398929578261844,17.212858974194862,18.003501913604968,26.92399999999907
312442.6447,16.63713166693393,0.9976755433995573,21.669155709109617,28.608192943848337,26.92499999998836
312442.6457,21.72271926312713,4.046589649252489,25.29440939080299,38.02552649515718,26.92599999997765
312442.6467,25.862215256279587,6.68756517300216,27.966796214260892,46.00907715395345,26.926999999966938
312442.6477,28.954940868827247,8.837850949644427,29.61748763240494,52.38894598644585,26.927999999956228
312442.6487,30.95794903029968,10.453728193960968,30.232325697865562,57.07460548036863,26.929000000003725
312442.6497,31.88401307762403,11.52977058827728,29.84961281215797,60.05294415735633,26.929999999993015
312442.6507,31.795850604423617,12.095065874304968,28.55430030002931,61.381878270906256,26.930999999982305
312442.6517,30.797207625406987,12.206867995314703,26.469160745548603,61.18022625860979,26.931999999971595
312442.6527,29.021678362740015,11.942369855439397,23.743774209358534,59.6148061508992,26.932999999960884
312442.6537,26.620304368521488,11.389439856169302,20.54232584195242,56.88589394391488,26.934000000008382
312442.6547,23.749068271652778,10.637236366361469,17.031286899188075,53.2122569435347,26.93499999999767
312442.6557,20.557366133779617,9.767596909437415,13.368026433298423,48.81694457569411,26.93599999998696
312442.6567,17.17841185518875,8.84799538007682,9.691280083044061,43.914884376837335,26.93699999997625
312442.6577,13.722310321393545,7.926681668838481,6.114197687729597,38.70310666161741,26.93799999996554
312442.6587,10.272254265542804,7.030381685959122,2.7204231756710127,33.35412987294486,26.93900000001304
312442.6597,6.883980594914584,6.164665590734813,-0.43664532834947856,28.012708267737437,26.94000000000233
312442.6607,3.5882962412155983,5.316815050907112,-3.3315801003401067,22.795806359730367,26.940999999991618
312442.6617,0.39618309453889455,4.460764266540998,-5.9620877821086244,17.795352908570784,26.941999999980908
312442.6627,-2.6942545610157644,3.563479922614036,-8.342305859571743,13.08307104959162,26.942999999970198
312442.6637,-5.689904653436323,2.592003180381811,-10.495089030288364,8.716504679577003,26.943999999959487
312442.6647,-8.594802184288838,1.5203165159792498,-12.444217230473871,4.745280771912917,26.945000000006985
312442.6657,-11.403275164780736,0.33522567301822354,-14.207435035996038,1.2166696206215788,26.945999999996275
312442.6667,-14.094907265351237,-0.9594406615278226,-15.791116679497314,-1.8203734469284525,26.946999999985565
312442.6677,-16.631932908012903,-2.3408251442825945,-17.187154439279627,-4.313294103387935,26.947999999974854
312442.6687,-18.959407471224512,-3.767501699778053,-18.372411209590773,-6.206491193871318,26.948999999964144
312442.6697,-21.00818705127947,-5.182403137114863,-19.31078732023448,-7.444367571205766,26.95000000001164
312442.6707,-22.700440433260056,-6.517947148317339,-19.957657235667618,-7.976603240315531,26.95100000000093
312442.6717,-23.957132608649637,-7.702846460985657,-20.266164124930196,-7.765094853582161,26.95199999999022
312442.6727,-24.706693560567583,-8.669896085935562,-20.194647239694227,-6.791784476349798,26.95299999997951
312442.6737,-24.893941533492477,-9.363910271067637,-19.714340791306252,-5.066461025650687,26.9539999999688
312442.6747,-24.48828178323174,-9.748946997608215,-18.81643793039722,-2.6335745269630393,26.95499999995809
312442.6757,-23.490255194275477,-9.814012915614924,-17.517664466112155,0.4228389951885682,26.956000000005588
312442.6767,-21.935661050021817,-9.57658151933587,-15.863649128894327,3.976871339431185,26.956999999994878
312442.6777,-19.89670959473032,-9.083468303535808,-13.929596016984478,7.861611549042127,26.957999999984168
312442.6787,-17.479949367346315,-8.408867387531755,-11.818037899586912,11.873399370663758,26.958999999973457
312442.6797,-14.821032154525481,-7.649638160548658,-9.653748116098773,15.779375934655018,26.959999999962747
312442.6807,-12.076692401997265,-6.918208885729798,-7.576182986110569,19.32793441213438,26.961000000010245
312442.6817,-9.414596064636223,-6.333708376666059,-5.730085469361186,22.261398555058094,26.961999999999534
312442.6827,-7.001927931375072,-6.012121739043195,-4.255077473838124,24.33004447669049,26.962999999988824
312442.6837,-4.9937148456386895,-6.056372689377959,-3.275182326492997,25.30645079056295,26.963999999978114
312442.6847,-3.5219122144168513,-6.547252058184945,-2.889238662015548,24.99912569365374,26.964999999967404
312442.6857,-2.6862101191894316,-7.536037825293006,-3.1630902642893366,23.26441858284224,26.965999999956694
312442.6867,-2.5473508640682923,-9.039493811923316,-4.124271046981527,20.015870656269573,26.96700000000419
312442.6877,-3.1235089964318465,-11.037707904990869,-5.759667279485911,15.230377531323068,26.96799999999348
312442.6887,-4.389992377563551,-13.4749592393553,-8.016354515942716,8.950804474203101,26.96899999998277
312442.6897,-6.282208433240742,-16.263514464891262,-10.805503375507294,1.2849845368750297,26.96999999997206
312442.6907,-8.701534887542014,-19.28997513957121,-14.008957015863848,-7.598686406400825,26.97099999996135
312442.6917,-11.523469414084001,-22.423559218641536,-17.4878331265015,-17.478592624705744,26.972000000008848
312442.6927,-14.607233743356158,-25.52552327500164,-21.092319492062188,-28.089518309010703,26.972999999998137
312442.6937,-17.805893962792457,-28.458835751512375,-24.671732756670227,-39.13375805557847,26.973999999987427
312442.6947,-20.976040408482895,-31.09720432162305,-28.083904465259216,-50.292886675984676,26.974999999976717
312442.6957,-23.986148339291034,-33.332642419836716,-31.203046769157947,-61.23939153260402,26.975999999966007
312442.6967,-26.72290549112616,-35.08092234928523,-33.925422921340925,-71.64747720177023,26.976999999955297
312442.6977,-29.09502693119819,-36.28448824105413,-36.17238698012648,-81.20251612068827,26.978000000002794
312442.6987,-31.034356836291142,-36.9126684438481,-37.8906385239753,-89.60881998714278,26.978999999992084
312442.6997,-32.49435205499226,-36.95930667561459,-39.049833072752115,-96.59562205828699,26.979999999981374
312442.7007,-33.44632333221903,-36.43819628216897,-39.6379674723805,-101.92136657770008,26.980999999970663
312442.7017,-33.87404825359501,-35.376925620249125,-39.6551935859062,-105.37657663403445,26.981999999959953
312442.7027,-33.76754114635007,-33.8099025032616,-39.10687955570381,-106.78569808503167,26.98300000000745
312442.7037,-33.11685201778343,-31.771405769699676,-37.9968187275629,-106.00838267745215,26.98399999999674
312442.7047,-31.906760287350824,-29.289504212251604,-36.321473514746444,-102.94067276924304,26.98499999998603
312442.7057,-30.113130069580322,-26.3815878693448,-34.06603568873122,-97.51648480955531,26.98599999997532
312442.7067,-27.70151183484964,-23.05208317172067,-31.2028956078129,-89.70966742561542,26.98699999996461
312442.7077,-24.6283284263475,-19.292688527013695,-27.692858730440033,-79.53674691239067,26.988000000012107
312442.7087,-20.844696159239632,-15.0851936064914,-23.489152898786664,-67.06028680361645,26.989000000001397
312442.7097,-16.30263270532607,-10.40666079060764,-18.543962996125533,-52.39260022224447,26.989999999990687
312442.7107,-10.963122654641571,-5.236479220643104,-12.816940835584555,-35.699385510966636,26.990999999979977
312442.7117,-4.8052774801907905,0.4354223546652246,-6.284896313574798,-17.202727207544424,26.991999999969266
312442.7127,2.164336743956518,6.600075227884408,1.0482943665796896,2.817167903477617,26.992999999958556
312442.7137,9.903205604567814,13.221628009535612,9.142608044443053,24.022135110376972,26.994000000006054
312442.7147,18.326185982040407,20.231087874815763,17.9146469570804,46.0186853640567,26.994999999995343
312442.7157,27.301498863975542,27.522460546018895,27.233170132795596,68.36354126589708,26.995999999984633
312442.7167,36.650047918462434,34.95190826184703,36.91807931591541,90.57231312162384,26.996999999973923
312442.7177,46.148439703980124,42.34028268912802,46.743271136377004,112.13131341423514,26.997999999963213
312442.7187,55.53576034749749,49.479084610516544,56.44343545305961,132.5122456546912,26.99900000001071
312442.7197,64.52382787552533,56.139582817687526,65.72453026847123,151.18924192867993,27.0
312442.7207,72.81032067015263,62.084521371272935,74.27732879583657,167.65748721818497,27.00099999998929
312442.7217,80.09391103084346,67.08158658318588,81.79314571045376,181.45248080634,27.00199999997858
312442.7227,86.09033462558061,70.91761805302379,87.9806348939408,192.16886496400554,27.00299999996787
312442.7237,90.54822098045766,73.41245059680448,92.58243090318811,199.4777120142749,27.00399999995716
312442.7247,93.26350761088052,74.43127619212213,95.39039293943817,203.14120886337548,27.005000000004657
312442.7257,94.09136164557603,73.89451779397415,96.25830514530132,203.02381128863766,27.005999999993946
312442.7267,92.95472862630591,71.78440101657984,95.1110821941408,199.09914891256577,27.006999999983236
312442.7277,89.8489003568811,68.14767736632623,91.94980643428725,191.45222907669014,27.007999999972526
312442.7287,84.8418167897184,63.09426902122136,86.85225665951275,180.27679153132343,27.008999999961816
312442.7297,78.07016084783427,56.79194055749026,79.9689480560148,165.86798042973234,27.010000000009313
312442.7307,69.73163792909504,49.45742631939442,71.51505502848953,148.61079913213976,27.010999999998603
312442.7317,60.07412315994347,41.34472349631491,61.75890150248684,128.96507199663623,27.011999999987893
312442.7327,49.3825831283509,32.731474886697264,51.007949151768756,107.44783483598263,27.012999999977183
312442.7337,37.96481553562086,23.90449301530556,39.59337180592688,84.61419710576388,27.013999999966472
312442.7347,26.137089304072937,15.145508466746653,27.854361776966353,61.03775640593346,27.014999999955762
312442.7357,14.210708071836578,6.718159165031577,16.123268511176878,37.29159955178784,27.01600000000326
312442.7367,2.48037015933006,-1.1429175836674355,4.712529206854494,13.930801935002291,27.01699999999255
312442.7377,-8.785024936125598,-8.240255180221064,-6.09586878114177,-8.52284752000444,27.01799999998184
312442.7387,-19.34874580799326,-14.418629735339815,-16.05792917387409,-29.593395307772607,27.01899999997113
312442.7397,-29.009689908214238,-19.566968979077714,-24.972029290901474,-48.86029226904959,27.01999999996042
312442.7407,-37.60313638132035,-23.617319348782313,-32.680280354910984,-65.96497136030561,27.021000000007916
312442.7417,-44.99923949904066,-26.54134213098309,-39.06726824479402,-80.61464006906692,27.021999999997206
312442.7427,-51.099898372649506,-28.344998977300296,-44.05678558829484,-92.58366579065705,27.022999999986496
312442.7437,-55.834747603911765,-29.062199459787607,-47.60729752287448,-101.71304725326952,27.023999999975786
312442.7447,-59.15703531679342,-28.74820978689701,-49.706927501463866,-107.90851518305024,27.024999999965075
312442.7457,-61.040089656678816,-27.47356249657283,-50.36870475470848,-111.13779077448258,27.026000000012573
312442.7467,-61.474931417355705,-25.319070790339318,-49.62668920898429,-111.42745773829111,27.027000000001863
312442.7477,-60.46938600914812,-22.37235484773424,-47.53339883839189,-108.85978504101003,27.027999999991152
312442.7487,-58.048805735922684,-18.726053609872487,-44.158731163473306,-103.56968952623761,27.028999999980442
312442.7497,-54.25826027201534,-14.477650378015088,-39.590321594201406,-95.74186948798479,27.029999999969732
312442.7507,-49.165817249760124,-9.730611233842998,-33.935044578156635,-85.60799147664375,27.030999999959022
312442.7517,-42.866342008206736,-4.5963469201657805,-27.321165510189054,-73.44369113375726,27.03200000000652
312442.7527,-35.48511728686924,0.8036179093462373,-19.90051424613519,-59.56506930197883,27.03299999999581
312442.7537,-27.180534732563373,6.335935183118256,-11.849990452056417,-44.32433689802036,27.0339999999851
312442.7547,-18.145147096793885,11.854820000154024,-3.3717344165852383,-28.104290221784673,27.03499999997439
312442.7557,-8.604490692494684,17.20305965217654,5.308596965280354,-11.311380586482226,27.03599999996368
312442.7567,1.186718761564688,22.214992989647037,13.945830537629611,5.632729382312287,27.037000000011176
312442.7577,10.951165652745651,26.721579268553015,22.281701151625,22.301068589006217,27.038000000000466
312442.7587,20.398159380420605,30.557419994990102,30.053581870768106,38.272486788936845,27.038999999989755
312442.7597,29.235092763468792,33.56934143634866,37.00513185917041,53.143601662990996,27.039999999979045
312442.7607,37.18046500341673,35.62591652269305,42.89822661991927,66.54100080769516,27.040999999968335
312442.7617,43.97759424634147,36.62712780764894,47.52533743876667,78.133021796721,27.041999999957625
312442.7627,49.408011562185344,36.51326837698802,50.721400088507146,87.64037455367742,27.043000000005122
312442.7637,53.30348295931386,35.272158818896166,52.3741723531923,94.84487668762057,27.043999999994412
312442.7647,55.55565610979458,32.9438312532997,52.43213304602118,99.59564847628114,27.044999999983702
312442.7657,56.12247223071975,29.62199283451917,50.90912043881874,101.81225748003108,27.04599999997299
312442.7667,55.03071072973624,25.451819314435834,47.885135118757724,101.48450419614942,27.04699999996228
312442.7677,52.374326486792505,20.623924684067298,43.503022969088015,98.66878431011234,27.04800000000978
312442.7687,48.30857227672406,15.364680050467948,37.96108351349201,93.4812294276936,27.04899999999907
312442.7697,43.0402428096053,9.923384416639573,31.501988257202637,86.08809271666863,27.04999999998836
312442.7707,36.814701429646256,4.55709145130334,24.398712200820523,76.69408342709771,27.05099999997765
312442.7717,29.900625993636876,-0.48585910927365605,16.938449814744576,65.5295407364428,27.051999999966938
312442.7727,22.573611003446157,-4.982393456622343,9.40567875716705,52.8374523467957,27.052999999956228
312442.7737,15.099869154801173,-8.750062618866753,2.065631181690689,38.8613521764768,27.054000000003725
312442.7747,7.7212757978328534,-11.659975132098285,-4.85057738945796,23.83506739664373,27.054999999993015
312442.7757,0.6428925668982496,-13.64622094760604,-11.158029431459283,7.975129730162054,27.055999999982305
312442.7767,-5.9761003587255574,-14.710951669890962,-16.726382130874143,-8.523569939191576,27.056999999971595
312442.7777,-12.027422977157746,-14.924607556368882,-21.483923714170594,-25.4886020251297,27.057999999960884
312442.7787,-17.454371053631977,-14.421158089722423,-25.41704919668052,-42.767345411102546,27.059000000008382
312442.7797,-22.248227269798747,-13.388618619449344,-28.565276252104187,-60.22125191933094,27.05999999999767
312442.7807,-26.440852544304526,-12.055486580231467,-31.012294392642207,-77.71773143304691,27.06099999998696
312442.7817,-30.09422808786757,-10.674073983259309,-32.873871371423476,-95.12061720359634,27.06199999997625
312442.7827,-33.2879751273739,-9.501968958501145,-34.28369983892491,-112.28034441477591,27.06299999996554
312442.7837,-36.10604270376629,-8.7830153850603,-35.37843133937788,-129.02504699172144,27.06400000001304
312442.7847,-38.623809734670274,-8.729242054541215,-36.283198886588714,-145.15373800199097,27.06500000000233
312442.7857,-40.896790832060574,-9.505097358349138,-37.09886885910989,-160.432588110549,27.065999999991618
312442.7867,-42.95197184364448,-11.215158592739813,-37.89209362899249,-174.59506516289537,27.066999999980908
312442.7877,-44.782546354282374,-13.89620292654016,-38.68897406874423,-187.34636644936165,27.067999999970198
312442.7887,-46.34650250127394,-17.514174560732826,-39.47281030399173,-198.37219177973373,27.068999999959487
312442.7897,-47.5691506137697,-21.966190438447434,-40.18605044629233,-207.35150372523503,27.070000000006985
312442.7907,-48.34931978009182,-27.08732913797769,-40.73617447254916,-213.9725370713826,27.070999999996275
312442.7917,-48.568618863315656,-32.66157855042692,-41.00490784901829,-217.95098743322495,27.071999999985565
312442.7927,-48.102884904265395,-38.43600887813259,-40.85987764210531,-219.04905963473732,27.072999999974854
312442.7937,-46.83475340174571,-44.13701386083429,-40.16762732148938,-217.0939133299345,27.073999999964144
312442.7947,-44.66619651535077,-49.487342370718714,-38.80681149535653,-211.9940207515329,27.07500000001164
312442.7957,-41.52989305232884,-54.222632535861656,-36.680404924335704,-203.75205324343742,27.07600000000093
312442.7967,-37.398414416409565,-58.106259209585374,-33.725877668475626,-192.4731323542635,27.07699999999022
312442.7977,-32.29042030999683,-60.94150106689048,-29.92249684877461,-178.36760047707185,27.07799999997951
312442.7987,-26.27333570174461,-62.58030561040423,-25.295193823716787,-161.7478592840183,27.0789999999688
312442.7997,-19.462299390602627,-62.928252206712685,-19.91475621165892,-143.01925897453387,27.07999999995809
312442.8007,-12.015504238735218,-61.94565437078927,-13.894436491526656,-122.66546139552652,27.081000000005588
312442.8017,-4.1263593399882055,-59.64507128635422,-7.38338191477446,-101.22910865347376,27.081999999994878
312442.8027,3.9868328934426107,-56.08578533296264,-0.5575557466022483,-79.28897190969833,27.082999999984168
312442.8037,12.092799363348654,-51.36602217858418,6.390985838902983,-57.43500439167571,27.083999999973457
312442.8047,19.959826993223803,-45.61382471112659,13.265489597936456,-36.24285833450744,27.084999999962747
312442.8057,27.367897023167288,-38.97753218855701,19.875589361929176,-16.249437759815745,27.086000000010245
312442.8067,34.1194973749353,-31.61676128605045,26.047174023802054,2.0690511594044714,27.086999999999534
312442.8077,40.04834809366948,-23.694645237696296,31.630297131778036,18.315310978664986,27.087999999988824
312442.8087,45.02549917219673,-15.371878256607696,36.50461216599974,32.18449340688626,27.088999999978114
312442.8097,48.962524684885985,-6.802858527421957,40.58208397257639,43.47250691901279,27.089999999967404
312442.8107,51.81181533285002,1.866048065638214,43.807005949729806,52.07892472605383,27.090999999956694
312442.8117,53.56423580634823,10.496360876919674,46.153616391693696,58.00471286380051,27.09200000000419
312442.8127,54.244638409537785,18.955912423956004,47.62182996383612,61.34534260117341,27.09299999999348
312442.8137,53.905889252844915,27.116469232524274,48.23176028461236,62.28012544766282,27.09399999998277
312442.8147,52.622153536209844,34.851245835229044,48.017792345294815,61.058792125388706,27.09499999997206
312442.8157,50.482195317867834,42.03300931987943,47.022962317649856,57.98641770931637,27.09599999996135
312442.8167,47.5833762691905,48.53338493098985,45.2943190360336,53.407772710254406,27.097000000008848
312442.8177,44.02689683501255,54.22381208832477,42.87978620289737,47.692063249841105,27.097999999998137
312442.8187,39.91462846991485,58.97838231524502,39.82683444134252,41.2188306808506,27.098999999987427
312442.8197,35.34765895354889,62.678539417373656,36.18303041313952,34.36553701589996,27.099999999976717
312442.8207,30.426438989055846,65.21936486520843,31.998282208860704,27.49709658836429,27.100999999966007
312442.8217,25.252202713088664,66.51693566395546,27.328372589674924,20.95735690394544,27.101999999955297
312442.8227,19.929160797782824,66.51605410332193,22.23918892018642,15.062311057205672,27.103000000002794
312442.8237,14.566851615400374,65.19753020949206,16.81094086068416,10.094663806988617,27.103999999992084
312442.8247,9.281996337391455,62.584163260662976,11.141617715615906,6.29928942900058,27.104999999981374
312442.8257,4.199243123442028,58.744624816360684,5.348982505231425,3.8791187258530715,27.105999999970663
312442.8267,-0.5496992343546863,53.79458963960942,-0.4294734954823568,2.9910722612118046,27.106999999959953
312442.8277,-4.8288577120225975,47.89468089964344,-6.03899508626369,3.741804803068154,27.10800000000745
312442.8287,-8.502813975196506,41.24507233258057,-11.312577212166644,6.183221918830037,27.10899999999674
312442.8297,-11.443387714275529,34.076896615818185,-16.078384018094123,10.307947713116993,27.10999999998603
312442.8307,-13.537778443790604,26.64091639793916,-20.16915301982756,16.045134001320484,27.11099999997532
312442.8317,-14.697541331275316,19.194191770755744,-23.432918194345433,23.25717722521649,27.11199999996461
312442.8327,-14.867607695502736,11.985697299037113,-25.744194245157342,31.738025042145985,27.113000000012107
312442.8337,-14.034468727357075,5.241979990935704,-27.01464863604896,41.213790884060835,27.114000000001397
312442.8347,-12.232634056713232,-0.8460087411428934,-27.202262229314385,51.34634136463642,27.114999999990687
312442.8357,-9.548559018822358,-6.13383539158429,-26.318048950942043,61.74037728722692,27.115999999979977
312442.8367,-6.121401021655923,-10.531349954951214,-24.42956602776557,71.95430309962572,27.116999999969266
312442.8377,-2.140202941089215,-14.006630753039087,-21.66068618779543,81.51488997140237,27.117999999958556
312442.8387,2.1626106695317078,-16.585755826494786,-18.18740109718427,89.93540966381764,27.119000000006054
312442.8397,6.521226590151631,-18.34839582326651,-14.229754577897141,96.73658042777254,27.119999999995343
312442.8407,10.649419605708673,-19.419575169346373,-10.040334722436326,101.46935475206725,27.120999999984633
312442.8417,14.255733265029066,-19.958271792103044,-5.890055256692091,103.7383232324953,27.121999999973923
312442.8427,17.059870967171275,-20.143790697798003,-2.0522001790405175,103.22433630489382,27.122999999963213
312442.8437,18.809170164589144,-20.161028677527153,1.2141312168040115,99.70487638121864,27.12400000001071
312442.8447,19.293993233214536,-20.18582961040941,3.6799749367400936,93.07075843263172,27.125
312442.8457,18.360928214336315,-20.371605037553888,5.160680398831232,83.33789853320128,27.12599999998929
312442.8467,15.922846575700435,-20.838265866290577,5.527283611585359,70.65315816974633,27.12699999997858
312442.8477,11.965099903597576,-21.664291049389988,4.714265995879528,55.293628401261586,27.12799999996787
312442.8487,6.547432007759335,-22.88246922603739,2.7231793773934423,37.6591352927161,27.12899999995716
