TimeStamp,ECR,FCR,ECU,FCU,time_index
312451.7197,45.96014254052969,44.79866749676098,37.47005727242642,31.01261431552038,36.0
312451.7207,43.36263829985496,43.83702005623411,38.896779518588765,32.583161648096265,36.00099999998929
312451.7217,39.972222537819576,42.27452083909991,39.90249366528122,33.72756014082884,36.00199999997858
312451.7227,35.859120540641136,40.12910944557653,40.50780373240965,34.425039659946,36.00299999996787
312451.7237,31.114595171828036,37.43525077826806,40.73638757492061,34.66599672556434,36.00399999995716
312451.7247,25.850033750637447,34.24482060822001,40.615188298507476,34.45377181021938,36.00500000000466
312451.7257,20.1944636205072,30.626553643597283,40.17412768626241,33.805170790909976,36.005999999993946
312451.7267,14.290550063008384,26.664051912099637,39.44529953760125,32.74969907303448,36.006999999983236
312451.7277,8.289290856626105,22.452503399951897,38.461683285005364,31.32762297212336,36.007999999972526
312451.7287,2.343763841842443,18.09439606334336,37.25549721614427,29.587103801314374,36.008999999961816
312451.7297,-3.3976076831006754,13.694616398446998,35.85637607133429,27.580751600055248,36.01000000000931
312451.7307,-8.797743751286292,9.355383817799542,34.289600897468944,25.36200648727655,36.0109999999986
312451.7317,-13.73701202340976,5.171485593548944,32.57462332846451,22.98176944283637,36.01199999998789
312451.7327,-18.118252511297914,1.226240628156656,30.724108675116796,20.48566917118226,36.01299999997718
312451.7337,-21.870321739221254,-2.411462372225691,28.74367290852892,17.91227115073495,36.01399999996647
312451.7347,-24.949890805277136,-5.688826821006378,26.632412335924553,15.29241762780004,36.01499999995576
312451.7357,-27.341395006390293,-8.569429315384593,24.384229636007007,12.64974600028828,36.01600000000326
312451.7367,-29.055206901920464,-11.032192164927725,21.98985688228445,10.002283503986602,36.01699999999255
312451.7377,-30.12427176782015,-13.069264805940895,19.439377769644956,7.364875386121916,36.01799999998184
312451.7387,-30.599586700274482,-14.683152154648184,16.724970141976303,4.752088287385724,36.01899999997113
312451.7397,-30.545006937082576,-15.883510242478158,13.843537373109676,2.1811544250758814,36.01999999996042
312451.7407,-30.031914127435954,-16.684063519135655,10.79888164465008,-0.32550455150667185,36.021000000007916
312451.7417,-29.134275478461912,-17.100079221328592,7.603098216059294,-2.738607611938124,36.021999999997206
312451.7427,-27.924560145356395,-17.146763148604883,4.276937274869092,-5.0215510649949335,36.022999999986496
312451.7437,-26.470866189058615,-16.838824775248117,0.8489839365187367,-7.131377547672458,36.023999999975786
312451.7447,-24.835459649869147,-16.19130970802337,-2.6463619970720655,-9.02124159446041,36.024999999965075
312451.7457,-23.07475280757196,-15.221629885980548,-6.1719798662070335,-10.644257037840651,36.02600000001257
312451.7467,-21.240570182712098,-13.952554773824792,-9.69192526618557,-11.958433494245433,36.02700000000186
312451.7477,-19.382387647826107,-12.41577875971542,-13.17573407989463,-12.932251653441323,36.02799999999115
312451.7487,-17.550100225878484,-10.655568189543022,-16.602643896279854,-13.550307959359673,36.02899999998044
312451.7497,-15.796792638518903,-8.73192981656097,-19.96519577803797,-13.818393154962301,36.02999999996973
312451.7507,-14.180963570652136,-6.722739989018589,-23.271686317838633,-13.767365761757873,36.03099999995902
312451.7517,-12.767694250163366,-4.724333886713507,-26.54700512748528,-13.455244565647517,36.03200000000652
312451.7527,-11.628352257812386,-2.850173509056394,-29.83151437533515,-12.967070741966154,36.03299999999581
312451.7537,-10.83857417011176,-1.2273827260464842,-33.17779690825167,-12.412271100083696,36.0339999999851
312451.7547,-10.474461801589458,0.008857065348215306,-36.645304602476955,-11.919474072704663,36.03499999997439
312451.7557,-10.607138190512615,0.7228350242231507,-40.29316111302555,-11.62897007907746,36.03599999996368
312451.7567,-11.296020083844716,0.7873292467033143,-44.17159228110025,-11.683245576867689,36.037000000011176
312451.7577,-12.581351764333274,0.09349026784311042,-48.31265099715613,-12.216232576179467,36.038000000000466
312451.7587,-14.476690158240848,-1.4391809928266108,-52.721050001000876,-13.342081123954756,36.038999999989755
312451.7597,-16.9621161134585,-3.8536141217310753,-57.36599760490321,-15.144363281021748,36.039999999979045
312451.7607,-19.978959497306146,-7.147570507031571,-62.17493434928906,-17.666640758554582,36.040999999968335
312451.7617,-23.426760775947134,-11.268455722214364,-67.02998657162938,-20.90526877912993,36.041999999957625
312451.7627,-27.163050771247697,-16.111186041616232,-71.76778710403974,-24.80516762126059,36.04300000000512
312451.7637,-31.006322605638417,-21.519537534705638,-76.18307345153755,-29.259080207835996,36.04399999999441
312451.7647,-34.74231164272667,-27.2911411661239,-80.03617739591374,-34.11056569912523,36.0449999999837
312451.7657,-38.13341240172653,-33.18599386718265,-83.06419122721418,-39.160677896534665,36.04599999997299
312451.7667,-40.93077167490513,-38.93805918511852,-84.99526353547188,-44.17796979855323,36.04699999996228
312451.7677,-42.88833159729432,-44.26925865808263,-85.56517245248185,-48.911179790998126,36.04800000000978
312451.7687,-43.77788128647561,-48.90493204107469,-84.53507610676317,-53.10371741963365,36.04899999999907
312451.7697,-43.40403326794852,-52.589692700107754,-81.7091744328762,-56.508900365981134,36.04999999998836
312451.7707,-41.617987581656514,-55.10253971407604,-76.95095211073382,-58.90481582724595,36.05099999997765
312451.7717,-38.32899073470433,-56.27011863289589,-70.19671909501369,-60.10769771907779,36.05199999996694
312451.7727,-33.51253808010676,-55.97714794238406,-61.465322507207524,-59.98282570162563,36.05299999995623
312451.7737,-27.214597112635776,-54.173238766539086,-50.863160730648,-58.45215354619804,36.054000000003725
312451.7747,-19.551427377946577,-50.87561375501762,-38.5839668832286,-55.49814499600491,36.054999999993015
312451.7757,-10.704914953574217,-46.167553398804955,-24.903216172549776,-51.163610455228245,36.055999999982305
312451.7767,-0.9136957714802375,-40.19273570862586,-10.167416566789084,-45.54766856989872,36.056999999971595
312451.7777,9.539319569213754,-33.14595805021213,5.221070571144735,-38.798272443966304,36.057999999960884
312451.7787,20.342117285370062,-25.261008883651325,20.822697532856942,-31.102011685223516,36.05900000000838
312451.7797,31.170331966908098,-16.796667116263293,36.18164742470055,-22.672103848147128,36.05999999999767
312451.7807,41.70434344939275,-8.021929136423468,50.8476104895851,-13.735604108275718,36.06099999998696
312451.7817,51.645472211035575,0.798411930877382,64.39698882825597,-4.520880773570676,36.06199999997625
312451.7827,60.73012194517592,9.416784528259114,76.45217360220553,4.753673322641761,36.06299999996554
312451.7837,68.74091162693043,17.613568883923307,86.69771888212765,13.888887745580481,36.06400000001304
312451.7847,75.51411271084402,25.20489120061062,94.89250289142656,22.711446755243994,36.06500000000233
312451.7857,80.94303402741279,32.04712078022295,100.87729455297843,31.077610959208286,36.06599999999162
312451.7867,84.97734662107557,38.038016888626494,104.57750062235198,38.87402489860725,36.06699999998091
312451.7877,87.61868060109225,43.11477121252683,106.00122459517353,46.01588610817996,36.0679999999702
312451.7887,88.91312500055537,47.249453845263695,105.2330930666377,52.44298937899413,36.06899999995949
312451.7897,88.9414931696367,50.44257204657159,102.42457282660673,58.11433510096128,36.070000000006985
312451.7907,87.80836096242741,52.715574391866,97.78169382373734,63.00208746168275,36.070999999996275
312451.7917,85.63093232425689,54.103169412261096,91.55119830699299,67.08568014307727,36.071999999985565
312451.7927,82.52873587246299,54.64627736847215,84.00615247909772,70.34679607679982,36.072999999974854
312451.7937,78.61501513162045,54.38630497100557,75.43198949905435,72.7658042656793,36.073999999964144
312451.7947,73.99046096888782,53.361241720376036,66.11381428027755,74.32003815622834,36.07500000001164
312451.7957,68.73967059038468,51.60384478775737,56.3256092059348,74.98406906037192,36.07600000000093
312451.7967,62.930430227020224,49.14193193562387,46.32175685659555,74.73188969676477,36.07699999999022
312451.7977,56.615636526661454,46.00056447071743,36.331063419520795,73.54070195075951,36.07799999997951
312451.7987,49.83742123098729,42.20569825511511,26.553245862059086,71.3958216737253,36.0789999999688
312451.7997,42.63284739011857,37.78872975303079,17.15765551086645,68.29608916648397,36.07999999995809
312451.8007,35.040419490336156,32.791279307321965,8.283864313062145,64.25911790916231,36.08100000000559
312451.8017,27.10660334679916,27.26954152389178,0.043646388816910804,59.325729805360986,36.08199999999488
312451.8027,18.89158537559458,21.29759150042777,-7.476150526639682,53.56300899605497,36.08299999998417
312451.8037,10.473608109750055,14.969157284775484,-14.210334030438876,47.06554770912215,36.08399999997346
312451.8047,1.9513860188866554,8.397539014182922,-20.112125721506136,39.954640735185365,36.08499999996275
312451.8057,-6.555685859700484,1.7135549602764648,-25.150283177623095,32.37539039924965,36.086000000010245
312451.8067,-14.909590082091128,-4.938396838267828,-29.306801663506402,24.49189020759549,36.086999999999534
312451.8077,-22.957846718215944,-11.405876702272067,-32.57528769299849,16.48084216046838,36.087999999988824
312451.8087,-30.539409967314505,-17.53509228121333,-34.95997885097779,8.524112096283718,36.088999999978114
312451.8097,-37.49177900598213,-23.178172356642186,-36.47528502295989,0.8008256803138851,36.089999999967404
312451.8107,-43.65869898960363,-28.200399899057913,-37.14565440369341,-6.520353519450576,36.09099999995669
312451.8117,-48.89778955009693,-32.48678117616769,-37.00552887004684,-13.288145323784194,36.09200000000419
312451.8127,-53.08746356903286,-35.94739036359167,-36.09914924656897,-19.374236030890966,36.09299999999348
312451.8137,-56.132583365884116,-38.521044645529656,-34.47999976071857,-24.6771157588979,36.09399999998277
312451.8147,-57.96843434017294,-40.17702101616736,-32.209737502221984,-29.123928220561655,36.09499999997206
312451.8157,-58.56276307113091,-40.914707209853006,-29.35652944315113,-32.6702762282558,36.09599999996135
312451.8167,-57.91581086635265,-40.76126777957801,-25.992807450709606,-35.29811309481034,36.09700000000885
312451.8177,-56.05845681832729,-39.76758444095523,-22.192541005161615,-37.01202134498416,36.09799999999814
312451.8187,-53.04874940068022,-38.002880924323186,-18.028208544286862,-37.83432024798748,36.09899999998743
312451.8197,-48.967237638057156,-35.54855310175248,-13.567713045266567,-37.799540251319044,36.09999999997672
312451.8207,-43.91160059901098,-32.49178546221162,-8.871528828075187,-36.948847246896854,36.10099999996601
312451.8217,-37.99111053675835,-28.9195402701214,-3.990379924916772,-35.32498934308852,36.1019999999553
312451.8227,-31.321448525475564,-24.913456256427715,1.0362666095170947,-32.968275060419586,36.103000000002794
312451.8237,-24.020324965093796,-20.546094749153035,6.180656189471687,-29.91398098082269,36.103999999992084
312451.8247,-16.204248467931585,-15.87883247244949,11.425989331171195,-26.19143933817438,36.10499999998137
312451.8257,-7.986646767107147,-10.961535031826626,16.76438682805114,-21.82488544965803,36.10599999997066
312451.8267,0.5226135758353972,-5.8339688109552705,22.193625272926738,-16.83596676902198,36.10699999995995
312451.8277,9.216420365872885,-0.5287379332348021,27.71280962183018,-11.247645765540213,36.10800000000745
312451.8287,17.988578339392397,4.9246172070635,33.317264774486034,-5.089083057275909,36.10899999999674
312451.8297,26.731314687919536,10.494838824853973,38.99302913864503,1.5990215690072551,36.10999999998603
312451.8307,35.33257929739163,16.14403724707665,44.7114094044544,8.759214433488355,36.11099999997532
312451.8317,43.67362297999408,21.823210691289354,50.424098019469426,16.312792557907137,36.11199999996461
312451.8327,51.627318469642454,27.46873172366016,56.05935606823767,24.15657502240736,36.11300000001211
312451.8337,59.05762170681438,33.000246793028985,61.51972055256681,32.16139181323643,36.1140000000014
312451.8347,65.82046087243764,38.32030604652391,66.68160655967814,40.1726008893633,36.11499999999069
312451.8357,71.76619786106532,43.315879882818535,71.39704608163524,48.01277277187393,36.11599999997998
312451.8367,76.74364490105582,47.86174111375076,75.49764538072122,55.48649407777651,36.116999999969266
312451.8377,80.60545352268791,51.82551373293231,78.80066481242098,62.38705391673456,36.117999999958556
312451.8387,83.21454048593748,55.07402801426283,81.11694483715206,68.50460717938962,36.119000000006054
312451.8397,84.45109120593114,57.4804926057323,82.26023682643351,73.63527249954316,36.11999999999534
312451.8407,84.21959881096207,58.931910254743066,82.05736391940137,77.59053331526198,36.12099999998463
312451.8417,82.45536551427226,59.336133451573275,80.35854984065048,80.20627704993804,36.12199999997392
312451.8427,79.12991677718357,58.627983107111135,77.04722219826849,81.3508338118249,36.12299999996321
312451.8437,74.2548564830777,56.77393522716218,72.04862564657289,80.9314601892018,36.12400000001071
312451.8447,67.88381606942059,53.7750096407922,65.33666736219473,78.89884791254394,36.125
312451.8457,60.11231023192131,49.6676584635959,56.93855417028592,75.24940839291475,36.12599999998929
312451.8467,51.07549044436955,44.522633663652826,46.93695352066414,70.02527547234351,36.12699999997858
312451.8477,40.943966862759474,38.44199429759281,35.46960156673739,63.31216088528914,36.12799999996787
312451.8487,29.918030596223304,31.55457599947325,22.726471164831327,55.23537038159837,36.12899999995716
312451.8497,18.220734925244997,24.010371301566966,8.944781398216547,45.9544254527204,36.13000000000466
312451.8507,6.090372521325955,15.97434622261281,-5.5977384345754855,35.656822143916905,36.130999999993946
312451.8517,-6.2270921181184535,7.620238344328694,-20.59083570278802,24.55148587789095,36.131999999983236
312451.8527,-18.485112064994322,-0.8751575038644052,-35.700451720872856,12.862447276498346,36.132999999972526
312451.8537,-30.442736632531822,-9.336803252430958,-50.57767884151107,0.8231730618785853,36.133999999961816
312451.8547,-41.86958106574508,-17.595055815246276,-64.86754579387701,-11.328151041289841,36.13500000000931
312451.8557,-52.54945202843607,-25.488019691500384,-78.2173356337976,-23.35225597866951,36.1359999999986
312451.8567,-62.28266699122901,-32.862679518006935,-90.28427719572898,-35.01139257476757,36.13699999998789
312451.8577,-70.88726945830297,-39.57504339036894,-100.74258940415669,-46.07111958142369,36.13799999997718
312451.8587,-78.1994773153982,-45.48966374991065,-109.28997937777585,-56.301632010376885,36.13899999996647
312451.8597,-84.07379228538193,-50.47899311606673,-115.65378305278561,-65.47907591016195,36.13999999995576
312451.8607,-88.38323300881984,-54.42306534988454,-119.59697808320762,-73.38732666851696,36.14100000000326
312451.8617,-91.02012704125386,-57.20996384132137,-120.92428557884892,-79.82067295627547,36.14199999999255
312451.8627,-91.89780917480255,-58.73744708035721,-119.4885089217441,-84.58774858335079,36.14299999998184
312451.8637,-90.95343279700465,-58.91595729587154,-115.19714053677549,-87.51689802571478,36.14399999997113
312451.8647,-88.1519214698396,-57.67305313485734,-108.0191137847255,-88.46296300772781,36.14499999996042
312451.8657,-83.49088838573188,-54.9591014706499,-97.99140532918838,-87.31525737494326,36.146000000007916
312451.8667,-77.00615373797388,-50.75385820832243,-85.2250253853222,-84.006279055151,36.146999999997206
312451.8677,-68.77731711903495,-45.07338615921974,-69.90979260297644,-78.52051575983526,36.147999999986496
312451.8687,-58.932715149872514,-37.976621053274144,-52.31719917872902,-70.90255838290638,36.148999999975786
312451.8697,-47.65303118685667,-29.570822257916276,-32.80064845437584,-61.26366206284884,36.149999999965075
312451.8707,-35.17283588982547,-20.01514484458766,-11.792403762878003,-49.785902742619044,36.15100000001257
312451.8717,-21.779429090008335,-9.521649226692544,10.203272510888844,-36.72317217804143,36.15200000000186
312451.8727,-7.808521061763531,1.646779318328144,32.6210920993217,-22.398433405338036,36.15299999999115
312451.8737,6.363476862874808,13.181907304360044,54.84984625221884,-7.196909628013933,36.15399999998044
312451.8747,20.330505501834537,24.73906289303935,76.25133974842142,8.444817612493546,36.15499999996973
312451.8757,33.67091076693543,35.94922321831953,96.18251388035029,24.053496339704907,36.15599999995902
312451.8767,45.963862624130684,46.43373401064923,114.01980237816053,39.13704860250089,36.15700000000652
312451.8777,56.80725280917539,55.82085798316599,129.18449940609517,53.20465157453859,36.15799999999581
312451.8787,65.8359926697277,63.76314680759037,141.1677339192929,65.78790772585833,36.1589999999851
312451.8797,72.73952426346946,69.95450756482592,149.5535616383999,76.46181471075967,36.15999999997439
312451.8807,77.27734629887567,74.1458023553822,154.03871748293597,84.86420520668132,36.16099999996368
312451.8817,79.29144631703967,76.15788491850014,154.4477198137413,90.71239418930924,36.162000000011176
312451.8827,78.71471678107498,75.89113714375952,150.74227471794748,93.81594235038925,36.163000000000466
312451.8837,75.57470133845015,73.33080888934965,143.0242751458232,94.0847061709,36.163999999989755
312451.8847,69.99234635940677,68.54776640827662,131.5320989043885,91.53167570987505,36.164999999979045
312451.8857,62.17579393581251,61.69459191780829,116.63034839864933,86.27047222807737,36.165999999968335
312451.8867,52.409614599504124,52.99732001665437,98.793607866144,78.50775740447223,36.166999999957625
312451.8877,41.040209548914675,42.743415739940424,78.58518544253268,68.53116151520635,36.16800000000512
312451.8887,28.458384315423835,31.266866260615906,56.632126167832105,56.69363931276086,36.16899999999441
312451.8897,15.080285121456768,18.931450661626062,33.59800290421758,43.39538444704503,36.1699999999837
312451.8907,1.327979829403744,6.1133538581470495,10.155098616676051,29.064558568549092,36.17099999997299
312451.8917,-12.38904947605672,-6.815705887627255,-13.04242095193215,14.138111226956969,36.17199999996228
312451.8927,-25.690352827602137,-19.50375981547633,-35.38287666069108,-0.9561175006563386,36.17300000000978
312451.8937,-38.2379565184292,-31.631385640381517,-56.31775473374812,-15.81499744438479,36.17399999999907
312451.8947,-49.746142929477465,-42.92137050812281,-75.37777843203652,-30.07265001792952,36.17499999998836
312451.8957,-59.9872274475592,-53.14488411554453,-92.18382530636885,-43.40947111769693,36.17599999997765
312451.8967,-68.79333220127417,-62.124115054909566,-106.45253279535204,-55.55749733858328,36.17699999996694
312451.8977,-76.05447894335626,-69.73162025889768,-117.99681322833199,-66.3022898944262,36.17799999995623
312451.8987,-81.7136018505688,-75.8868953532814,-126.72183523510839,-75.48178482916967,36.179000000003725
312451.8997,-85.75929154566256,-80.55087024815559,-132.61729640439634,-82.98277043764182,36.179999999993015
312451.9007,-88.21720735817901,-83.71915327591074,-135.74699298262627,-88.73578618971175,36.180999999982305
312451.9017,-89.14112713202447,-85.41488028516859,-136.23677609181112,-92.70928293386737,36.181999999971595
312451.9027,-88.60454313848017,-85.68197245994351,-134.26196907515745,-94.90384163026602,36.182999999960884
312451.9037,-86.69356803153907,-84.5794766777051,-130.03521474514943,-95.34712582203844,36.18400000000838
312451.9047,-83.50170321326614,-82.17747068603687,-123.79553998403466,-94.09005755367706,36.18499999999767
312451.9057,-79.1267663821161,-78.55478363827798,-115.79918996330186,-91.20447934452103,36.18599999998696
312451.9067,-73.67000202091143,-73.79853539154107,-106.31252074244276,-86.78232148836811,36.18699999997625
312451.9077,-67.23713579144729,-68.00526117459657,-95.60697405617879,-80.93606065673164,36.18799999996554
312451.9087,-59.94090723053254,-61.28318589343773,-83.95591731987206,-73.8000570978228,36.18900000001304
312451.9097,-51.90444662516549,-53.75506459772183,-71.63293724390508,-65.53221408695742,36.19000000000233
312451.9107,-43.26476711739592,-45.560926724232296,-58.91104333483731,-56.31532906056943,36.19099999999162
312451.9117,-34.17562997929767,-36.8600587069505,-46.062177465259445,-46.357508028240346,36.19199999998091
312451.9127,-24.80910939057251,-27.831631673317588,-33.35643962675149,-35.89109243098508,36.1929999999702
312451.9137,-15.355324673307337,-18.673519953200717,-21.06052263162464,-25.1696919194944,36.19399999995949
312451.9147,-6.020007426121649,-9.599047128031645,-9.434988114856232,-14.463112174547529,36.195000000006985
312451.9157,2.980192470281333,-0.8316194383205431,1.2698041387278527,-4.050193423618154,36.195999999996275
312451.9167,11.424508593174105,7.402561336890969,10.819101850405561,5.790190706503867,36.196999999985565
312451.9177,19.096576892203252,14.8832954928929,19.000290852966206,14.789506970097026,36.197999999974854
312451.9187,25.79407985688318,21.40610188069529,25.630164088539907,22.70066338948078,36.198999999964144
312451.9197,31.338778392011438,26.79213461268828,30.56240552267792,29.30907051793247,36.20000000001164
312451.9207,35.586118272290406,30.897521683561482,33.69468168897105,34.44284517472178,36.20100000000093
312451.9217,38.43359995430902,33.62136105835146,34.974710965395495,37.98136350449947,36.20199999999022
312451.9227,39.82717987703296,34.91169618860777,34.404721308165485,39.86146943453582,36.20299999997951
312451.9237,39.765120718682915,34.76894390315628,32.043806946479954,40.080809646641896,36.2039999999688
312451.9247,38.298913282086495,33.24644902623088,28.007843721909502,38.69798208438087,36.20499999995809
312451.9257,35.531134356227795,30.448072949306354,22.466806880734115,35.82943195026923,36.20600000000559
312451.9267,31.610360227161568,26.522965799706583,15.639536407702872,31.64328431300865,36.20699999999488
312451.9277,26.723500404756297,21.657901012687525,7.786194001029538,26.35054224380942,36.20799999998417
312451.9287,21.086127532855834,16.067745531819252,-0.8011666511667266,20.194281678192674,36.20899999997346
312451.9297,14.931537516232607,9.984780401074179,-9.809355559842421,13.437620347460111,36.20999999996275
312451.9307,8.499363909647046,3.647662138259264,-18.915479913487477,6.35131485834252,36.211000000010245
312451.9317,2.0245844188937956,-2.7091816718428787,-27.798379201906346,-0.798159358812682,36.211999999999534
312451.9327,-4.27230580034696,-8.864998288175594,-36.14941900880289,-7.759265376520758,36.212999999988824
312451.9337,-10.193312742377524,-14.620406936395748,-43.68209004491356,-14.30416206059586,36.213999999978114
312451.9347,-15.56870270484373,-19.802941950243344,-50.13999423196609,-20.23511991413018,36.214999999967404
312451.9357,-20.26027796647408,-24.27025424490185,-55.30296512010909,-25.388383858178003,36.21599999995669
312451.9367,-24.162186737002447,-27.911011498424283,-58.99124714128526,-29.63551231793878,36.21700000000419
312451.9377,-27.1995170828434,-30.64375320257168,-61.06782775291637,-32.88245045265648,36.21799999999348
312451.9387,-29.32512345963717,-32.414138735968464,-61.4391602760356,-35.0667889613065,36.21899999998277
312451.9397,-30.515280620237757,-33.191156787671694,-60.054618375760306,-36.153799846634286,36.21999999997206
312451.9407,-30.76483872863229,-32.96293012852905,-56.905075838939716,-36.131913551352085,36.22099999996135
312451.9417,-30.082558164667642,-31.732744843166845,-52.02100376545018,-35.00830156852659,36.22200000000885
312451.9427,-28.487233138425783,-29.515858930082445,-45.47042406706431,-32.80515607642351,36.22299999999814
312451.9437,-26.005077924041412,-26.33751006377886,-37.35696181491319,-29.557121897973133,36.22399999998743
312451.9447,-22.66866321477681,-22.232361046166826,-27.818112999107306,-25.310151266135296,36.22499999997672
312451.9457,-18.51747306894684,-17.245413658652843,-17.02370554636972,-20.121838672563378,36.22599999996601
312451.9467,-13.599928674043557,-11.434209714963453,-5.174398323600627,-14.063074662470394,36.2269999999553
312451.9477,-7.976518028346833,-4.87194510903848,7.500046925179989,-7.2206575962916295,36.228000000002794
312451.9487,-1.723503244076181,2.3490302651042,20.74305704214602,0.2996569330793013,36.228999999992084
312451.9497,5.063431913763711,10.113949495370724,34.27446053357974,8.37029033362212,36.22999999998137
312451.9507,12.266269821651203,18.283252298847962,47.79494754584455,16.839810993748745,36.23099999997066
312451.9517,19.74311965215554,26.69169900783566,60.992015012093546,25.532348012775735,36.23199999995995
312451.9527,27.32857668699145,35.14946244344652,73.54750104249935,34.24894073626468,36.23300000000745
312451.9537,34.836330835665834,43.445509309152236,85.14664367201681,42.771138780978994,36.23399999999674
312451.9547,42.06415293354006,51.35336348748748,95.48841214063492,50.86694529122222,36.23499999998603
312451.9557,48.80114047221048,58.63910211814702,104.29667344759243,58.29895125080408,36.23599999997532
312451.9567,54.83685714610453,65.0711952207612,111.33159326031317,64.83426502688893,36.23699999996461
312451.9577,59.97177798269596,70.4315848201661,116.40054739847841,70.2556234738972,36.23800000001211
312451.9587,64.02827680652254,74.52723191241324,119.36775391918005,74.37290131717157,36.2390000000014
312451.9597,66.86128401493743,77.20125689262528,120.16183735776575,77.0341323459716,36.23999999999069
312451.9607,68.36771263322589,78.34277308702256,118.78061095895823,78.13513132634085,36.24099999997998
312451.9617,68.49380451465446,77.8945685762307,115.29250807722798,77.62686442065119,36.241999999969266
312451.9627,67.23968358451648,75.85792578202586,109.83430184611812,75.51985543028378,36.242999999958556
312451.9637,64.6606086945268,72.2940711409386,102.60500795418147,71.88512492581776,36.244000000006054
312451.9647,60.86467763209092,67.32200189792519,93.8561490044328,66.85142213451894,36.24499999999534
312451.9657,56.007023518565994,61.1127218429255,83.87884701900502,60.59880292038004,36.24599999998463
312451.9667,50.28083939998585,53.88020777460409,72.98847817977195,53.3489056661654,36.24699999997392
312451.9677,43.90583958081354,45.86969782214918,61.507846529810394,45.35255374947969,36.24799999996321
312451.9687,37.114992069392706,37.344117179717685,49.74998965266772,36.87554346883407,36.24900000001071
312451.9697,30.1405142246902,28.569615729401402,38.00180279305705,28.183638388886575,36.25
312451.9707,23.200198090473062,19.801270528818662,26.509648602797796,19.527869605814075,36.25099999998929
312451.9717,16.485115161633598,11.269996393472827,15.468005569105998,11.13122815781082,36.25199999997858
312451.9727,10.14964284844476,3.17160987381569,5.012005321236934,3.1777306529271483,36.25299999996787
312451.9737,4.304565349876154,-4.3411861653946975,-4.78556850116094,-4.195349641445372,36.25399999995716
312451.9747,-0.9862537787183265,-11.163373091396544,-13.912578247504364,-10.901550682674772,36.25500000000466
312451.9757,-5.705429053968283,-17.23850441362328,-22.411243922873243,-16.905355396279194,36.255999999993946
312451.9767,-9.877958276328435,-22.55597807793896,-30.367741532245113,-22.218480013619452,36.256999999983236
312451.9777,-13.563898407483547,-27.145056192033568,-37.898485251934744,-26.89271871724897,36.257999999972526
312451.9787,-16.848501865064456,-31.066256247832982,-45.134154930948874,-31.010022850795806,36.258999999961816
312451.9797,-19.83070784762232,-34.40094088676651,-52.20271204477361,-34.67070877096104,36.26000000000931
312451.9807,-22.61100805188029,-37.24006055655464,-59.21273011237174,-37.98082479364349,36.2609999999986
312451.9817,-25.279740081421593,-39.67304446318037,-66.23834226621891,-41.03975323472426,36.26199999998789
312451.9827,-27.9068027069408,-41.77778753613714,-73.30698096212562,-43.92907531783771,36.26299999997718
312451.9837,-30.53364131944745,-43.61255051647223,-80.39086375800073,-46.703590463946576,36.26399999996647
312451.9847,-33.16813385799236,-45.21039029099356,-87.40288390446923,-49.38517104995406,36.26499999995576
312451.9857,-35.78273825986158,-46.57648815458996,-94.19722078716676,-51.95986970362194,36.26600000000326
312451.9867,-38.31596769535315,-47.68846909518537,-100.57462259631549,-54.37840382323378,36.26699999999255
312451.9877,-40.67696716019893,-48.49953173153798,-106.29196265536591,-56.55984864361815,36.26799999998184
312451.9887,-42.75270136367327,-48.94396181064477,-111.07536052835154,-58.39810261560005,36.26899999997113
312451.9897,-44.41705290702284,-48.9444046349582,-114.6359138195284,-59.770470743838565,36.26999999996042
312451.9907,-45.540989549871014,-48.42014055010135,-116.68692435862194,-60.54756104246059,36.271000000007916
312451.9917,-46.00290071855692,-47.295552871699435,-116.96143308515123,-60.60361757443134,36.271999999997206
312451.9927,-45.69822897823176,-45.50800179058307,-115.22890266176961,-59.826423874801954,36.272999999986496
312451.9937,-44.547626425542184,-43.01441549646504,-111.3099986262537,-58.12599819455966,36.273999999975786
312451.9947,-42.503035894931074,-39.79606859505121,-105.08860452532181,-55.44145501877359,36.274999999965075
312451.9957,-39.5513136352724,-35.86121988017329,-96.5204443200073,-51.74560804763065,36.27600000001257
312451.9967,-35.71525098922703,-31.245505078392892,-85.63795348324297,-47.04711684445251,36.27700000000186
312451.9977,-31.052093420973243,-26.010202394959837,-72.55131469493318,-41.39020968677727,36.27799999999115
312451.9987,-25.649872795075684,-20.238687629073493,-57.44583212976069,-34.85222660368428,36.27899999998044
312451.9997,-19.62204313940556,-14.03155247783409,-40.576040346329464,-27.539399809102115,36.27999999996973
312452.0007,-13.101026307270683,-7.500960442968891,-22.25711455383078,-19.581409002135853,36.28099999995902
312452.0017,-6.2313233684516245,-0.7648515592395527,-2.8542588363941475,-11.125307355314304,36.28200000000652
312452.0027,0.8371715269688407,6.0584213582635815,17.22920609073909,-2.3294079128118397,36.28299999999581
312452.0037,7.955100595712781,12.854530926845698,37.56435187419736,6.642346561816736,36.2839999999851
312452.0047,14.978395811688417,19.516331691071326,57.70911797038396,15.625124835954004,36.28499999997439
312452.0057,21.771608118408743,25.945550136226924,77.22024049549177,24.45680819214554,36.28599999996368
312452.0067,28.209752913288288,32.05300982777612,95.66426738996799,32.980372721736636,36.287000000011176
312452.0077,34.17879781216784,37.75757480136379,112.62745042447071,41.04514713003251,36.288000000000466
312452.0087,39.57508160175426,42.98415188100987,127.72445629906098,48.50719373072332,36.288999999989755
312452.0097,44.30407643503288,47.66120959381472,140.6059685088038,55.22917792282392,36.289999999979045
312452.0107,48.27897580375757,51.718335271675414,150.9653450409264,61.08016023630545,36.290999999968335
312452.0117,51.419601141616425,55.08435558667481,158.54454468816945,65.93575708207783,36.291999999957625
312452.0127,53.652068768437445,57.68648801065562,163.1395323299895,69.67906961758187,36.29300000000512
312452.0137,54.9095513610221,59.45087661684031,164.6053222482104,72.20267880808719,36.29399999999441
312452.0147,55.13431528687613,60.3047061937898,162.86072552899296,73.41185890218222,36.2949999999837
312452.0157,54.281032997627314,60.17989963948261,157.8927452150916,73.22898624995054,36.29599999997299
312452.0167,52.321177746086896,59.01820427759395,149.76042750582732,71.59893438446908,36.29699999996228
312452.0177,49.24812722188246,56.7772838917207,138.5978476856904,68.49507005002765,36.29800000000978
312452.0187,45.08245379912231,53.43727523253438,124.61580461709055,63.92531858726986,36.29899999999907
312452.0197,39.876779785659956,49.007158310259925,108.1017347125398,57.937668563389586,36.29999999998836
312452.0207,33.71953960077043,43.53024233702966,89.417348559299,50.62444821307674,36.30099999997765
312452.0217,26.73702433953688,37.08809125610208,68.99354848367838,42.12473769658021,36.30199999996694
312452.0227,19.093187841912936,29.802305115325595,47.32230430379468,32.62438207708513,36.30299999995623
312452.0237,10.986860047027038,21.83372977231978,24.945341217857475,22.3532337860235,36.304000000003725
312452.0247,2.6462291896395027,13.378874593036056,2.4397153430797816,11.57946695068576,36.304999999993015
312452.0257,-5.679300165011094,4.6635574526349695,-19.599399680861154,0.6010504681168264,36.305999999982305
312452.0267,-13.729514355313682,-4.065953798096339,-40.57813987139549,-10.2652805608467,36.306999999971595
312452.0277,-21.245470600490616,-12.553798098522362,-59.92478539442904,-20.696978803388653,36.307999999960884
312452.0287,-27.98246560535642,-20.546671670987187,-77.11100859854183,-30.37979087679209,36.30900000000838
312452.0297,-33.72297955095279,-27.80642565068293,-91.67241907070942,-39.02210560601931,36.30999999999767
312452.0307,-38.288630490386154,-34.122194362197455,-103.2272462705389,-46.36857235516704,36.31099999998696
312452.0317,-41.55020761616037,-39.32114839118838,-111.49204557679619,-52.21203874541467,36.31199999997625
312452.0327,-43.434970227424806,-43.27705847531344,-116.29344749011167,-56.40296178612145,36.31299999996554
312452.0337,-43.93059400879466,-45.91602220432283,-117.57518454134004,-58.855626725479425,36.31400000001304
312452.0347,-43.08540138614134,-47.218931182912385,-115.3999108157832,-59.55074853652539,36.31500000000233
312452.0357,-41.00480607476642,-47.22052136804478,-109.94565330599713,-58.534310662191224,36.31599999999162
312452.0367,-37.844207249508294,-46.005129470693454,-101.49707662121862,-55.91278924898298,36.31699999998091
312452.0377,-33.79885825195016,-43.69954771910466,-90.43207505229879,-51.84519187414552,36.3179999999702
312452.0387,-29.091481734293136,-40.46360293696216,-77.20450140705938,-46.53258206592914,36.31899999995949
312452.0397,-23.958584662800398,-36.47926217167368,-62.32407633386323,-40.205942665249964,36.320000000006985
312452.0407,-18.636525661842484,-31.939169858877086,-46.33467632450778,-33.113335945971436,36.320999999996275
312452.0417,-13.348394390304625,-27.03554160359842,-29.792261525064013,-25.507337371929825,36.321999999985565
312452.0427,-8.292677169230473,-21.950275864127562,-13.243672187087073,-17.633652044439337,36.322999999974854
312452.0437,-3.634512725603403,-16.847003884599022,2.7926003780229696,-9.721675600309078,36.323999999964144
312452.0447,0.49989761885070677,-11.865594156838617,17.842763807161642,-1.9775493123341654,36.32500000001164
312452.0457,4.025447604996291,-7.119380401406403,31.490551933939624,5.419996848577677,36.32600000000093
312452.0467,6.89688113748154,-2.6951153718552905,43.38618217855624,12.320994724424327,36.32699999999022
312452.0477,9.10447421575749,1.3446078395521706,53.251402112374116,18.603031920671295,36.32799999997951
312452.0487,10.667237980789883,4.9569552325118895,60.88087331609994,24.167975085359483,36.3289999999688
312452.0497,11.624443181404384,8.113137991835108,66.14038826305695,28.937290073100716,36.32999999995809
312452.0507,12.02639509001699,10.792160246652392,68.96260197787626,32.84673716852106,36.33100000000559
312452.0517,11.925428177005013,12.974834219637085,69.34107061382865,35.84124930776891,36.33199999999488
312452.0527,11.36803878256291,14.638818613121414,67.3234171402334,37.87074811640621,36.33299999998417
312452.0537,10.388937182146668,15.755311034324682,63.004391179119246,38.887522481059115,36.33399999997346
312452.0547,9.007591335806653,16.287837601278127,56.51946449820488,38.845600547346,36.33499999996275
312452.0557,7.227573404644758,16.193351058371018,48.03942133697042,37.702307828478105,36.336000000010245
312452.0567,5.038731729513331,15.42559538338979,37.76618439070025,35.42194509833851,36.336999999999534
312452.0577,2.4219227382478983,13.94044461023895,25.92988680387317,31.981265499934764,36.337999999988824
312452.0587,-0.644223629174762,11.702700714863324,12.786982575453072,27.376205935856433,36.338999999978114
312452.0597,-4.175240425055526,8.693661566183083,-1.3809947001987344,21.629155560513873,36.339999999967404
312452.0607,-8.172335290073063,4.918662077221293,-16.268542868969373,14.795941288767768,36.34099999995669
312452.0617,-12.61440404081142,0.4137604399947116,-31.547750598523365,6.971687223426081,36.34200000000419
312452.0627,-17.4514382454946,-4.749209986938652,-46.8708705226617,-1.7052353438951906,36.34299999999348
312452.0637,-22.60009895922916,-10.45987823329584,-61.87438641980618,-11.051813250991554,36.34399999998277
312452.0647,-27.942035723292403,-16.569329274295626,-76.18490658313758,-20.841995314341858,36.34499999997206
312452.0657,-33.32528208653881,-22.893084901169463,-89.42701990133513,-30.81148865287737,36.34599999996135
312452.0667,-38.568779698317634,-29.217043062457332,-101.23302823093177,-40.66566854388044,36.34700000000885
312452.0677,-43.46979854555498,-35.30608580287767,-111.25424130806786,-50.09025143505699,36.34799999999814
312452.0687,-47.8137574298996,-40.91482796551807,-119.17331195938269,-58.76413552147676,36.34899999998743
312452.0697,-51.3857302698313,-45.79978554228603,-124.71692097836763,-66.37361643029841,36.34999999997672
312452.0707,-53.982769722869044,-49.73211123410861,-127.66800992592468,-72.62705450304988,36.35099999996601
312452.0717,-55.426103167070636,-52.50998681029469,-127.87671782535226,-77.26901617306495,36.3519999999553
312452.0727,-55.57226312409353,-53.96978178240711,-125.26920914056699,-80.09293911392585,36.353000000002794
312452.0737,-54.32230287549926,-53.995183129094926,-119.85368349048261,-80.95147592155874,36.353999999992084
312452.0747,-51.62840904676234,-52.52366194328381,-111.72302362285835,-79.76384391429542,36.35499999998137
312452.0757,-47.49744064736712,-49.549854753018806,-101.05375300412612,-76.5197331915008,36.35599999997066
312452.0767,-41.99117797864215,-45.125680437126874,-88.10121957650634,-71.27958114377955,36.35699999995995
312452.0777,-35.22333161978633,-39.357266234939914,-73.19117698860147,-64.17128660697253,36.35800000000745
312452.0787,-27.353617367284738,-32.39899606415447,-56.70817761211517,-55.383688017404964,36.35899999999674
312452.0797,-18.579425034051116,-24.445200577337868,-39.08140296028674,-45.15734628557735,36.35999999998603
312452.0807,-9.12577842703043,-15.720163940740097,-20.768719799608288,-33.7733373212431,36.36099999997532
312452.0817,0.7656132005630552,-6.4672149992640495,-2.2398517779551503,-21.540858966086898,36.36199999996461
312452.0827,10.84738286068907,3.062305941891125,16.040410353977006,-8.784486338237203,36.36300000001211
312452.0837,20.87682873492274,12.61945884324604,33.62807310620244,4.1681314284291995,36.3640000000014
312452.0847,30.62486179187588,21.966856060864465,50.114093446062355,16.99744472034833,36.36499999999069
312452.0857,39.88307662347416,30.886074837780686,65.13619081694597,29.401514961849983,36.36599999997998
312452.0867,48.46865086079274,39.18304191668202,78.38788373044149,41.103522599901844,36.366999999969266
312452.0877,56.22700230303114,46.69130821052793,89.62453465024242,51.85713615280063,36.367999999958556
312452.0887,63.032351330646854,53.273331711539136,98.66640769735893,61.44980805059745,36.369000000006054
312452.0897,68.7865278809994,58.820061842042406,105.39894822178647,69.70423988935624,36.36999999999534
312452.0907,73.41650879844721,63.24925185471935,109.77066433005726,76.47839602844178,36.37099999998463
312452.0917,76.87125905045183,66.50300575118939,111.78911437870183,81.66452829877983,36.37199999997392
312452.0927,79.1184715548363,68.54508619809397,111.51557233857177,85.18769966670527,36.37299999996321
312452.0937,80.14175446258348,69.35846996318907,109.05895142934301,87.00426086526485,36.37400000001071
312452.0947,79.93870784817861,68.94354350148676,104.56951791965955,87.1006472051224,36.375
312452.0957,78.52017628079673,67.31719500626433,98.23282936211253,85.49273437699911,36.37599999998929
312452.0967,75.91077705171125,64.51289628062405,90.26419730194436,82.2258376400357,36.37699999997858
312452.0977,72.15060646031806,60.58169658305234,80.90381954643257,77.3752765280883,36.37799999996787
312452.0987,67.29784012614724,55.59389027365909,70.41256905507797,71.04727597685869,36.37899999995716
312452.0997,61.43178826263728,49.640988502572704,59.06828305934572,63.37985221231961,36.38000000000466
312452.1007,54.65586044140587,42.837537117504574,47.162283053020005,54.54325241434692,36.380999999993946
312452.1017,47.09984880853461,35.32228860508055,34.99578641647059,44.739491079394924,36.381999999983236
312452.1027,38.92095994960989,27.258259769240247,22.875851726785207,34.20055754683196,36.382999999972526
312452.1037,30.303112739504762,18.83128745104126,11.11053501968097,23.184956646007954,36.383999999961816
312452.1047,21.454164882412428,10.246824444945721,0.0030205643641046257,11.972380259626986,36.38500000000931
312452.1057,12.60092076199752,1.7248842411681888,-10.155381123031088,0.8564789944475153,36.3859999999986
312452.1067,3.981989340927841,-6.506770193364485,-19.093316117641095,-9.864106609474321,36.38699999998789
312452.1077,-4.161218010646834,-14.220910441404236,-26.568325983974866,-19.896105801362317,36.38799999997718
312452.1087,-11.59485566497561,-21.200146131816986,-32.37624965145371,-28.962848176254568,36.38899999996647
312452.1097,-18.10371705158008,-27.246659730678175,-36.36055001796387,-36.815711806967556,36.38999999995576
312452.1107,-23.502240270578465,-32.191699274121085,-38.42092196641926,-43.2450545357434,36.39100000000326
312452.1117,-27.64462785773252,-35.90412979489581,-38.520487222242195,-48.08987470900059,36.39199999999255
312452.1127,-30.433289888131046,-38.29738154159984,-36.6908929970489,-51.24549428821086,36.39299999998184
312452.1137,-31.824918529464412,-39.334231552107596,-33.03470880818859,-52.66866773079144,36.39399999997113
312452.1147,-31.83366483588093,-39.02900666933788,-27.724656027982945,-52.37968605032016,36.39499999996042
312452.1157,-30.53110106830655,-37.44698743633993,-20.99939809844617,-50.46125336265495,36.396000000007916
312452.1167,-28.042895381655807,-34.70100628859241,-13.155850851798377,-47.05414514461103,36.396999999997206
312452.1177,-24.5423785266302,-30.94545057034246,-4.5382226141177675,-42.34989297864864,36.397999999986496
312452.1187,-20.2414214819265,-26.36808119371192,4.475759160985945,-36.580958715894475,36.398999999975786
312452.1197,-15.379247059656233,-21.18024278008294,13.490756386779474,-30.00904213483311,36.399999999965075
312452.1207,-10.209949173832909,-15.606155712972814,22.111010009791087,-22.91229396986759,36.40100000001257
312452.1217,-4.98957732306125,-9.872034320328826,29.95784388505541,-15.572269200459942,36.40200000000186
312452.1227,0.03634606820029351,-4.195763849854726,36.686476519885225,-8.261448351590149,36.40299999999115
312452.1237,4.644071457954618,1.2222062392798396,42.00117284087422,-1.2320785143555035,36.40399999998044
312452.1247,8.640957525296308,6.206225963489538,45.66788147403203,5.29305133588238,36.40499999996973
312452.1257,11.872406172858316,10.610711974930144,47.52368114546744,11.12747072163047,36.40599999995902
312452.1267,14.226126121125072,14.323162885916508,47.48258659977139,16.12530759930282,36.40700000000652
312452.1277,15.633686340331106,17.264970898464085,45.53751933522712,20.18299394322786,36.40799999999581
312452.1287,16.06954385310585,19.39026645298545,41.75850852739568,23.238612150741048,36.4089999999851
312452.1297,15.547923372501376,20.683187827865837,36.28742975189531,25.269273337584735,36.40999999997439
312452.1307,14.118070869748705,21.154074545146813,29.329792787400933,26.2870448552517,36.41099999996368
312452.1317,11.858486749963546,20.835132218871124,21.144238505554735,26.334009815982803,36.412000000011176
312452.1327,8.870760609373718,19.776103411694002,12.03048825211318,25.477041339120426,36.413000000000466
312452.1337,5.273579448891038,18.04040699690188,2.3165037931031716,23.8028108962495,36.413999999989755
312452.1347,1.1973726538707459,15.70208662692805,-7.654434338677888,21.41343256949077,36.414999999979045
312452.1357,-3.2200958628541656,12.843751756417241,-17.536126919023385,18.422988135923507,36.415999999968335
312452.1367,-7.837056413700919,9.55552073048447,-26.99087456155699,14.955000827281962,36.416999999957625
312452.1377,-12.510033771371134,5.934805162194696,-35.69961714486913,11.140749799831344,36.41800000000512
312452.1387,-17.09533425940879,2.0866283981100016,-43.370657655403825,7.118164101701632,36.41899999999441
312452.1397,-21.45006235957729,-1.875933916418606,-49.74697440187511,3.030923099014408,36.4199999999837
312452.1407,-25.433083790966887,-5.831652964646835,-54.61222959373259,-0.9726658353937828,36.42099999997299
312452.1417,-28.906363859690348,-9.651834843620295,-57.79563955042943,-4.741434102405506,36.42199999996228
312452.1427,-31.73705700525432,-13.20217161293695,-59.17587858219205,-8.124113135629013,36.42300000000978
312452.1437,-33.800611176984006,-16.34599808419024,-58.68414814988747,-10.973311081632481,36.42399999999907
312452.1447,-34.9849913651656,-18.949023289409375,-56.306465128452736,-13.150753286881512,36.42499999998836
312452.1457,-35.19593853904641,-20.885407765007113,-52.08512299133968,-14.533638320296427,36.42599999997765
312452.1467,-34.36298556826423,-22.04485803052826,-46.119175930182216,-15.021763373090058,36.42699999996694
312452.1477,-32.44577407703815,-22.34023094992375,-38.56370765640251,-14.544897609157335,36.42799999995623
312452.1487,-29.44007810984626,-21.715004557198657,-29.627591610237673,-13.069751560793032,36.429000000003725
312452.1497,-25.38286078250937,-20.14989602349869,-19.569441279954688,-10.605822945436614,36.429999999993015
312452.1507,-20.35568167495996,-17.66790342831111,-8.69149624753075,-7.209405988647589,36.430999999982305
312452.1517,-14.48584105509359,-14.337120228971832,2.6687076004718358,-2.9851364117409704,36.431999999971595
312452.1527,-7.9447893430386065,-10.270816190819744,14.148882832743597,1.9153967233000413,36.432999999960884
312452.1537,-0.9435356596316381,-5.624484690501039,25.374560350682348,7.298220570712858,36.43400000000838
312452.1547,6.274960135495683,-0.5898056826638433,35.973287426907866,12.934714991570756,36.43499999999767
312452.1557,13.446155170714183,4.614256774255243,45.58985365450526,18.572220942194626,36.43599999998696
312452.1567,20.29652658038227,9.752739378492155,53.90176814723979,23.94695424889652,36.43699999997625
312452.1577,26.557649017760305,14.587630866141,60.63408356478325,28.798422725987155,36.43799999996554
312452.1587,31.980805458992013,18.891595450566484,65.57260149588664,32.88436910248761,36.43900000001304
312452.1597,36.35108535318579,22.461469076994213,68.5745117921704,35.995165700323426,36.44000000000233
312452.1607,39.49990806913909,25.130509254307345,69.57562077105143,37.96658109132492,36.44099999999162
312452.1617,41.314986925899674,26.778448614260256,68.59350692020324,38.6899275444717,36.44199999998091
312452.1627,41.74691589718694,27.338556753202848,65.72619684523848,38.118775633261556,36.4429999999702
312452.1637,40.81180481312964,26.80114200377639,61.146260315819255,36.2716751232169,36.44399999995949
312452.1647,38.589689490987546,25.21320524225231,55.09055705254156,33.23062812799488,36.445000000006985
312452.1657,35.21877490936165,22.67426709352055,47.846201177395535,29.135395020592465,36.445999999996275
312452.1667,30.885903108649213,19.328700402113608,39.73361253866194,24.174046229050365,36.446999999985565
312452.1677,25.813943094681644,15.355183642307926,31.087769396716627,18.57047409649131,36.447999999974854
312452.1687,20.247049937286924,10.954122332149838,22.238940400920495,12.569821261949393,36.448999999964144
312452.1697,14.434911594213482,6.334043480645144,13.494238204935366,6.422943497341889,36.45000000001164
312452.1707,8.617178884680678,1.6980383407005482,5.121293744366442,0.37109088513303295,36.45100000000093
312452.1717,3.0092492042263146,-2.768694921227665,-2.6648000200749338,-5.368044349278162,36.45199999999022
312452.1727,-2.2095499419150544,-6.909272057801982,-9.71037264526091,-10.611898760344419,36.45299999997951
312452.1737,-6.90454449403558,-10.602765867363312,-15.92731018153859,-15.221432213363455,36.4539999999688
312452.1747,-10.990513507135699,-13.768587659375871,-21.292233224999826,-19.10583570372703,36.45499999995809
312452.1757,-14.432479576418146,-16.36741811214931,-25.840905699543463,-22.223366050807584,36.45600000000559
312452.1767,-17.24260427009758,-18.398803864782973,-29.65843800544934,-24.57845427154485,36.45699999999488
312452.1777,-19.47362583161658,-19.895823560623523,-32.866177710344274,-26.215546575341797,36.45799999998417
312452.1787,-21.209554035786052,-20.91747029704742,-35.60643472924911,-27.210399838976738,36.45899999997346
312452.1797,-22.55454501561392,-21.53957476242817,-38.026344287061214,-27.659743890899783,36.45999999996275
312452.1807,-23.620999551629907,-21.845189470540266,-40.26221683893965,-27.670324807123794,36.461000000010245
312452.1817,-24.51795248716202,-21.915362037104554,-42.42565626517433,-27.34834909088647,36.461999999999534
312452.1827,-25.340748456945953,-21.821145500046285,-44.59255280030569,-26.7902596553499,36.462999999988824
312452.1837,-26.162838857932684,-21.617535701398754,-46.79579141193418,-26.07560146908138,36.463999999978114
312452.1847,-27.03030387612378,-21.339806486525134,-49.022183695967506,-25.262495905459147,36.464999999967404
312452.1857,-27.959424691670534,-21.00245533132647,-51.21376146094423,-24.385962591492387,36.46599999995669
312452.1867,-28.93733205726332,-20.60070079331021,-53.273195673688036,-23.45903379210666,36.46700000000419
312452.1877,-29.9254670300703,-20.114215603549912,-55.072758006100635,-22.476327864374365,36.46799999999348
312452.1887,-30.865335132980427,-19.512560286035082,-56.465953644186385,-21.419511924322897,36.46899999998277
312452.1897,-31.685840077102505,-18.761622827818236,-57.30074755767464,-20.263911951490687,36.46999999997206
312452.1907,-32.311364705508474,-17.830284967415714,-57.433198710405904,-18.985436877069198,36.47099999996135
312452.1917,-32.669734606993046,-16.696532493546588,-56.74031531213078,-17.566979460701926,36.47200000000885
312452.1927,-32.699254935213105,-15.35230479866273,-55.131047157474576,-16.003539919449025,36.47299999999814
312452.1937,-32.35414583451895,-13.806529057865689,-52.55452704054091,-14.305478719966112,36.47399999998743
312452.1947,-31.607901262891325,-12.085990943610684,-49.00494266452718,-12.499525495032486,36.47499999997672
312452.1957,-30.45433847930684,-10.233935351764138,-44.52273755300401,-10.627428656919555,36.47599999996601
312452.1967,-28.906365563345002,-8.306542399241174,-39.19217447957904,-8.742398340050343,36.4769999999553
312452.1977,-26.99274510260729,-6.3676601770680765,-33.13561699154481,-6.9037462562509475,36.478000000002794
312452.1987,-24.753347850028188,-4.48237219234773,-26.505164546004174,-5.170334102626001,36.478999999992084
312452.1997,-22.233548700735852,-2.710113859927162,-19.472489822688384,-3.5935858599120136,36.47999999998137
312452.2007,-19.478502694255592,-1.0981145441362106,-12.217854779340316,-2.210883643481789,36.48099999997066
312452.2017,-16.528042392309267,0.32407733999589106,-4.919315077793702,-1.0401446589979362,36.48199999995995
312452.2027,-13.412859804444835,1.5483274827914848,2.256940179265852,-0.07626988938068496,36.48300000000745
312452.2037,-10.152484349136687,2.5894177233797504,9.164316656979235,0.7100264270752547,36.48399999999674
312452.2047,-6.755359059499044,3.4840508961448,15.681035500544215,1.3707359205854124,36.48499999998603
312452.2057,-3.221072279718655,4.287347575965964,21.71254062835987,1.976424941462088,36.48599999997532
312452.2067,0.4554528578863846,5.067085425526753,27.19107733403926,2.6097321429016453,36.48699999996461
312452.2077,4.278246970392406,5.896173551653055,32.072710099949866,3.357029849654283,36.48800000001211
312452.2087,8.243692688158252,6.8440515127323165,36.332295885839756,4.298992471864069,36.4890000000014
312452.2097,12.333796963209121,7.967835054226325,39.95711925687534,5.500954120043642,36.48999999999069
312452.2107,16.510156220576366,9.304084237176907,42.940010195125666,7.00399242006892,36.49099999997998
312452.2117,20.709402540802998,10.862038026891994,45.272794579259475,8.817639770933214,36.491999999969266
312452.2127,24.840804971876477,12.619044645548357,46.94086983102615,10.914999249818718,36.492999999958556
312452.2137,28.786512538899107,14.518729253931042,47.91956122076034,13.230841004266606,36.494000000006054
312452.2147,32.40468202555979,16.47219717612994,48.17271247196829,15.662994796034692,36.49499999999534
312452.2157,35.53545732873007,18.36229474968244,47.65371833156075,18.077059641117742,36.49599999998463
312452.2167,38.009484758083104,20.050667053382835,46.30894140349698,20.314149885651346,36.49699999997392
312452.2177,39.658387535100125,21.387089046245382,44.083197123729626,22.201116963052907,36.49799999996321
312452.2187,40.3264086056288,22.220329016969938,40.92676474591597,23.56245391665819,36.49900000001071
312452.2197,39.882285119726056,22.409651458273643,36.803210795839874,24.232927496288756,36.5
312452.2207,38.23035564627711,21.835995144121824,31.69721146443072,24.069905666441848,36.50099999998929
312452.2217,35.319929715609554,20.41187836805864,25.621541726026972,22.96436414703287,36.50199999997858
312452.2227,31.152067475174803,18.089185875800506,18.622463577326172,20.849662933508167,36.50299999996787
312452.2237,25.783115527717076,14.864171788633309,10.782887565511203,17.707372859110283,36.50399999995716
312452.2247,19.324606229301565,10.779253329000845,2.2228870073002454,13.569685788548297,36.50500000000466
312452.2257,11.939428629390507,5.921449283042522,-6.902607020497391,8.518236588235434,36.505999999993946
312452.2267,3.834492662425202,0.41760907552486815,-16.408834144736378,2.679473409596602,36.506999999983236
312452.2277,-4.749594472481381,-5.573143943032166,-26.08860061658148,-3.7829934072006783,36.507999999972526
312452.2287,-13.551066984108207,-11.869093629830184,-35.7214598649527,-10.678381391779725,36.508999999961816
312452.2297,-22.30079473097786,-18.276899442832494,-45.08392418616993,-17.800195169881547,36.51000000000931
312452.2307,-30.736271445551395,-24.60291730747774,-53.95985680731063,-24.938179336093594,36.5109999999986
312452.2317,-38.61472759104055,-30.66392752886637,-62.15017963887206,-31.889774529826077,36.51199999998789
312452.2327,-45.72438600460854,-36.296401224849895,-69.48110299832248,-38.47016267523758,36.51299999997718
312452.2337,-51.893053214144594,-41.363593433988974,-75.81023237303853,-44.52014691439495,36.51399999996647
312452.2347,-56.99348498191742,-45.7599721173755,-81.03011889910908,-49.9113384419594,36.51499999995576
312452.2357,-60.94525817995787,-49.41275617665775,-85.06907323764167,-54.54839384268754,36.51600000000326
312452.2367,-63.71319492443735,-52.280616708250825,-87.88933126678937,-58.368336069284375,36.51699999999255
312452.2377,-65.30268945355562,-54.34986674011777,-89.48291719312712,-61.33727170850904,36.51799999998184
312452.2387,-65.75255491743427,-55.6286994111578,-89.86576921257289,-63.445059634412026,36.51899999997113
312452.2397,-65.1262111494318,-56.140210294528565,-89.07085245508712,-64.69866826677193,36.51999999996042
312452.2407,-63.50215680979283,-55.91503947511941,-87.14106748345758,-65.11506318891541,36.521000000007916
312452.2417,-60.96469917126242,-54.98448366447855,-84.12276170832065,-64.71448427517863,36.521999999997206
312452.2427,-57.59585036577259,-53.374857057824,-80.06056598458214,-63.51490079391079,36.522999999986496
312452.2437,-53.46914738775799,-51.103729289125525,-74.99411824192747,-61.52828194375998,36.523999999975786
312452.2447,-48.645930223894354,-48.17845497742152,-68.95701687341071,-58.75910463225058,36.524999999965075
312452.2457,-43.17434068596691,-44.597153520862896,-61.97809140167183,-55.2052620784554,36.52600000001257
312452.2467,-37.09101104053717,-40.35202569782439,-54.08481303478524,-50.86126228104586,36.52700000000186
312452.2477,-30.425125500632273,-35.43463263504572,-45.30842052082356,-45.72334241478777,36.52799999999115
312452.2487,-23.20428731670391,-29.842539107320416,-35.69013285077375,-39.79590053291932,36.52899999998044
312452.2497,-15.46143415123132,-23.586559596215967,-25.28768109683999,-33.09848249745869,36.52999999996973
312452.2507,-7.241933143517479,-16.697758815322576,-14.181331719390256,-25.672476703187563,36.53099999995902
312452.2517,1.3900348018930166,-9.233357703865183,-2.4785997261288197,-17.586671025235987,36.53200000000652
312452.2527,10.346622690155776,-1.2807819134812248,9.683039852383091,-8.94091596434415,36.53299999999581
312452.2537,19.513665093903047,7.040745291045538,22.13595001691635,0.13269307446719678,36.5339999999851
312452.2547,28.750672278904,15.581435696983858,34.68490774070181,9.471469239391226,36.53499999997439
312452.2557,37.89364959370566,24.165095011418416,47.11245429253804,18.886705392350088,36.53599999996368
312452.2567,46.76063376412443,32.59602408639441,59.18673893481678,28.170957986121334,36.537000000011176
312452.2577,55.15955963010625,40.66820673456559,70.6713192733237,37.107565840174686,36.538000000000466
312452.2587,62.89782934509104,48.17609558929386,81.33617304947613,45.481694206573195,36.538999999989755
312452.2597,69.79277497335627,54.92613669461398,90.96903588756393,53.092026788938014,36.539999999979045
312452.2607,75.68210260155297,60.748081676551614,99.38612189157652,59.76214157751082,36.540999999968335
312452.2617,80.43339162062409,65.50513278336639,106.44131551186332,65.35060955001576,36.541999999957625
312452.2627,83.95179812902352,69.10205163289794,112.03304160481878,69.75894882398148,36.54300000000512
312452.2637,86.18526904853589,71.49052944668173,116.1082154288105,72.93674235754816,36.54399999999441
312452.2647,87.12679807053001,72.67134934323374,118.66292729662598,74.88346848015611,36.5449999999837
312452.2657,86.81352399508182,72.69314805998617,119.73980382876479,75.64687774077956,36.54599999997299
312452.2667,85.32276009316156,71.64787924210117,119.42228190531503,75.31804999085847,36.54699999996228
312452.2677,82.76532180068966,69.6633654882993,117.82630447289505,74.02355393568868,36.54800000000978
312452.2687,79.27676239080068,66.89357502530837,115.09017337589033,71.91538048057792,36.54899999999907
312452.2697,75.00730903962786,63.50744815770984,111.36345203083873,69.15950781809839,36.54999999998836
312452.2707,70.11139767480394,59.677211304823544,106.79588543792738,65.92406321048651,36.55099999997765
312452.2717,64.73772460485951,55.567142740583975,101.5272901864686,62.36806441289406,36.55199999996694
312452.2727,59.02066512952024,51.323692670115,95.6792648338766,58.6316518400682,36.55299999995623
312452.2737,53.07376162008543,47.0677179477275,89.34939167487019,54.8285686631584,36.554000000003725
312452.2747,46.98577113117882,42.88938309467507,82.60836198130737,51.04142553492802,36.554999999993015
312452.2757,40.81950677881836,38.84602492972011,75.50018117002524,47.32002123751128,36.555999999982305
312452.2767,34.61343318889464,34.96300272728745,68.04532406625813,43.68270588842906,36.556999999971595
312452.2777,28.385711056881245,31.23728562747211,60.246440150954925,40.120496589072225,36.557999999960884
312452.2787,22.140154911856467,27.64328938788067,52.095979266671215,36.603412602483495,36.55900000000838
312452.2797,15.873393607126474,24.140287522267126,43.584940473982115,33.08831076132492,36.55999999999767
312452.2807,9.582421244146987,20.680604074379836,34.71185540754144,29.527388590267034,36.56099999998696
312452.2817,3.271706329346257,17.217756484446213,25.491110117868697,25.876492086522052,36.56199999997625
312452.2827,-3.0409099540081064,13.713759213879577,15.959785623562626,22.102418640479563,36.56299999996554
312452.2837,-9.320156468714694,10.144916114924415,6.182349018546102,18.188536417474573,36.56400000001304
312452.2847,-15.511545514071475,6.505608841419816,-3.7472612787505932,14.138235413643308,36.56500000000233
312452.2857,-21.54204518059009,2.8098108737505476,-13.706361508674778,9.975962060785573,36.56599999999162
312452.2867,-27.32314110137568,-0.9097010232566277,-23.54699920585844,5.745844397492002,36.56699999998091
312452.2877,-32.755969657888244,-4.604228542168581,-33.1018646033854,1.5081625772343812,36.5679999999702
312452.2887,-37.73799072591541,-8.213708415042287,-42.19210053306814,-2.6658650124042755,36.56899999995949
312452.2897,-42.1705098363936,-11.67236570523571,-50.636309670031814,-6.700347856306787,36.570000000006985
312452.2907,-45.966272844519516,-14.91479053972014,-58.25996353584388,-10.521316940386388,36.570999999996275
312452.2917,-49.056349272170834,-17.8817431456376,-64.90440154557258,-14.062906546252147,36.571999999985565
312452.2927,-51.395593765872995,-20.525044502295927,-70.43467064800748,-17.27244861223764,36.572999999974854
312452.2937,-52.96612087184646,-22.811030081034993,-74.74558916739835,-20.113938713781064,36.573999999964144
312452.2947,-53.77843157856661,-24.72221850767472,-77.76560787715573,-22.56952352982606,36.57500000001164
312452.2957,-53.87007008898058,-26.257056552291942,-79.45826736670261,-24.638886215690604,36.57600000000093
312452.2967,-53.301941698836096,-27.427824136172774,-79.82129033648773,-26.33664440002181,36.57699999999022
312452.2977,-52.15266193139931,-28.256994378620806,-78.8835764966584,-27.68810045304986,36.57799999997951
312452.2987,-50.51150903779621,-28.772521674110592,-76.70056352721136,-28.72387157155778,36.5789999999688
312452.2997,-48.47069620871034,-29.002656521149675,-73.3485609076116,-29.47405827778106,36.57999999995809
312452.3007,-46.11775172617408,-28.97094590066127,-68.91874055180841,-29.96267017042819,36.58100000000559
312452.3017,-43.52878738823561,-28.692065812450792,-63.511471985537234,-30.20301048756286,36.58199999999488
312452.3027,-40.76334835989143,-28.169048978094676,-57.23162051167052,-30.19462746421392,36.58299999998417
312452.3037,-37.861379496956424,-27.3923239359458,-50.185291950830766,-29.92227962402846,36.58399999997346
312452.3047,-34.84262954826282,-26.340786561610983,-42.478321185232815,-29.357149981246152,36.58499999996275
312452.3057,-31.708566391438275,-24.98490128062851,-34.21658310684213,-28.46030192806497,36.586000000010245
312452.3067,-28.44661801989706,-23.291599811519042,-25.507976200006606,-27.18812184635018,36.586999999999534
312452.3077,-25.03631091462811,-21.230533881556944,-16.46571448726655,-25.49926549941639,36.587999999988824
312452.3087,-21.456673876015323,-18.781067093237642,-7.2123853208071385,-23.362440577273304,36.588999999978114
312452.3097,-17.69413179876671,-15.939278262731271,2.115892543872488,-20.764235833973473,36.589999999967404
312452.3107,-13.750044948519353,-12.72420670444471,11.365930387713748,-17.71616145313423,36.59099999995669
312452.3117,-9.647062551108377,-9.182604736527438,20.365248793297,-14.26010157035753,36.59200000000419
312452.3127,-5.433554500049272,-5.391572211777495,28.921776381635286,-10.471496192811625,36.59299999999348
312452.3137,-1.1855533724865828,-1.4586228224401643,36.82590578008688,-6.459756157201349,36.59399999998277
312452.3147,2.994134747517858,2.481043525992082,43.85512812154311,-2.3656544414861163,36.59499999997206
312452.3157,6.979728991961495,6.2700345992755535,49.781218279356224,1.644291970229219,36.59599999996135
312452.3167,10.628985015909539,9.736739812482364,54.37968462553305,5.386158548220388,36.59700000000885
312452.3177,13.791960334038887,12.705258906972375,57.44095382902087,8.669119786751276,36.59799999999814
312452.3187,16.3213519156989,15.006562672567231,58.78255638498466,11.307364503337562,36.59899999998743
312452.3197,18.083560517907678,16.490026667568483,58.26143212150776,13.132509345214485,36.59999999997672
312452.3207,18.969547517914442,17.034416674054956,55.78540158185514,14.0055290761838,36.60099999996601
312452.3217,18.90454492682069,16.55742309062189,51.32285706147043,13.827236612629136,36.6019999999553
312452.3227,17.855758695472556,15.02293971074362,44.909817000292506,12.546444761858298,36.603000000002794
312452.3237,15.837362448993721,12.44545216213975,36.653652820954534,10.165116807316307,36.603999999992084
312452.3247,12.912299373527878,8.891127959379874,26.733024824775484,6.740049232195203,36.60499999998137
312452.3257,9.190674298219092,4.47546375189632,15.393834540303756,2.380906274392322,36.60599999997066
312452.3267,4.824802293814396,-0.6423772943419126,2.941292289524686,-2.755281583755719,36.60699999995995
312452.3277,0.0012588394463732904,-6.268138385173556,-10.271513724171864,-8.47276024259871,36.60800000000745
312452.3287,-5.069475089201067,-12.183320087288688,-23.857900764099384,-14.54819208374375,36.60899999999674
312452.3297,-10.164983747462125,-18.157498981756905,-37.41387076356307,-20.743456720099513,36.60999999998603
312452.3307,-15.063587425313308,-23.961194813528888,-50.53538443942345,-26.81915418484187,36.61099999997532
312452.3317,-19.55675112764484,-29.378336650969157,-62.83556231911379,-32.547812454682585,36.61199999996461
312452.3327,-23.460305695137162,-34.217428437870446,-73.96075938562726,-37.725845173029555,36.61300000001211
312452.3337,-26.623671517658973,-38.32063893715258,-83.60455400516885,-42.183428141668884,36.6140000000014
312452.3347,-28.93645788649991,-41.57022835231086,-91.51885597173178,-45.79165251945363,36.61499999999069
312452.3357,-30.332043740006366,-43.89195632731157,-97.5215582213386,-48.466550887398036,36.61599999997998
312452.3367,-30.78800630574571,-45.255372233293535,-101.50041316749679,-50.16985754960135,36.616999999969266
312452.3377,-30.323528955800995,-45.671145531448126,-103.4130863335059,-50.90663278764877,36.617999999958556
312452.3387,-28.99416456005964,-45.18582880504558,-103.28360504423102,-50.720128648751576,36.619000000006054
312452.3397,-26.884534140145647,-43.874638495729805,-101.19565768871597,-49.68447999453966,36.61999999999534
312452.3407,-24.099685392293797,-41.8329724873221,-97.2833917331071,-47.89595204470187,36.62099999998463
312452.3417,-20.755910229111628,-39.16744921107846,-91.72049285315161,-45.46355338296955,36.62199999997392
312452.3427,-16.97182030885461,-35.987246242807046,-84.70839518148215,-42.49982691928337,36.62299999996321
312452.3437,-12.860407157071867,-32.39644057154516,-76.46447143558811,-39.11256315198565,36.62400000001071
312452.3447,-8.52267828394099,-28.48791735332728,-67.21098508584862,-35.39804933483528,36.625
312452.3457,-4.043277718984082,-24.339233851180225,-57.16546347791225,-31.436289442057657,36.62599999998929
312452.3467,0.5117122000960604,-20.01061900531952,-46.53298400769231,-27.288421747740905,36.62699999997858
312452.3477,5.094809809009598,-15.545077165284397,-35.50067119540974,-22.996344101712594,36.62799999996787
312452.3487,9.675240693088934,-10.97036729649309,-24.2344985443081,-18.584352353264087,36.62899999995716
312452.3497,14.235510161779697,-6.302464683960275,-12.878293157042835,-14.062423660162118,36.63000000000466
312452.3507,18.766962737071168,-1.5499952076247157,-1.5546694893458406,-9.43064873565382,36.630999999993946
312452.3517,23.264913874475447,3.280928045883352,9.63251521757768,-4.684245501935208,36.631999999983236
312452.3527,27.72394062319404,8.18203630799873,20.59467784176006,0.18142464117852183,36.632999999972526
312452.3537,32.133859235351025,13.138918010387162,31.254527018327835,5.16636949386237,36.633999999961816
312452.3547,36.47680719148874,18.128119659090878,41.54209214939733,10.262441035021082,36.63500000000931
312452.3557,40.72569797782452,23.11559817502372,51.3912093763073,15.451069148731449,36.6359999999986
312452.3567,44.844145966446106,28.056624422599377,60.7368068604679,20.70239063044323,36.63699999998789
312452.3577,48.78778439403294,32.897070853995075,69.51320269016378,25.97574457055907,36.63799999997718
312452.3587,52.506740075749185,37.5758637237679,77.65348840713588,31.22135177900907,36.63899999996647
312452.3597,55.94890057722702,42.02825765741295,85.08993467441658,36.38287031511406,36.63999999995576
312452.3607,59.063526040736875,46.18950960522905,91.75523730095063,41.400434043345335,36.64100000000326
312452.3617,61.80472692952654,49.99849800071285,97.58433377271253,46.21374465680918,36.64199999999255
312452.3627,64.1343533312048,53.40085370694918,102.51647124237182,50.76480282949697,36.64299999998184
312452.3637,66.02391813886011,56.35123913898424,106.49720090204755,54.999928667821855,36.64399999997113
312452.3647,67.45529699423794,58.814522812193644,109.48001031815754,58.87082784061232,36.64499999996042
312452.3657,68.42009934451845,60.76573626349133,111.42737937802643,62.33459565690236,36.646000000007916
312452.3667,68.91777104533469,62.18885357552782,112.31114745127303,65.35270167943645,36.646999999997206
312452.3677,68.95265164857348,63.07458384353149,112.11219638416918,67.88914524255219,36.647999999986496
312452.3687,68.53035094153532,63.417497265737126,110.81957128456962,69.90810052542487,36.648999999975786
312452.3697,67.65391345132616,63.2129013707517,108.42926369274304,71.37146341723796,36.649999999965075
312452.3707,66.32029405811505,62.45393386822939,104.94295606652817,72.2367594867765,36.65100000001257
312452.3717,64.51766505265202,61.12933599182001,100.36706195547526,72.45586582846954,36.65200000000186
312452.3727,62.22401321010275,59.22231367252244,94.71238652918514,71.97493786979348,36.65299999999115
312452.3737,59.40736913713563,56.71078777467775,87.99467613226811,70.7358197497845,36.65399999998044
312452.3747,56.027850502680984,53.56918862211554,80.23622753338385,68.6790635659905,36.65499999996973
312452.3757,52.04151091422288,49.771778272250025,71.46859684009826,65.74850329064702,36.65599999995902
312452.3767,47.40578575868543,45.297303696949534,61.7362981187518,61.89714143120187,36.65700000000652
312452.3777,42.086135563744904,40.134613841437904,51.10122879236153,57.09393004166777,36.65799999999581
312452.3787,36.0633262792184,34.28873163448327,39.64742014726411,51.33088153623581,36.6589999999851
312452.3797,29.340671900690143,27.78677428063462,27.485603249164836,44.62984559101498,36.65999999997439
312452.3807,21.95051146930465,20.683073485496077,14.757017209421857,37.04824879391317,36.66099999996368
312452.3817,13.959207511351405,13.062868317887547,1.6358779588092809,28.68312067737835,36.662000000011176
312452.3827,5.470037781369717,5.044027849127345,-11.670023798807298,19.67282407035416,36.663000000000466
312452.3837,-3.376498656955793,-3.2235970416430577,-24.921018059421993,10.196063488217975,36.663999999989755
312452.3847,-12.405238214583738,-11.561404637241289,-37.84980707626816,0.46795052413508814,36.664999999979045
312452.3857,-21.411812430371082,-19.767849211224565,-50.16833684247954,-9.266857269396578,36.665999999968335
312452.3867,-30.170798873033345,-27.626587366449606,-61.57713135815228,-18.743678527795737,36.666999999957625
312452.3877,-38.44610854410983,-34.91650869500612,-71.77670895871317,-27.68948784305319,36.66800000000512
312452.3887,-46.00294310555917,-41.42300805123759,-80.48049442511225,-35.83604502060365,36.66899999999441
312452.3897,-52.62049483429273,-46.949718814665715,-87.42847280162586,-42.93361378313391,36.6699999999837
312452.3907,-58.10446923577849,-51.32985226085796,-92.40071773553534,-48.76432597251656,36.67099999997299
312452.3917,-62.29849471471468,-54.43628595471435,-95.22988112376804,-53.154240617739084,36.67199999996228
312452.3927,-65.093548576152,-56.18961578243577,-95.81175846275941,-55.98322006330931,36.67300000000978
312452.3937,-66.43466947740302,-56.56352686556322,-94.11314547923405,-57.19189270841427,36.67399999999907
312452.3947,-66.32443172386768,-55.58703671411882,-90.17636951225704,-56.78518190920328,36.67499999998836
312452.3957,-64.82290883777708,-53.34340267577107,-84.12010057248871,-54.83213549279688,36.67599999997765
312452.3967,-62.04413044233153,-49.96574419756875,-76.1363037146616,-51.46206811143528,36.67699999996694
312452.3977,-58.1493130396926,-45.629685813960286,-66.48346451756275,-46.85730509912602,36.67799999995623
312452.3987,-53.33739691459247,-40.54355643452125,-55.47647980958438,-41.243067406437675,36.679000000003725
312452.3997,-47.833625573964106,-34.93686404780695,-43.47383381134628,-34.87524074814521,36.679999999993015
312452.4007,-41.877042633561516,-29.047886245042484,-30.86285604289694,-28.02691088493242,36.680999999982305
312452.4017,-35.70784183933919,-23.11126564778514,-18.043966979185722,-20.974609625512326,36.681999999971595
312452.4027,-29.55548425715341,-17.346471828193753,-5.414852163964122,-13.985198467637993,36.682999999960884
312452.4037,-23.628395676956092,-11.94789119031182,6.644535925666445,-7.304222092927539,36.68400000000838
312452.4047,-18.105887558788016,-7.077143851496394,17.785360529440236,-1.14640263585944,36.68499999999767
312452.4057,-13.132723460076358,-2.8580178880819513,27.70104912106446,4.311265705547519,36.68599999998696
312452.4067,-8.816501668611503,0.6258233784997381,36.13579785871472,8.933602589753793,36.68699999997625
312452.4077,-5.227768191925105,3.330443659621147,42.89024904794757,12.628535047422355,36.68799999996554
312452.4087,-2.402537010123447,5.248847604104565,47.824381475183166,15.345854202143451,36.68900000001304
312452.4097,-0.3466990682274222,6.406288803947015,50.857850630479184,17.073880527093124,36.69000000000233
312452.4107,0.9583340634222597,6.854279675211916,51.96816936809599,17.834616987499896,36.69099999999162
312452.4117,1.5494697072004786,6.663970826104231,51.18721667256762,17.678036788504766,36.69199999998091
312452.4127,1.4759620747697584,5.919558254665281,48.596596648988424,16.6761492017484,36.6929999999702
312452.4137,0.7942483917828504,4.712301718339392,44.32234247975434,14.917416438055561,36.69399999995949
312452.4147,-0.4359353239504373,3.135606895325405,38.5293786237499,12.501967044595093,36.695000000006985
312452.4157,-2.153880963864341,1.2814530859032356,31.41603265575513,9.537882914959702,36.695999999996275
312452.4167,-4.298617332106548,-0.7617433209181568,23.208743865796066,6.138647878667479,36.696999999985565
312452.4177,-6.808159140517586,-2.9099301842999212,14.156969328848838,2.4216580914252184,36.697999999974854
312452.4187,-9.617647979553047,-5.083155363611214,4.528159816081756,-1.49247022493757,36.698999999964144
312452.4197,-12.656886774749976,-7.204635322982439,-5.397414534835975,-5.480182772938778,36.70000000001164
312452.4207,-15.847857538812223,-9.199629660724947,-15.332252075531809,-9.415312350156771,36.70100000000093
312452.4217,-19.102829306748077,-10.994607064908795,-24.987870936839403,-13.16990283380697,36.70199999999022
312452.4227,-22.323606515265187,-12.517137210527736,-34.08190334439793,-16.6159248498209,36.70299999997951
312452.4237,-25.40234309587021,-13.69683445098558,-42.34609207626147,-19.628154818877334,36.7039999999688
312452.4247,-28.224166856731436,-14.467524919112726,-49.53509084166277,-22.088322661897557,36.70499999995809
312452.4257,-30.6716410767607,-14.770626059681785,-55.435794610515345,-23.890440296825574,36.70600000000559
312452.4267,-32.63085858401307,-14.559537218427106,-59.876753393516736,-24.947025052798075,36.70699999999488
312452.4277,-33.99874279393127,-13.804663456933739,-62.737076105985125,-25.195752260572768,36.70799999998417
312452.4287,-34.690944462480644,-12.49855290885134,-63.954130679376,-24.605931222587014,36.70899999997346
312452.4297,-34.6495933593773,-10.660538132213738,-63.52930914799148,-23.184116554396102,36.70999999996275
312452.4307,-33.85010644928695,-8.340246298982317,-61.53116257573488,-20.978154937309224,36.711000000010245
312452.4317,-32.30627721998621,-5.619387450103192,-58.09532347232977,-18.07903100525456,36.711999999999534
312452.4327,-30.072975222143192,-2.611342972748843,-53.42081779069125,-14.620013021482366,36.712999999988824
312452.4337,-27.24596315734832,0.5417507329129756,-47.76261189666515,-10.772799100568202,36.713999999978114
312452.4347,-23.95857583120045,3.6745108469688477,-41.42052252353439,-6.740611073628397,36.714999999967404
312452.4357,-20.375279626254404,6.606254223805148,-34.72491518362433,-2.7484534757928496,36.71599999995669
312452.4367,-16.682417316197178,9.15098263580159,-28.019901693546156,0.9689758098643247,36.71700000000419
312452.4377,-13.076713794468915,11.12878790469993,-21.644993240554538,4.180995053731499,36.71799999999348
312452.4387,-9.752347318675353,12.377881937504442,-15.916347255306318,6.675350067274308,36.71899999998277
312452.4397,-6.887555369161442,12.766344862894082,-11.108844772310823,8.272290726651796,36.71999999997206
312452.4407,-4.631827114081014,12.202649572102688,-7.440237448476421,8.837242687972218,36.72099999996135
312452.4417,-3.09472611180402,10.644069010040187,-5.058505755729012,8.291062535548354,36.72200000000885
312452.4427,-2.3372860062006247,8.102201849830209,-4.033376672566936,6.617011927153435,36.72299999999814
312452.4437,-2.366735892318088,4.64505339990905,-4.352673620804359,3.863812293206091,36.72399999998743
312452.4447,-3.1350559944318994,0.39536558085838813,-5.923834054725673,0.14442849207855607,36.72499999997672
312452.4457,-4.541560104901958,-4.47481899141314,-8.580557375344656,-4.369446091525402,36.72599999996601
312452.4467,-6.439375245971828,-9.75307339077198,-12.094167567801506,-9.4568965093981,36.7269999999553
312452.4477,-8.645369762042087,-15.198414448120612,-16.18892194508294,-14.860663429669732,36.728000000002794
312452.4487,-10.952796611507917,-20.5552324146253,-20.560198752714395,-20.30249930085846,36.728999999992084
312452.4497,-13.145694097161268,-25.568334466775216,-24.89427713170628,-25.499912408073847,36.72999999998137
312452.4507,-15.013941478238285,-29.998016404590736,-28.88830177530733,-30.18309511824811,36.73099999997066
312452.4517,-16.367814613296883,-33.63406799883448,-32.26901240825223,-34.11081750709296,36.73199999995995
312452.4527,-17.050931551812454,-36.307698987580906,-34.808916989510536,-37.084151806314466,36.73300000000745
312452.4537,-16.950615771844323,-37.900538188837025,-36.33879021982737,-38.95706991811253,36.73399999999674
312452.4547,-16.00492326112334,-38.350093645546735,-36.75566982908178,-39.643210745911865,36.73499999998603
312452.4557,-14.20585944873218,-37.65134699952757,-36.02587908578136,-39.118424602521856,36.73599999997532
312452.4567,-11.598628342338682,-35.854465803639926,-34.182996231978706,-37.41904186216666,36.73699999996461
312452.4577,-8.27708121934912,-33.058926359501136,-31.32108798829525,-34.63615309838965,36.73800000001211
312452.4587,-4.375837365876096,-29.404620166027154,-27.583892088369858,-30.90649894356057,36.7390000000014
312452.4597,-0.05980813222482895,-25.06074495357332,-23.150942259319716,-26.400823134276983,36.73999999999069
312452.4607,4.487954179847017,-20.21343703408189,-18.221852189200412,-21.310719948964135,36.74099999997998
312452.4617,9.079055153060569,-15.05317227894456,-13.000093948891044,-15.835092715118446,36.741999999969266
312452.4627,13.53216374358143,-9.762943101554582,-7.677611119271997,-10.167326792369144,36.742999999958556
312452.4637,17.684061495081423,-4.50811125534632,-2.421497559516144,-4.484170905478327,36.744000000006054
312452.4647,21.398533456819205,0.5713480504540086,2.6362404414345013,1.0628738293520799,36.74499999999534
312452.4657,24.572525843274953,5.3657383430628345,7.405118332716913,6.353118323200722,36.74599999998463
312452.4667,27.139266049090644,9.797476651880881,11.838437845591976,11.298965865354633,36.74699999997392
312452.4677,29.06832825878244,13.819964763562073,15.93139467345758,15.844984348761221,36.74799999996321
312452.4687,30.3629048466379,17.4138603784942,19.71541037995814,19.96414218785447,36.74900000001071
312452.4697,31.05478380218305,20.581337721000903,23.24939403826286,23.651830307094492,36.75
312452.4707,31.197713354015242,23.339089154308212,26.60889045506945,26.918474743983037,36.75099999998929
312452.4717,30.859940850288517,25.710902866814443,29.874228213950392,29.78164200711476,36.75199999997858
312452.4727,30.116735614289293,27.720650217436717,33.118829601181524,32.25854465052586,36.75299999996787
312452.4737,29.043645269847342,29.38643177593437,36.3987836520265,34.35976903422522,36.75399999995716
312452.4747,27.711100645456327,30.71647357669179,39.7446215585527,36.08488135353384,36.75500000000466
312452.4757,26.18079193033565,31.707151849648945,43.15598861803165,37.42033998832025,36.755999999993946
312452.4767,24.504010036881276,32.34327807390012,46.59960459035046,38.33987623926792,36.756999999983236
312452.4777,22.721907242186802,32.60052223588371,50.01057562815791,38.807229236835155,36.757999999972526
312452.4787,20.867405983756864,32.449616731294576,53.296798583336184,38.78086254056939,36.758999999961816
312452.4797,18.968298062758873,31.861790314598426,56.34591378986877,38.22007580587695,36.76000000000931
312452.4807,17.050947933920042,30.81475018402154,59.03404213765942,37.09177618692105,36.7609999999986
312452.4817,15.143956293459569,29.298473508276043,61.23540598372675,35.377105255376925,36.76199999998789
312452.4827,13.281159145609656,27.32009252001929,62.83189180653776,33.07713422445077,36.76299999997718
312452.4837,11.503430034019154,24.907256580730802,63.72166625727054,30.216940413260264,36.76399999996647
312452.4847,9.858908398808243,22.109519403054286,63.82609749204544,26.847549938648278,36.76499999995576
312452.4857,8.401477614552496,18.997512304102923,63.0944429841852,23.045457119984697,36.76600000000326
312452.4867,7.187539928749995,15.65990257772019,61.50601954481513,18.909686299541658,36.76699999999255
312452.4877,6.271357569366053,12.198374975859497,59.06984329917339,14.55662019361255,36.76799999998184
312452.4887,5.69942520405589,8.721089126834391,55.82198822445982,10.113053900738338,36.76899999997113
312452.4897,5.504486917204023,5.335234333658896,51.82113490358865,5.708121318932528,36.76999999996042
312452.4907,5.699894108613689,2.139408240956353,47.14294437323798,1.4648619742541826,36.771000000007916
312452.4917,6.27500910186899,-0.7834234989777206,41.87398005660749,-2.507761008597558,36.771999999997206
312452.4927,7.192290415292254,-3.3716764719053636,36.10590657902363,-6.121621018596135,36.772999999986496
312452.4937,8.386555217984997,-5.589015744219978,29.93061920889003,-9.314313852622146,36.773999999975786
312452.4947,9.766715528766273,-7.425934605463847,23.436811504660398,-12.051702067368149,36.774999999965075
312452.4957,11.220046425196815,-8.898859958078402,16.708288435800824,-14.32788331450127,36.77600000001257
312452.4967,12.618790373953711,-10.046846023005541,9.8241001394397,-16.162605532930368,36.77700000000186
312452.4977,13.828657173989061,-10.926159957288084,2.860333039793077,-17.5964079150859,36.77799999999115
312452.4987,14.718568759380497,-11.603277126398579,-4.106823705101374,-18.683995609795343,36.77899999998044
312452.4997,15.17084406379701,-12.146968607298225,-10.99729363032036,-19.486535113880095,36.77999999996973
312452.5007,15.0909379440276,-12.620262251042153,-17.723279590900678,-20.063668077113885,36.78099999995902
312452.5017,14.415849575490318,-13.073080954556456,-24.186087016297268,-20.466072330341394,36.78200000000652
312452.5027,13.120401656143681,-13.536304779272351,-30.274264134671935,-20.729346715906875,36.78299999999581
312452.5037,11.220755900752001,-14.017872081701917,-35.86359650009433,-20.86986536532354,36.7839999999851
312452.5047,8.774758711180388,-14.501341108132642,-40.81930369059779,-20.8830498871431,36.78499999997439
312452.5057,5.878983167112116,-14.947095983506935,-45.00054874662804,-20.74426363294648,36.78599999996368
312452.5067,2.662624629166418,-15.29612258375962,-48.26710977061823,-20.41226478242311,36.787000000011176
312452.5077,-0.7213098978764477,-15.476025565076956,-50.487805072848815,-19.834890923647606,36.788000000000466
312452.5087,-4.106830722603404,-15.40873277581479,-51.55003553765136,-18.956413495536438,36.788999999989755
312452.5097,-7.32693593644262,-15.019159677390652,-51.369635148056055,-17.72581956415913,36.789999999979045
312452.5107,-10.225735030360891,-14.244001642789204,-49.900122349731504,-16.105169456464505,36.790999999968335
312452.5117,-12.669714325252695,-13.039796835389476,-47.140433428298984,-14.077153288329345,36.791999999957625
312452.5127,-14.557201394601858,-11.389459798380688,-43.14029800464559,-11.651030694978003,36.79300000000512
312452.5137,-15.825239842588102,-9.306620825657646,-38.00258075224411,-8.866280805327827,36.79399999999441
312452.5147,-16.453311664787147,-6.837305952499541,-31.882148551865335,-5.793500304652144,36.7949999999837
312452.5157,-16.463621115159974,-4.058737947620911,-24.981107332357674,-2.532346125134306,36.79599999997299
312452.5167,-15.917955844056957,-1.0753064722185637,-17.5405614749586,0.7933990712101263,36.79699999996228
312452.5177,-14.911440019029582,1.9879800960972112,-9.829352032809632,4.043283170021626,36.79800000000978
312452.5187,-13.563762521122062,4.994013112102973,-2.130499613368395,7.06956113707745,36.79899999999907
312452.5197,-12.008676485101532,7.8033399832158405,5.273711817416554,9.72769931491636,36.79999999998836
312452.5207,-10.382705167484762,10.284310267718874,12.116942564841272,11.887097570055666,36.80099999997765
312452.5217,-8.814041312588122,12.322727135619783,18.163188669063786,13.441086873299636,36.80199999996694
312452.5227,-7.412589048117178,13.830165865521595,23.219304919172963,14.3153154715331,36.80299999995623
312452.5237,-6.261973629560635,14.750244680473667,27.14475271446987,14.47377517557339,36.804000000003725
312452.5247,-5.414147817902614,15.06232215756439,29.85788860540549,13.921927264749703,36.804999999993015
312452.5257,-4.886973763866012,14.782331315275151,31.338388553774738,12.70664533263764,36.805999999982305
312452.5267,-4.664880199167685,13.960720614086616,31.625713529364074,10.912975650261258,36.806999999971595
312452.5277,-4.702413128157167,12.677731722920791,30.81383609557554,8.65799758025916,36.807999999960884
312452.5287,-4.93024054818939,11.036478519591277,29.0427372307985,6.0823207728814035,36.80900000000838
312452.5297,-5.262961805233728,9.154479555895357,26.487422501075322,3.3399586330345383,36.80999999999767
312452.5307,-5.607928889932722,7.15441999096794,23.345376504411778,0.5874502315734583,36.81099999998696
312452.5317,-5.87422249363702,5.154967975169446,19.823460697762435,-2.026846374952995,36.81199999997625
312452.5327,-5.980944385381004,3.2624411751724582,16.125256711802024,-4.3724014404194955,36.81299999996554
312452.5337,-5.86408592938782,1.564015702881468,12.439767847722797,-6.344329843010106,36.81400000001304
312452.5347,-5.481398964693143,0.12300342460584289,8.932226399764378,-7.86879038287248,36.81500000000233
312452.5357,-4.814911983422812,-1.0234882626182054,5.737531333489809,-8.905617999994684,36.81599999999162
312452.5367,-3.870979121053088,-1.8644361173228308,2.9565822554561936,-9.448101753134834,36.81699999998091
312452.5377,-2.677997118574904,-2.4124787457220505,0.6555068569154047,-9.520085423564993,36.8179999999702
312452.5387,-1.2821514927755635,-2.6995648280911713,-1.132474337211825,-9.170807167846581,36.81899999995949
312452.5397,0.25826437753629344,-2.7712151576302384,-2.403016721464733,-8.468086939044907,36.820000000006985
312452.5407,1.8792919359213978,-2.6800533250111225,-3.1750817637117614,-7.490597652748835,36.820999999996275
312452.5417,3.5177966736214414,-2.4793024746864036,-3.484543393885755,-6.320007279814676,36.821999999985565
312452.5427,5.1173138245552945,-2.216916519687558,-3.3776969630395435,-5.033750981581538,36.822999999974854
312452.5437,6.632656397119727,-1.9309181377870355,-2.905335583299981,-3.699089871319282,36.823999999964144
312452.5447,8.0328466851485,-1.6463641138542469,-2.11793378434477,-2.3689482340438412,36.82500000001164
312452.5457,9.30212966714242,-1.3741679650862992,-1.0623059978992206,-1.0798124117743102,36.82600000000093
312452.5467,10.439044544121442,-1.111800831675986,0.22009241454751893,0.14825544300188373,36.82699999999022
312452.5477,11.453745823828022,-0.8456864623279668,1.6932586656263076,1.3096626436981254,36.82799999997951
312452.5487,12.363955139517195,-0.5549261971922885,3.325355234573008,2.409764821674449,36.8289999999688
312452.5497,13.190069608798215,-0.21585367315400988,5.086417092161844,3.4603067022132703,36.82999999995809
312452.5507,13.950037150862734,0.19315972581518723,6.9455274719365665,4.474444951257631,36.83100000000559
312452.5517,14.654625419395218,0.6872413419057135,8.867973847243599,5.461994626798457,36.83199999999488
312452.5527,15.303657828140503,1.2714363937533124,10.812870376223495,6.425490889226847,36.83299999998417
312452.5537,15.883673910387436,1.9384394034431038,12.73164970960175,7.357543182465796,36.83399999997346
312452.5547,16.3673050387178,2.667909733593415,14.567697201087928,8.239793568191724,36.83499999996275
312452.5557,16.71445871652645,3.4274562094573207,16.257240719103702,9.043593035216253,36.836000000010245
312452.5567,16.875196947771833,4.175180389389887,17.73143901813941,9.732301417993561,36.836999999999534
312452.5577,16.79399931342278,4.863485452396776,18.91945140907727,10.264920937863915,36.837999999988824
312452.5587,16.414940635997837,5.443707832508128,19.752140220041362,10.600611696514246,36.838999999978114
312452.5597,15.68720413018684,5.871028057430454,20.165970643704505,10.703527314938203,36.839999999967404
312452.5607,14.570305823305704,6.1090769159179965,20.106640172790648,10.547362367364544,36.84099999995669
312452.5617,13.038430097077262,6.133677865815989,19.531995790170615,10.11902557138852,36.84200000000419
312452.5627,11.08336741872228,5.935254406451818,18.413878606060667,9.420941837433837,36.84299999999348
312452.5637,8.715694519676365,5.519573219861109,16.73866362244728,8.47163317429227,36.84399999998277
312452.5647,5.964029060096956,4.906675713089493,14.506422364939656,7.30441790439105,36.84499999997206
312452.5657,2.8724051544979625,4.128053348987454,11.728810135329601,5.9642799130707616,36.84599999996135
312452.5667,-0.5039696173974135,3.222324618325823,8.425947692996044,4.503172429252491,36.84700000000885
312452.5677,-4.104123882634837,2.2298522099155047,4.622709686555694,2.9742114913743585,36.84799999999814
312452.5687,-7.8672997375551725,1.1868783283778597,0.34493195868111076,1.4253621544528556,36.84899999998743
312452.5697,-11.738811891424337,0.11983856178991573,-4.3839059801442515,-0.10669091504425021,36.84999999997672
312452.5707,-15.675087732154422,-0.95946987625866,-9.544985724141732,-1.6017783010106201,36.85099999996601
312452.5717,-19.647247051141996,-2.0572447845606305,-15.12498675893147,-3.0599314201659293,36.8519999999553
312452.5727,-23.642710770935913,-3.199061750419967,-21.1151401051826,-4.502989900267004,36.853000000002794
312452.5737,-27.66451818421245,-4.428962897095667,-27.508369351794144,-5.973787382397443,36.853999999992084
312452.5747,-31.728264298590407,-5.80615039216338,-34.29460372737347,-7.532800881683625,36.85499999998137
312452.5757,-35.85682063993451,-7.399422345177165,-41.454569740715186,-9.25239895122418,36.85599999997066
312452.5767,-40.073249580022825,-9.279724590178864,-48.95257538734046,-11.209071733887725,36.85699999995995
312452.5777,-44.392539142231286,-11.511401729676312,-56.728972372950075,-13.474247438570139,36.85800000000745
312452.5787,-48.81294988211135,-14.142893753104921,-64.69309829454006,-16.104472795528103,36.85899999999674
312452.5797,-53.307859988840534,-17.197723656265513,-72.7175477706263,-19.131841775867755,36.85999999998603
312452.5807,-57.8190077062411,-20.666645620561752,-80.6345905622557,-22.55558536967229,36.86099999997532
312452.5817,-62.251957552249216,-24.501768125787986,-88.23544405122993,-26.335680667115568,36.86199999996461
312452.5827,-66.47446264412096,-28.61333481802959,-95.27292248197344,-30.38920264986184,36.86300000001211
312452.5837,-70.31817145240394,-32.86964805995365,-101.46773844591186,-34.589937173616434,36.8640000000014
312452.5847,-73.5838519686192,-37.10037208984198,-106.51844150254203,-38.77151536161481,36.86499999999069
312452.5857,-76.05000313489958,-41.10317562052559,-110.11466748890018,-42.734039878084985,36.86599999997998
312452.5867,-77.48441900394918,-44.653391440438945,-111.95306564439181,-46.253877313947136,36.866999999969266
312452.5877,-77.65799265420318,-47.516107832302076,-111.75499554477088,-49.09601413507368,36.867999999958556
312452.5887,-76.35981974080545,-49.45988666767449,-109.28486688779506,-51.02814088124738,36.869000000006054
312452.5897,-73.41250697561485,-50.27114562645017,-104.3678536919799,-51.83546155060762,36.86999999999534
312452.5907,-68.68652401613981,-49.76816160674335,-96.90566625191217,-51.3351378806546,36.87099999998463
312452.5917,-62.11246596729764,-47.81365691833161,-86.88911801748768,-49.389280178078515,36.87199999997392
312452.5927,-53.69021750156309,-44.32501985224335,-74.40638117792982,-45.91548839080643,36.87299999996321
312452.5937,-43.49421974486976,-39.281379833422946,-59.64607643736188,-40.89412235427408,36.87400000001071
312452.5947,-31.674321210149653,-32.72699087919449,-42.894673379425335,-34.37172439637145,36.875
312452.5957,-18.45202157006345,-24.7706560998754,-24.528064800205335,-26.460310491040943,36.87599999998929
312452.5967,-4.112264960348792,-15.581227069963278,-4.997592665825436,-17.33256332053191,36.87699999997858
312452.5977,11.008721248414002,-5.379509672918066,15.188787317655743,-7.213275167695599,36.87799999996787
312452.5987,26.53874426212379,5.5728226638716105,35.48914425296741,3.632326093962689,36.87899999995716
312452.5997,42.08708313854455,16.98648924167302,55.352653357777314,14.912502599803359,36.88000000000466
312452.6007,57.26285241331101,28.559067878217448,74.24555313283409,26.324159046876677,36.880999999993946
312452.6017,71.69303935534329,39.98963065645555,91.67631960285419,37.56812397102637,36.881999999983236
312452.6027,85.03900375002546,50.99253264888074,107.21843142888274,48.36347907831264,36.882999999972526
312452.6037,97.01036792453091,61.30943846243936,120.52925619783358,58.459962009438,36.883999999961816
312452.6047,107.37544814786646,70.71884626297162,131.3638574458516,67.64765195446982,36.88500000000931
312452.6057,115.96766651090127,79.04260000625183,139.58288299026157,75.76339220238175,36.8859999999986
312452.6067,122.68770924253388,86.14914631581976,145.15411892985162,82.69368640689034,36.88699999998789
312452.6077,127.50153421865278,91.9535683599675,148.14774578258815,88.37410036629129,36.88799999997718
312452.6087,130.43464769284168,96.41469022990786,148.72577690428056,92.78548205559811,36.88899999996647
312452.6097,131.5633407591606,99.52976860367686,147.12655884359629,95.94755492697506,36.88999999995576
312452.6107,131.0037772483958,101.32745483509194,143.6455371709614,97.9106226383389,36.89100000000326
312452.6117,128.8999409970228,101.8598067972777,138.61371514945037,98.74623291743748,36.89199999999255
312452.6127,125.4114742740555,101.1941496135911,132.37534108978875,98.53767704818472,36.89299999998184
312452.6137,120.70237195476233,99.4055290988023,125.26634833052539,97.37115014332076,36.89399999997113
312452.6147,114.93134762174024,96.57037980677282,117.59494495310845,95.32827420676502,36.89499999996042
312452.6157,108.24447532466175,92.76185576613547,109.6255236837951,92.48050586445983,36.896000000007916
312452.6167,100.77045691425312,88.04706564382437,101.56675903350798,88.88573341290376,36.896999999997206
312452.6177,92.61859551746872,82.48623716578523,93.56440727822157,84.5871362566191,36.897999999986496
312452.6187,83.8792972297505,76.1336304394271,85.69895688063359,79.61415720229272,36.898999999975786
312452.6197,74.62669981351712,69.03984674020292,77.98792371124746,73.98524599650379,36.899999999965075
312452.6207,64.92285907220482,61.25505478175187,70.39227520852423,67.71188859195854,36.90100000001257
312452.6217,54.822824338899814,52.83259139054148,62.826223157287586,60.80335298068294,36.90200000000186
312452.6227,44.37991046345793,43.83239222024896,55.169461390659826,53.271564444468744,36.90299999999115
312452.6237,33.65052321892658,34.32376817459841,47.2808492614174,45.13556907382098,36.90399999998044
312452.6247,22.698009090075683,24.387155586645427,39.01255228968841,36.42514598826007,36.90499999996973
312452.6257,11.595163477734658,14.114618520537805,30.223738021554986,27.1832717310233,36.90599999995902
312452.6267,0.4252233329669118,3.609051578877941,20.793071279403335,17.46730658592991,36.90700000000652
312452.6277,-10.718631440540515,-7.017798765778974,10.629437610518684,7.348941778814341,36.90799999999581
312452.6287,-21.735061395643065,-17.648226786604233,-0.3194761805368284,-3.086901443307666,36.9089999999851
312452.6297,-32.517283704749794,-28.16199441770771,-12.060922383818866,-13.743912750756497,36.90999999997439
312452.6307,-42.956275502908206,-38.43985100218549,-24.553164663500546,-24.516596778751698,36.91099999996368
312452.6317,-52.94398694192761,-48.366700019145,-37.703766780782544,-35.29245042995302,36.912000000011176
312452.6327,-62.3761185427542,-57.834020530759474,-51.36990385025023,-45.95376735105144,36.913000000000466
312452.6337,-71.15410838194379,-66.7412565368771,-65.36047257282144,-56.3788180424075,36.913999999989755
312452.6347,-79.18611261682896,-74.99603253675284,-79.43978996332764,-66.4422872377289,36.914999999979045
312452.6357,-86.38693047537149,-82.51322142337682,-93.33271419006738,-76.01500502998182,36.915999999968335
312452.6367,-92.67700117055914,-89.21306148106059,-106.73108068395646,-84.96316478008158,36.916999999957625
312452.6377,-97.98076305730139,-95.01867205001861,-119.30140438743663,-93.14735846439683,36.91800000000512
312452.6387,-102.22479377604348,-99.85343319588979,-130.69383832869642,-100.42185976923989,36.91899999999441
312452.6397,-105.33622677003564,-103.63875797064698,-140.55238604298827,-106.6346317536872,36.9199999999837
312452.6407,-107.24195268581846,-106.29278652645999,-148.52633204867539,-111.62851979913144,36.92099999997299
312452.6417,-107.86905908047605,-107.73046610559602,-154.2827781925889,-115.24400931811383,36.92199999996228
312452.6427,-107.14684162022284,-107.86535370169716,-157.52005859968136,-117.32378625635094,36.92300000000978
312452.6437,-105.01054523733615,-106.61329995396447,-157.98166315312244,-117.71914894262669,36.92399999999907
312452.6447,-101.4067818599805,-103.89796067449188,-155.47014533610792,-116.29810060884952,36.92499999998836
312452.6457,-96.30034466316931,-99.65785785579574,-149.86034501645344,-112.95472557348955,36.92599999997765
312452.6467,-89.68192233314792,-93.85449889390433,-141.11114183839254,-107.6192433829292,36.92699999996694
312452.6477,-81.57603568687618,-86.4808847562859,-129.2748905457833,-100.26796833351526,36.92799999995623
312452.6487,-72.04839558751537,-77.56961589418916,-114.50369221304358,-90.9322977823028,36.929000000003725
312452.6497,-61.21183271668899,-67.19975480820614,-97.05173534270115,-79.70582697152612,36.929999999993015
312452.6507,-49.22998645381193,-55.50163542552032,-77.27310072116248,-66.74874878558892,36.930999999982305
312452.6517,-36.31806336226924,-42.658922899740126,-55.61465789502365,-52.28884340468635,36.931999999971595
312452.6527,-22.74017806530057,-28.907415766817977,-32.60397483309746,-36.61858586496897,36.932999999960884
312452.6537,-8.803054566186786,-14.530330384098459,-8.83249417636451,-20.088181588443497,36.93400000000838
312452.6547,5.15382880908706,0.14990644396437908,15.065427481655197,-3.094656946359953,36.93499999999767
312452.6557,18.771250701283453,14.783032872544762,38.43669625916719,13.932544448804933,36.93599999998696
312452.6567,31.685715379037468,29.004889780416956,60.63567588469007,30.54870853598978,36.93699999997625
312452.6577,43.5464285868864,42.45307618130478,81.05100058248985,46.31274038264457,36.93799999996554
312452.6587,54.03265167200237,54.78330455113771,99.13149772009307,60.80662237854961,36.93900000001304
312452.6597,62.87021766913263,65.68534843373877,114.40971109130341,73.65418537089947,36.94000000000233
312452.6607,69.8460072330235,74.89747725636097,126.52162523927656,84.53795660070166,36.94099999999162
312452.6617,74.81929901239474,82.21836905433305,135.22140502372852,93.21296832009838,36.94199999998091
312452.6627,77.72911960324889,87.51567283934241,140.39026755933668,99.51662178242147,36.9429999999702
312452.6637,78.59700525705935,90.73064288789547,142.03897294080676,103.37398506826308,36.94399999995949
312452.6647,77.52492668070572,91.87856524955734,140.30382749477397,104.79823570848858,36.945000000006985
312452.6657,74.6884904583605,91.04501611521339,135.43650727260663,103.88631195817689,36.945999999996275
312452.6667,70.32588475146623,88.37830451491978,127.78839842387902,100.81018006456448,36.946999999985565
312452.6677,64.72335274596047,84.07873121698248,117.79048569143757,95.8044303948492,36.947999999974854
312452.6687,58.19822816955071,78.38551811719019,105.93007616072099,89.15115805674718,36.948999999964144
312452.6697,51.08073242882969,71.56240973338478,92.72580507514955,81.16324478228991,36.95000000001164
312452.6707,43.695799631240604,63.88300955789016,78.7024247103545,72.16722696200284,36.95100000000093
312452.6717,36.34615992472062,55.61688576757929,64.36682548374928,62.48690676342202,36.95199999999022
312452.6727,29.297778262318673,47.017367992128186,50.18658871435339,52.4287446271598,36.95299999997951
312452.6737,22.76852842167654,38.311771787035624,36.57213834523368,42.26987523951717,36.9539999999688
312452.6747,16.920701527955718,29.694548612613264,23.86326601110382,32.24933484593567,36.95499999995809
312452.6757,11.857630177059178,21.32358929030736,12.32047539215205,22.56279945871382,36.95600000000559
312452.6767,7.624381892663635,13.319633045502465,2.12125460901386,13.360837249938887,36.95699999999488
312452.6777,4.212167403541792,5.768477095171259,-6.638934658099898,4.75040006044321,36.95799999998417
312452.6787,1.5658458006104783,-1.2745344463208785,-13.941442796300452,-3.2009582563849284,36.95899999997346
312452.6797,-0.40628917696233424,-7.778421017791624,-19.835706334507186,-10.458826389332176,36.95999999996275
312452.6807,-1.8213755412370418,-13.729641038029111,-24.427876486378743,-17.014438004785553,36.961000000010245
312452.6817,-2.810467897078516,-19.12510953333835,-27.867745211570085,-22.876754727435127,36.961999999999534
312452.6827,-3.507554004631667,-23.96587379117321,-30.334914790010014,-28.064904391823205,36.962999999988824
312452.6837,-4.0398887809220385,-28.252037540226627,-32.02509294370074,-32.60163452376133,36.963999999978114
312452.6847,-4.520244635938907,-31.97934966978254,-33.13727672878659,-36.508273979256174,36.964999999967404
312452.6857,-5.041451531137715,-35.13766873308902,-33.86243023348294,-39.80149512225125,36.96599999995669
312452.6867,-5.673359169753084,-37.71130051739349,-34.374080809095695,-42.49195587906895,36.96700000000419
312452.6877,-6.462120826877436,-39.681004024775625,-34.82107349186397,-44.58469668694123,36.96799999999348
312452.6887,-7.431495132415846,-41.02729061254528,-35.322549362642135,-46.08099116469809,36.96899999998277
312452.6897,-8.585706350870172,-41.73451741732922,-35.96506402570818,-46.98121709649306,36.96999999997206
312452.6907,-9.913307618274816,-41.79521007406335,-36.801646668333184,-47.28823688765047,36.97099999996135
312452.6917,-11.391461023558376,-41.214045718608276,-37.85252354689693,-47.010759039923485,36.97200000000885
312452.6927,-12.9900824181704,-40.01098365714277,-39.107193098852115,-46.166193280339556,36.97299999999814
312452.6937,-14.675390019390496,-38.223140279077874,-40.52753992481673,-44.78260479474568,36.97399999998743
312452.6947,-16.412531338662834,-35.9051540850299,-42.05170481119246,-42.899505584115325,36.97499999997672
312452.6957,-18.167125733548684,-33.12795965123262,-43.598478345178,-40.56737758557874,36.97599999996601
312452.6967,-19.905730684466715,-29.97606743434868,-45.07204561411524,-37.84598511113013,36.9769999999553
312452.6977,-21.595399180198505,-26.543610792761434,-46.36696788407091,-34.80168532750245,36.978000000002794
312452.6987,-23.202625514206794,-22.92955536225441,-47.373334005122494,-31.50406847435822,36.978999999992084
312452.6997,-24.69206302516678,-19.23255521504084,-47.98204182473383,-28.022341071510542,36.97999999998137
312452.7007,-26.025430510259163,-15.545975993683012,-48.0901735013671,-24.421896841677434,36.98099999997066
312452.7017,-27.161000763432654,-11.953583986317932,-47.60640742502424,-20.76149825062427,36.98199999995995
312452.7027,-28.053987759850155,-8.526324372969631,-46.45636647121631,-17.091418971934317,36.98300000000745
312452.7037,-28.65802718903965,-5.3204897779850215,-44.5877441062488,-13.45278223559632,36.98399999999674
312452.7047,-28.927792136665662,-2.377424811603233,-41.974985816750575,-9.878184593610623,36.98499999998603
312452.7057,-28.822619135280615,0.2752599973273986,-38.62324457780687,-6.393535161097607,36.98599999997532
312452.7067,-28.310858747508266,2.621162208640515,-34.57128711946504,-3.0208845972605247,36.98699999996461
312452.7077,-27.37452829660123,4.651597580687743,-29.893013080294914,0.21811643110426374,36.98800000001211
312452.7087,-26.013749088536887,6.3616089218789975,-24.69726981731688,3.2985871945823555,36.9890000000014
312452.7097,-24.25040923060135,7.746001592068311,-19.1257061713705,6.189121909647037,36.98999999999069
312452.7107,-22.130513267302657,8.79594172149919,-13.348508983297082,8.849329320433982,36.99099999997998
312452.7117,-19.72476233389701,9.496602181043801,-7.558002002108703,11.228642035854781,36.991999999969266
312452.7127,-17.127047805634216,9.826235134639923,-1.9602488293230214,13.266714037799554,36.992999999958556
312452.7137,-14.450725762026233,9.756898447437242,3.235023387822473,14.895565973284427,36.994000000006054
312452.7147,-11.822752120997743,9.256881010860306,7.825690522842209,16.043452124357724,36.99499999999534
312452.7157,-9.375978597345666,8.294677359208013,11.629046950154798,16.640228718474006,36.99599999998463
312452.7167,-7.240115671098562,6.8441746840350515,14.493412892233533,16.623820395263078,36.99699999997392
312452.7177,-5.532039036820427,4.890555144217717,16.308712151289036,15.947229597780424,36.99799999996321
312452.7187,-4.346231770782103,2.4363006457263188,17.015196486089867,14.585429375103853,36.99900000001071
312452.7197,-3.746201563015028,-0.4933705488171454,16.60955874042355,12.54143632398456,37.0
312452.7207,-3.7576828502746284,-3.846297921418018,15.147810828682312,9.850884311851837,37.00099999998929
312452.7217,-4.364326737728006,-7.54099037957192,12.74449863182983,6.584511884316794,37.00199999997858
312452.7227,-5.506403859189682,-11.466504145658748,9.568071475514921,2.848130799680428,37.00299999996787
312452.7237,-7.082810507734562,-15.484846015924827,5.832501559332507,-1.2201524604061882,37.00399999995716
312452.7247,-8.956396139469087,-19.435937165693222,1.7855368831609955,-5.455453799810431,37.00500000000466
312452.7257,-10.962344619926858,-23.14493473977744,-2.305753965777716,-9.67411156248439,37.005999999993946
312452.7267,-12.919068300421085,-26.43147905265668,-6.171249336502786,-13.683679019676203,37.006999999983236
312452.7277,-14.640838733038782,-29.120235550901953,-9.554780341147675,-17.29421899640457,37.007999999972526
312452.7287,-15.951203232884358,-31.051952535791862,-12.230699832977416,-20.330065507951357,37.008999999961816
312452.7297,-16.696140126302712,-32.09417335862057,-14.018827020074896,-22.641142527691457,37.01000000000931
312452.7307,-16.755898026245728,-32.150734744851086,-14.79666106188474,-24.11293417652824,37.0109999999986
312452.7317,-16.05454844561599,-31.169253451485165,-14.507927584794665,-24.67428526642189,37.01199999998789
312452.7327,-14.566450677361217,-29.145946692328664,-13.166771024701802,-24.302370259947935,37.01299999997718
312452.7337,-12.31906935052898,-26.127335857333644,-10.857214712476562,-23.024389268240782,37.01399999996647
312452.7347,-9.39187788124434,-22.20863035826288,-7.727855813814998,-20.91581273581611,37.01499999995576
312452.7357,-5.911399767498984,-17.528857119172027,-3.9821162817052085,-18.09527881655698,37.01600000000326
312452.7367,-2.0427563804983957,-12.263067314921601,0.13529461283902722,-14.71652396861581,37.01699999999255
312452.7377,2.0216233220336735,-6.6121915579300925,4.354763045171719,-10.957973142598593,37.01799999998184
312452.7387,6.075244187672677,-0.7913062813354718,8.399838455308075,-7.010808896905188,37.01899999997113
312452.7397,9.91169443380084,4.982799665806888,12.005697490447254,-3.066461341481374,37.01999999996042
312452.7407,13.338593657474851,10.503819515402709,14.936685703248285,0.6954981811794023,37.021000000007916
312452.7417,16.19025750046499,15.5869767222011,17.001691177756353,4.118121107556624,37.021999999997206
312452.7427,18.338116923556143,20.078128464967737,18.066273145906692,7.0756905144054345,37.022999999986496
312452.7437,19.698130474005797,23.860303205283465,18.06072034505614,9.47955775198576,37.023999999975786
312452.7447,20.234690769647695,26.857279580306077,16.983527969792625,11.28083785564874,37.024999999965075
312452.7457,19.960827932841063,29.034073206519285,14.900133061500288,12.469872672700163,37.02600000001257
312452.7467,18.93482586357083,30.394464401399876,11.93710750981798,13.072653238181259,37.02700000000186
312452.7477,17.25366420344736,30.97594924191131,8.272346343560143,13.144654609303862,37.02799999999115
312452.7487,15.043953483538859,30.84270629064659,4.122079343004435,12.762753472944922,37.02899999998044
312452.7497,12.451221213295552,30.07732298200654,-0.2742469429913131,12.01605183243615,37.02999999996973
312452.7507,9.628516549083072,28.77210578030506,-4.670038952342293,10.996505332465656,37.03099999995902
312452.7517,6.725322140469467,27.020800194607936,-8.827366798919245,9.790245854243626,37.03200000000652
312452.7527,3.8776934520541455,24.911471260046422,-12.531370776418255,8.470396270622723,37.03299999999581
312452.7537,1.2003961411889186,22.521150116476576,-15.602275558038246,7.092009759128932,37.0339999999851
312452.7547,-1.218403808125681,19.912652290180947,-17.904257012276624,5.689542782739565,37.03499999997439
312452.7557,-3.3196033234928346,17.133737837460924,-19.350693980318354,4.277011137143985,37.03599999996368
312452.7567,-5.072765588529725,14.218535591339714,-19.90565306384593,2.850707137562383,37.037000000011176
312452.7577,-6.473123849431733,11.190917474482422,-19.581770254584733,1.3940989978704739,37.038000000000466
312452.7587,-7.536486841208659,8.069307182544726,-18.434981364015073,-0.11568467328859723,37.038999999989755
312452.7597,-8.29273248264532,4.8722601558535885,-16.55678892468162,-1.7005406501058151,37.039999999979045
312452.7607,-8.778689634320637,1.6240730792635836,-14.064916981950175,-3.374085779741576,37.040999999968335
312452.7617,-9.031238521858947,-1.6403210068336525,-11.093284375072546,-5.135199288447564,37.041999999957625
312452.7627,-9.081406879961945,-4.871841129176689,-7.782217157141932,-6.963168112987439,37.04300000000512
312452.7637,-8.95010710815546,-8.005654860528484,-4.269725540785059,-8.815031832226989,37.04399999999441
312452.7647,-8.645963447793129,-10.961806839294827,-0.684501929803767,-10.625504505186841,37.0449999999837
312452.7657,-8.165437352523433,-13.648166359363437,2.858927292290174,-12.309592010492988,37.04599999997299
312452.7667,-7.495198147757456,-15.96553091696486,6.262719053692445,-13.767750233974121,37.04699999996228
312452.7677,-6.616431102254627,-17.81448402169786,9.44598381003994,-14.893168130537564,37.04800000000978
312452.7687,-5.510551998772471,-19.103402456514807,12.343132761668672,-15.580535794536846,37.04899999999907
312452.7697,-4.165629000601867,-19.756861222051082,14.900821715831281,-15.73549329744379,37.04999999998836
312452.7707,-2.5827166103313313,-19.723609117430776,17.074142947902924,-15.283867721529434,37.05099999997765
312452.7717,-0.7812933238133926,-18.983292997701472,18.82277166546006,-14.179802868301119,37.05199999996694
312452.7727,1.196933413253658,-17.55119519382005,20.10774770172313,-12.411969728789423,37.05299999995623
312452.7737,3.286440198361229,-15.48040945607549,20.889469428252706,-10.007208800427245,37.054000000003725
312452.7747,5.3988876132046775,-12.861101810216613,21.1273071589185,-7.031182816812415,37.054999999993015
312452.7757,7.426815451515788,-9.81676356314758,20.78102597885225,-3.5858891452607606,37.055999999982305
312452.7767,9.249861954377627,-6.497639864980968,19.813966487210134,0.1958306467938467,37.056999999971595
312452.7777,10.743064944447006,-3.071782394258804,18.197692597826446,4.158368325962584,37.057999999960884
312452.7787,11.786568058082858,0.28559674629211473,15.917604535298482,8.133356517533178,37.05900000000838
312452.7797,12.27588096486347,3.4036233784332675,12.978856064941363,11.950768048841919,37.05999999999767
312452.7807,12.13174724227533,6.127171895852431,9.411826235500714,15.450165972099262,37.06099999998696
312452.7817,11.308668669381557,8.32724076512666,5.276388804362064,18.491148544107528,37.06199999997625
312452.7827,9.801222641654682,9.90942548764276,0.6642999557912375,20.9621089673751,37.06299999996554
312452.7837,7.647483615800477,10.819782441343856,-4.300819047747067,22.78658825187845,37.06400000001304
312452.7847,4.9291047938774515,11.047603929261738,-9.466207387480832,23.926725874608564,37.06500000000233
312452.7857,1.767910234768404,10.624896596362376,-14.65543844019164,24.383584999269495,37.06599999999162
312452.7867,-1.6808373156383751,9.622646481848518,-19.676402359797756,24.194420287258247,37.06699999998091
312452.7877,-5.238021396829508,8.144236703430442,-24.331290908632994,23.427238242323117,37.0679999999702
312452.7887,-8.712370443004376,6.31663120341147,-28.42785108372951,22.173244944375213,37.06899999995949
312452.7897,-11.913327866813002,4.280126602750099,-31.791011952217772,20.53795999514979,37.070000000006985
312452.7907,-14.664033308280343,2.177586234075212,-34.27390997335274,18.631880701190784,37.070999999996275
312452.7917,-16.813333521959642,0.14409560771590404,-35.76735202716811,16.561597088252547,37.071999999985565
312452.7927,-18.24581983016582,-1.7020848008065597,-36.206863166870164,14.422185361515522,37.072999999974854
312452.7937,-18.8890602874921,-3.266538479681131,-35.576659052700094,12.291553022684777,37.073999999964144
312452.7947,-18.717442769910548,-4.483164098953988,-33.910143719688975,10.227189341595253,37.07500000001164
312452.7957,-17.75234676243453,-5.315836353072468,-31.286837419457715,8.26551306685295,37.07600000000093
312452.7967,-16.058688165463792,-5.757270116496374,-27.825957844550327,6.423732102594091,37.07699999999022
312452.7977,-13.738202117646525,-5.825370241146968,-23.67718050395183,4.703865714330181,37.07799999997951
312452.7987,-10.920113462273664,-5.557584007923444,-19.009361134225113,3.0983554929569084,37.0789999999688
312452.7997,-7.750066492922631,-5.003951385326194,-13.998189793359236,1.5965294318403613,37.07999999995809
312452.8007,-4.378324595461054,-4.219653119943293,-8.813844351875401,0.19110022330134904,37.08100000000559
312452.8017,-0.94829404703108,-3.2578790135808777,-3.609710567845452,-1.1161176235420576,37.08199999999488
312452.8027,2.4136285524267516,-2.1637775481242536,1.486863694624677,-2.309997691354966,37.08299999998417
312452.8037,5.606032607874376,-0.9701106182033821,6.381002322009895,-3.3599582049113006,37.08399999997346
312452.8047,8.557664873041542,0.30496167160157994,11.01340747063715,-4.220218991991749,37.08499999996275
312452.8057,11.229445644634815,1.6577806377241882,15.359933780362187,-4.832530186965187,37.086000000010245
312452.8067,13.613285660948227,3.0968430638638793,19.427754683988848,-5.131171647813726,37.086999999999534
312452.8077,15.727963446963168,4.638525206989728,23.248562497494717,-5.049767422405416,37.087999999988824
312452.8087,17.6125956011696,6.301403143287132,26.86951926417141,-4.529248589853651,37.088999999978114
312452.8097,19.31844850012431,8.099850801695348,30.342882677879118,-3.526152010310787,37.089999999967404
312452.8107,20.899979274687265,10.037680688840709,33.71535134915099,-2.0203771042739262,37.09099999995669
312452.8117,22.406044518508065,12.102596407162467,37.0181950600691,-0.021544993299873992,37.09200000000419
312452.8127,23.87217361231963,14.262150334828036,40.25915673651478,2.4267872232579584,37.09299999999348
312452.8137,25.314675363710098,16.46175196322539,43.416941455706265,5.24561950111184,37.09399999998277
312452.8147,26.727145792733637,18.625067239295443,46.438860474954154,8.322027957801371,37.09499999997206
312452.8157,28.079692151361396,20.656907375794358,49.2418987121126,11.513749507690735,37.09599999996135
312452.8167,29.320909236578178,22.44845113671859,51.717150820826504,14.656583373211848,37.09700000000885
312452.8177,30.38236653898556,23.884402959900502,53.737254484360896,17.574091680290017,37.09799999999814
312452.8187,31.18511600789931,24.851484525133145,55.16616935664893,20.08885714593056,37.09899999998743
312452.8197,31.64753423418078,25.247509911437753,55.870432001718655,22.03439825372167,37.09999999997672
312452.8207,31.693688132430328,24.990219018423307,55.730880848459385,23.266766507635648,37.10099999996601
312452.8217,31.261370935408642,24.02504803979104,54.65380228030234,23.67486368797687,37.1019999999553
312452.8227,30.30899839899273,22.331099219561327,52.58050231080411,23.18861827656774,37.103000000002794
312452.8237,28.820678003507197,19.924726866947104,49.494451640213086,21.784339751544604,37.103999999992084
312452.8247,26.80895328431289,16.860367683213926,45.42537076005867,19.486810253231738,37.10499999998137
312452.8257,24.314961516828884,13.228490454761898,40.44989491148558,16.367952465163878,37.10599999997066
312452.8267,21.406001755713262,9.15079927218172,34.688760161533146,12.54220424117359,37.10699999995995
312452.8277,18.17076569615144,4.773070761863551,28.30075349566565,8.159007416239907,37.10800000000745
312452.8287,14.71271065768154,0.25621585034415145,21.473943949991135,3.393054919234346,37.10899999999674
312452.8297,11.142230011845637,-4.233689539972409,14.414933779997654,-1.5668845933036617,37.10999999998603
312452.8307,7.568384723451744,-8.535577037572056,7.337019153843923,-6.529647105639682,37.11099999997532
312452.8317,4.090990424830145,-12.502928178599337,0.44821659700641164,-11.312927506979213,37.11199999996461
312452.8327,0.79380552117709,-16.011925125070732,-6.0599097468960545,-15.753247288798965,37.11300000001211
312452.8337,-2.26055684981219,-18.967590108317467,-12.021789786410302,-19.713921768778743,37.1140000000014
312452.8347,-5.033553362570679,-21.30749111613292,-17.305104175005745,-23.09051993006401,37.11499999999069
312452.8357,-7.511256408645628,-23.002824089729963,-21.815331292202217,-25.81355639271817,37.11599999997998
312452.8367,-9.702548866290458,-24.056927195715165,-25.49741841068517,-27.84841645182518,37.116999999969266
312452.8377,-11.63523125614652,-24.501516542956708,-28.334673339111404,-29.192766058697703,37.117999999958556
312452.8387,-13.350510302715564,-24.391132353368597,-30.345213519739453,-29.871915097824807,37.119000000006054
312452.8397,-14.896492315896737,-23.796431009189817,-31.576505830377283,-29.93276414109416,37.11999999999534
312452.8407,-16.321392884416547,-22.797038009771885,-32.098664441773316,-29.43705761134779,37.12099999998463
312452.8417,-17.667187807557365,-21.474682903526578,-31.997234936772248,-28.454682636925845,37.12199999997392
312452.8427,-18.964368355316356,-19.907270380967308,-31.366177118324114,-27.05769325568513,37.12299999996321
312452.8437,-20.228333933506594,-18.16440991916174,-30.30167104824265,-25.315612076330993,37.12400000001071
312452.8447,-21.457771089390317,-16.30474414052733,-28.897222726086834,-23.29238079890821,37.125
312452.8457,-22.635149059534378,-14.37520287010404,-27.24035529087747,-21.04511708212198,37.12599999998929
312452.8467,-23.729231727133293,-12.412088233440466,-25.41096061351257,-18.624611191540602,37.12699999997858
312452.8477,-24.69928800121497,-10.443689243124098,-23.481178261523564,-16.077285512088928,37.12799999996787
312452.8487,-25.500499951498455,-8.493953757268125,-21.516486891297,-13.448165567416808,37.12899999995716
312452.8497,-26.089939522214163,-6.58662922467067,-19.577556808025655,-10.784290994484795,37.13000000000466
312452.8507,-26.43242365641544,-4.7492334105361875,-17.722336157225918,-8.137941598393137,37.130999999993946
312452.8517,-26.505570538617246,-3.0162376237860005,-16.007834683705465,-5.56907280079931,37.131999999983236
312452.8527,-26.303465108990345,-1.4309357419846596,-14.491128421627076,-3.1464445768084772,37.132999999972526
