TimeStamp,ECR,FCR,ECU,FCU,time_index
312461.7197,-60.396486320949364,-57.72040130203502,-32.55904961671384,-54.38041153742783,46.0
312461.7207,-59.15268912792512,-55.61125287165364,-29.5500902293946,-52.65457319616246,46.00099999998929
312461.7217,-57.979236408306704,-53.72099293189893,-26.78440057510555,-51.011107605161634,46.00199999997858
312461.7227,-56.854139700978344,-52.053894228714405,-24.314804403994227,-49.45659662982996,46.00299999996787
312461.7237,-55.74236886750006,-50.59352798521537,-22.17679408269622,-47.981641594316464,46.00399999995716
312461.7247,-54.60098654823991,-49.30701524098009,-20.390344676562865,-46.564319083766584,46.00500000000466
312461.7257,-53.38513306590263,-48.15046115116531,-18.962864089661863,-45.17467019054164,46.005999999993946
312461.7267,-52.05422623634757,-47.07498338788998,-17.892784792706305,-43.779695172950454,46.006999999983236
312461.7277,-50.57769741224055,-46.03269197574597,-17.17323961425603,-42.348275904873205,46.007999999972526
312461.7287,-48.939611068352214,-44.98198854647557,-16.79526462291965,-40.85545939787342,46.008999999961816
312461.7297,-47.14160961389781,-43.891627537325,-16.750036916205683,-39.28560642160461,46.01000000000931
312461.7307,-45.20378028899727,-42.743113366292455,-17.0297780575389,-37.63403311253675,46.0109999999986
312461.7317,-43.16324312043801,-41.53118347557476,-17.627122668682713,-35.906938287111586,46.01199999998789
312461.7327,-41.07048912103107,-40.26233021592288,-18.532948946517816,-34.119598538678794,46.01299999997718
312461.7337,-38.98373410725692,-38.95152485986307,-19.73287292150115,-32.29300800378117,46.01399999996647
312461.7347,-36.96177241767747,-37.61750366118263,-21.2027990845789,-30.449320039601087,46.01499999995576
312461.7357,-35.055994272528885,-36.27713901193188,-22.904075459696855,-28.606595234125905,46.01600000000326
312461.7367,-33.302351639217186,-34.93953163766577,-24.778903251843754,-26.773458483881544,46.01699999999255
312461.7377,-31.714106567635238,-33.60051040125695,-26.746686810806494,-24.944306259911365,46.01799999998184
312461.7387,-30.276165973607824,-32.23820860050865,-28.701972216759625,-23.095678364799397,46.01899999997113
312461.7397,-28.941698170642752,-30.81030020763388,-30.514512988450647,-21.184317570889142,46.01999999996042
312461.7407,-27.63154703300654,-29.253333504894208,-32.03182730230388,-19.147292995567952,46.021000000007916
312461.7417,-26.23672440734543,-27.484406214124416,-33.084387522004015,-16.904372103571472,46.021999999997206
312461.7427,-24.623990795756992,-25.405203463339763,-33.49333005346717,-14.362609519702719,46.022999999986496
312461.7437,-22.644252689862043,-22.908188813375247,-33.080315401224546,-11.422898911127989,46.023999999975786
312461.7447,-20.14323802535139,-19.88452116616491,-31.678929932556848,-7.988028450533801,46.024999999965075
312461.7457,-16.973683908790036,-16.233087700544928,-29.14682621226684,-3.9716110024282467,46.02600000001257
312461.7467,-13.008104617772885,-11.869912922283932,-25.377668269035567,0.6928557684719012,46.02700000000186
312461.7477,-8.151119114385063,-6.73713950095828,-20.311896600875095,6.043594470374814,46.02799999999115
312461.7487,-2.3503152380039682,-0.8107846792202009,-13.9453627707566,12.08359184626565,46.02899999998044
312461.7497,4.395286194349046,5.893443279487812,-6.33500469847689,18.77576229002437,46.02999999996973
312461.7507,12.029936536487378,13.316837725502586,2.3990673051545635,26.04075517878159,46.03099999995902
312461.7517,20.439567733049163,21.357265390554346,12.075443075271563,33.757722903952526,46.03200000000652
312461.7527,29.454155578513152,29.871753684286926,22.457312700431782,41.7681268980436,46.03299999999581
312461.7537,38.8539840848901,38.68198300576674,33.262149260201554,49.88240851762417,46.0339999999851
312461.7547,48.37945555783638,47.5823359186934,44.17462931978423,57.88911297074038,46.03499999997439
312461.7557,57.743818923046554,56.349948218010496,54.86198698489732,65.56584919428676,46.03599999996368
312461.7567,66.64796947204925,64.75604938963312,64.99080163752824,72.69131525463004,46.037000000011176
312461.7577,74.79632454049079,72.57778537454662,74.24410468865649,79.05753117499921,46.038000000000466
312461.7587,81.91271305680608,79.60969241221954,82.33766663051037,84.48140663094382,46.038999999989755
312461.7597,87.75523614160156,85.67403778919433,89.03439383692844,88.81483036646519,46.039999999979045
312461.7607,92.12915690573185,90.62935552737298,94.1559179939438,91.95259522426839,46.040999999968335
312461.7617,94.89704893662538,94.37667032521496,97.59068509090433,93.83765485743639,46.041999999957625
312461.7627,95.985657341986,96.86310457615791,99.29812470892855,94.46342802677476,46.04300000000512
312461.7637,95.38918215308031,98.0827812142374,99.30877894476481,93.87310321234244,46.04399999999441
312461.7647,93.16895793964085,98.07514871900455,97.72056710526968,92.15612826671172,46.0449999999837
312461.7657,89.44975258543825,96.92104424300743,94.69163165131931,89.4422762134841,46.04599999997299
312461.7667,84.41312181373227,94.73695996990782,90.43043048754923,85.89384127275923,46.04699999996228
312461.7677,78.28841815025002,91.66807456098167,85.18389371387383,81.6966256832618,46.04800000000978
312461.7687,71.34215323500997,87.88064965700303,79.22453932950488,77.05042062707874,46.04899999999907
312461.7697,63.86644686093217,83.55437071843821,72.83743959236386,72.1596626520578,46.04999999998836
312461.7707,56.167267420811,78.87513774762833,66.30785273945504,67.22486578881087,46.05099999997765
312461.7717,48.553085039229664,74.02869548324946,59.91019521087176,62.435299966121214,46.05199999996694
312461.7727,41.3244337037229,69.19534915928331,53.8988443338286,57.96322352290824,46.05299999995623
312461.7737,34.764728470418746,64.54585775888754,48.50105101097989,53.95979944824792,46.054000000003725
312461.7747,29.132525914047662,60.2384491710661,43.912028074194424,50.552650141510675,46.054999999993015
312461.7757,24.655267516932366,56.41677671900679,40.29208357788422,47.84485163527193,46.055999999982305
312461.7767,21.524421519666337,53.20854715758543,37.76550760292597,45.91505028604141,46.056999999971595
312461.7777,19.89185012394114,50.72450518807447,36.420809873880074,44.81831368067074,46.057999999960884
312461.7787,19.867182450604673,49.05746251097662,36.31185178867408,44.58730856155217,46.05900000000838
312461.7797,21.515970794729135,48.28110877376092,37.45942221782521,45.23343196584818,46.05999999999767
312461.7807,24.858444881485422,48.44843068408217,39.85286731348269,46.74760199811921,46.06099999998696
312461.7817,29.868747879454187,49.58968288632332,43.451490609559045,49.10053129253201,46.06199999997625
312461.7827,36.47462721105622,51.70998557852229,48.18557642990333,52.24244502737206,46.06299999996554
312461.7837,44.5576488655968,54.78675322145541,53.957039648745784,56.102349727097575,46.06400000001304
312461.7847,53.95409147675363,58.76726998462063,60.63984964582047,60.58709175749372,46.06500000000233
312461.7857,64.45674232310218,63.566806369116726,68.08049814128141,65.58054922336751,46.06599999999162
312461.7867,75.81785051357802,69.06770651427202,76.09886436689267,70.94336452574667,46.06699999998091
312461.7877,87.75348542986066,75.1198602036449,84.4898657700982,76.51363792145658,46.0679999999702
312461.7887,99.94949799582487,81.54290589544375,93.0262624798738,82.10896104351973,46.06899999995949
312461.7897,112.06919039232997,88.13039504124384,101.46290929771179,87.53007518585159,46.070000000006985
312461.7907,123.76267309499694,94.65599257082768,109.54262613426883,92.56629959592459,46.070999999996275
312461.7917,134.67773749174884,100.88160720656295,117.00369806736276,97.00270248538946,46.071999999985565
312461.7927,144.47191201739207,106.56715496438176,123.58883529645979,100.62879834680074,46.072999999974854
312461.7937,152.82521586667792,111.48147822918845,129.05523971844596,103.24836827089102,46.073999999964144
312461.7947,159.4529934789231,115.41378953763324,133.18525811399996,104.68983473878978,46.07500000001164
312461.7957,164.11812047953723,118.1849002032854,135.79697051292902,104.81649697969338,46.07600000000093
312461.7967,166.64183018119257,119.65744223122076,136.75398186899437,103.53586247540372,46.07699999999022
312461.7977,166.91242749232504,119.74430578550174,135.97366692907252,100.80730488582307,46.07799999997951
312461.7987,164.89123736525846,118.41459618558383,133.4331676484852,96.64734300746527,46.0789999999688
312461.7997,160.6152751943989,115.69656018554767,129.17255881429915,91.13196729153802,46.07999999995809
312461.8007,154.1963185111697,111.67713123985246,123.29477333620468,84.39563134756698,46.08100000000559
312461.8017,145.81628932296132,106.49798236316899,115.96210064194312,76.62676125142222,46.08199999999488
312461.8027,135.7191067197677,100.34823376681905,107.38932162950977,68.05989618002472,46.08299999998417
312461.8037,124.19941945129138,93.45421902446186,97.83380031578353,58.96483772149254,46.08399999997346
312461.8047,111.58885672621291,86.06694595079155,87.5830930431723,49.63342897797122,46.08499999996275
312461.8057,98.24062228192439,78.44807609687763,76.94083906581524,40.36478626124247,46.086000000010245
312461.8067,84.51338463456278,70.85537268055162,66.21184265304687,31.44994698427143,46.086999999999534
312461.8077,70.7554728988872,63.52861889498097,55.687332386551,23.156963528009822,46.087999999988824
312461.8087,57.29036624649101,56.67698118229908,45.63138011530361,15.717457081565831,46.088999999978114
312461.8097,44.404366306609454,50.468686443848675,36.269379101255865,9.315547589003389,46.089999999967404
312461.8107,32.33717285766291,45.023706402868264,27.77932446443501,4.079903185718423,46.09099999995669
312461.8117,21.27585761291893,40.409910793814035,20.286422038512153,0.07941882503392621,46.09200000000419
312461.8127,11.352467563858204,36.64288306399378,13.86129264408691,-2.6772413234873302,46.09299999999348
312461.8137,2.645210516051308,33.68931043305886,8.521759903710565,-4.238296390224638,46.09399999998277
312461.8147,-4.8170950821324485,31.473588273252012,4.2379351797646185,-4.70204137649403,46.09499999997206
312461.8157,-11.047863092387713,29.887039710016715,0.9400666832499562,-4.207180212320653,46.09599999996135
312461.8167,-16.093620102160894,28.79896494110756,-1.4715777025802255,-2.921102361685388,46.09700000000885
312461.8177,-20.02378854670692,28.068616070611245,-3.115656389139692,-1.0270393174332204,46.09799999999814
312461.8187,-22.92028197882392,27.55715115657832,-4.118447605526768,1.2889090944416937,46.09899999998743
312461.8197,-24.867787435370413,27.13865769886916,-4.603186382522754,3.8499179261914405,46.09999999997672
312461.8207,-25.945501505737646,26.709445984653414,-4.680842831628447,6.49889688374426,46.10099999996601
312461.8217,-26.2209159980991,26.194985166919505,-4.44297697285415,9.106588593928914,46.1019999999553
312461.8227,-25.746033009145656,25.554072993795362,-3.9570946680596486,11.576852167967482,46.103000000002794
312461.8237,-24.55614854495443,24.78007339158154,-3.26469085465065,13.848932432427057,46.103999999992084
312461.8247,-22.67110123172593,23.89930257831401,-2.381922750768129,15.896774065368325,46.10499999998137
312461.8257,-20.098660343034155,22.966872356895543,-1.3026293949720966,17.72568080574345,46.10599999997066
312461.8267,-16.839545129302877,22.060489379582304,-0.003224911789338875,19.366822000869764,46.10699999995995
312461.8277,-12.893440742881848,21.272846253196334,1.5511427449650395,20.87023537727952,46.10800000000745
312461.8287,-8.265314722970905,20.703314519186556,3.3998476816072234,22.29705513781669,46.10899999999674
312461.8297,-2.9713454064607094,20.449657082455214,5.580140738785901,23.711703965567562,46.10999999998603
312461.8307,2.956153458915503,20.600421144878503,8.121225887207318,25.174728721725366,46.11099999997532
312461.8317,9.465298527992537,21.228560517706317,11.039563545395074,26.73684139199245,46.11199999996461
312461.8327,16.48300882428545,22.386681579498816,14.335745655363977,28.43456332463974,46.11300000001211
312461.8337,23.915304813052305,24.104126794415823,17.993101930812887,30.287679989699086,46.1140000000014
312461.8347,31.649456618880873,26.385922061784065,21.978005680204106,32.298515337420675,46.11499999999069
312461.8357,39.557719979581954,29.213437671731953,26.24167044540299,34.452849329159854,46.11599999997998
312461.8367,47.50224821936241,32.546463989887584,30.723082931176425,36.722147436899334,46.116999999969266
312461.8377,55.34066544018991,36.326295613103824,35.35261732538816,39.066661336685286,46.117999999958556
312461.8387,62.93173950042716,40.479360589896785,40.05583026915891,41.43890520158694,46.119000000006054
312461.8397,70.14060672069981,44.92092811779717,44.75694790137159,43.78701570216838,46.11999999999534
312461.8407,76.84307119262462,49.55847714970621,49.38162408404819,46.05756376032355,46.12099999998463
312461.8417,82.92862190261842,54.294402539327514,53.85866394513819,48.19749422944118,46.12199999997392
312461.8427,88.30196752191142,59.027863184788515,58.12055622368627,50.15501303418188,46.12299999996321
312461.8437,92.8830648926577,63.65572318439883,62.102824972568904,51.87940335643026,46.12400000001071
312461.8447,96.60579417610342,68.0726855328951,65.74237745720421,53.31991475801912,46.125
312461.8457,99.41559239056055,72.17085142927992,68.97517203243204,54.42401322546586,46.12599999998929
312461.8467,101.26648049557987,75.83904147808781,71.73364069356828,55.135389435336535,46.12699999997858
312461.8477,102.11799366699555,78.96227575876144,73.944362804309,55.39218412571025,46.12799999996787
312461.8487,101.93254134636508,81.42182020528291,75.52649115218794,55.12589539007198,46.12899999995716
312461.8497,100.67368037908327,83.09616461132468,76.391376861426,54.26138095939404,46.13000000000466
312461.8507,98.30568471580982,83.863206141323,76.4437299456791,52.71826327043787,46.130999999993946
312461.8517,94.79464836988743,83.60378015806724,75.5844974693688,50.413896332443,46.131999999983236
312461.8527,90.1111792864648,82.20652070068046,73.7154564309028,47.26787597044023,46.132999999972526
312461.8537,84.23454877310544,79.57386253517927,70.74532210048001,43.20788720718316,46.133999999961816
312461.8547,77.15797421323695,75.62883341245282,66.59698480365957,38.17650417196579,46.13500000000931
312461.8557,68.8945517132463,70.32214681873569,61.2153288264883,32.13840836547977,46.1359999999986
312461.8567,59.48323762670742,63.63900783293143,54.57497363491954,25.08738729947805,46.13699999998789
312461.8577,48.99421699556326,55.6049997474863,46.68722319312545,17.052430203307782,46.13799999997718
312461.8587,37.5330008299771,46.29043390872287,37.60552152460996,8.102257819843956,46.13899999996647
312461.8597,25.24266447917755,35.81262104106795,27.428793075151027,-1.6522899140508471,46.13999999995576
312461.8607,12.303771227465687,24.335654362002984,16.30218955575269,-12.05843710220677,46.14100000000326
312461.8617,-1.0682923735968983,12.06747262508357,4.414959184476682,-22.924458762133995,46.14199999999255
312461.8627,-14.62862625930238,-0.7458203448933763,-8.004617182942237,-34.02547636786167,46.14299999998184
312461.8637,-28.110597390474563,-13.828182568423188,-20.69703609922815,-45.11182836149532,46.14399999997113
312461.8647,-41.23569276133384,-26.883997778468874,-33.38170669706132,-55.91955430090899,46.14499999996042
312461.8657,-53.724850887713565,-39.609982096827665,-45.76878597371606,-66.1823363563097,46.146000000007916
312461.8667,-65.31052928701494,-51.70790002011413,-57.57193471942936,-75.64409848905296,46.146999999997206
312461.8677,-75.74867873530368,-62.89727561923861,-68.5211246417486,-84.0713861892685,46.147999999986496
312461.8687,-84.829779065599,-72.92727116285391,-78.3746108547631,-91.26464646218432,46.148999999975786
312461.8697,-92.38814832341531,-81.58696056488189,-86.9292434387764,-97.06760031078905,46.149999999965075
312461.8707,-98.30886276552054,-88.71334472188491,-94.02842248378047,-101.37404265728833,46.15100000001257
312461.8717,-102.53180859016328,-94.19662954951194,-99.56719148398915,-104.13160526962943,46.15200000000186
312461.8727,-105.05261111827144,-97.98249993600977,-103.49419709163278,-105.34225912821299,46.15299999999115
312461.8737,-105.9204332165575,-100.07135493873047,-105.81049796200902,-105.05959228113117,46.15399999998044
312461.8747,-105.23287989698137,-100.51470063750975,-106.56545856399208,-103.38315430816043,46.15499999996973
312461.8757,-103.12846819246471,-99.40910661878732,-105.85019235864193,-100.45038617923414,46.15599999995902
312461.8767,-99.77730075180816,-96.88830173706084,-103.78920195410421,-96.42683427285407,46.15700000000652
312461.8777,-95.3707023573732,-93.11410009882718,-100.53098532029014,-91.49546383446229,46.15799999999581
312461.8787,-90.11063055932874,-88.2668998695135,-96.23842636080796,-85.8459304035213,46.1589999999851
312461.8797,-84.19965117717979,-82.53648230399861,-91.07976145287662,-79.66463480058395,46.15999999997439
312461.8807,-77.83217972858137,-76.1137594452343,-85.2208145842712,-73.1262823411499,46.16099999996368
312461.8817,-71.18754060194358,-69.1839852793779,-78.819032942992,-66.38750090628687,46.162000000011176
312461.8827,-64.42520222477425,-61.92177086612559,-72.01964863083299,-59.58286181884767,46.163000000000466
312461.8837,-57.68232785041212,-54.488046786758815,-64.95406123639799,-52.82341259603823,46.163999999989755
312461.8847,-51.073559267994916,-47.02891574353468,-57.74030323377247,-46.19759401293747,46.164999999979045
312461.8857,-44.69274612152835,-39.67615381628455,-50.48523849484944,-39.77419777948771,46.165999999968335
312461.8867,-38.616165900624814,-32.54896828136249,-43.28797429260829,-33.60684545427111,46.166999999957625
312461.8877,-32.90666436220048,-25.75651690329763,-36.24385542039811,-27.739349731353037,46.16800000000512
312461.8887,-27.618093039936298,-19.400647112091725,-29.44836595150545,-22.211266001327648,46.16899999999441
312461.8897,-22.799433122873765,-13.578326572547537,-23.000293285503542,-17.062958583713023,46.1699999999837
312461.8907,-18.498070246722385,-8.38330640907081,-17.003606793455443,-12.339588907263884,46.17099999997299
312461.8917,-14.761813345078945,-3.906676203118675,-11.567659050056083,-8.093572428658614,46.17199999996228
312461.8927,-11.639418177434033,-0.236122562395184,-6.805515024280283,-4.385232126091229,46.17300000000978
312461.8937,-9.179564363481298,2.546126006475717,-2.830433273735586,-1.2815800847165746,46.17399999999907
312461.8947,-7.428423809044339,4.366514192587226,0.24925932266756845,1.1466357805661773,46.17499999998836
312461.8957,-6.426128648286553,5.164228109597996,2.3364637360980502,2.8292960522600796,46.17599999997765
312461.8967,-6.2025807912304645,4.89569055747022,3.352189623673566,3.702211780701529,46.17699999996694
312461.8977,-6.773129312245284,3.5389841396204917,3.2423427528882987,3.7127927038118953,46.17799999995623
312461.8987,-8.134667924756993,1.0976837432163085,1.9837175618322702,2.8254730221024102,46.179000000003725
312461.8997,-10.26267034601697,-2.39638360394455,-0.4114587261518382,1.0263123110392893,46.179999999993015
312461.9007,-13.109590343236148,-6.881844791934273,-3.8929691960326434,-1.6737245256145519,46.180999999982305
312461.9017,-16.604915325210367,-12.268213958046084,-8.372405504278246,-5.237167542230802,46.181999999971595
312461.9027,-20.65699195382073,-18.438152632560243,-13.725479045563135,-9.600308832897717,46.182999999960884
312461.9037,-25.15655719356309,-25.251481024490094,-19.796773635447334,-14.675332466637856,46.18400000000838
312461.9047,-29.981727848025574,-32.550694051182845,-26.40664280744528,-20.354114927611345,46.18499999999767
312461.9057,-35.004044907647554,-40.16758706848353,-33.35975517648772,-26.51333697108441,46.18599999998696
312461.9067,-40.09505258269179,-47.93048512691893,-40.45463735753533,-33.020420034079905,46.18699999997625
312461.9077,-45.1328283006224,-55.67150768908918,-47.49347103599031,-39.73972478811784,46.18799999996554
312461.9087,-50.00787641118905,-63.23329486510437,-54.291378362868166,-46.538433911724965,46.18900000001304
312461.9097,-54.62785589393099,-70.47467242787026,-60.68448031968904,-53.29158724738682,46.19000000000233
312461.9107,-58.92072568550268,-77.27483636300826,-66.5361312362853,-59.88584028225093,46.19099999999162
312461.9117,-62.83604916264995,-83.53578326622443,-71.74090760829968,-66.2216654520172,46.19199999998091
312461.9127,-66.34438589294852,-89.18288588078401,-76.22614343685933,-72.21389431577408,46.1929999999702
312461.9137,-69.4348948990005,-94.16369588094796,-79.95103623597153,-77.79068810886784,46.19399999995949
312461.9147,-72.11145904738542,-98.44522991071793,-82.90357453495618,-82.89120416125661,46.195000000006985
312461.9157,-74.3877952979082,-102.01014190387997,-85.09573654900645,-87.46237658387895,46.195999999996275
312461.9167,-76.28212381308371,-104.85228948240125,-86.55756087256393,-91.45533474133686,46.196999999985565
312461.9177,-77.81201829560455,-106.97225361072024,-87.3307785046754,-94.82203023586446,46.197999999974854
312461.9187,-78.99004421602048,-108.3733629190386,-87.46271247111784,-97.51262625467902,46.198999999964144
312461.9197,-79.82071120016762,-109.05870747580228,-87.00109518695956,-99.47412267311915,46.20000000001164
312461.9207,-80.29912777186071,-109.02950763318512,-85.99033031219892,-100.65055347111634,46.20100000000093
312461.9217,-80.41156391787572,-108.28504373127109,-84.46954784310849,-100.98491311616328,46.20199999999022
312461.9227,-80.13791740477537,-106.82416813419077,-82.47258682594375,-100.42276373878946,46.20299999997951
312461.9237,-79.45586439664906,-104.6482312720905,-80.02981148421237,-98.91726639728657,46.2039999999688
312461.9247,-78.34627574756493,-101.76507795257865,-77.17144746893156,-96.43518967515737,46.20499999995809
312461.9257,-76.7993183148007,-98.19362793381401,-73.9319383964504,-92.96329815012652,46.20600000000559
312461.9267,-74.82055346693468,-93.9684613013876,-70.35468878661433,-88.51442929838684,46.20699999999488
312461.9277,-72.43630526144932,-89.14379551050571,-66.49649277822547,-83.132542155066,46.20799999998417
312461.9287,-69.69760467221806,-83.7962720392575,-62.430956685864864,-76.89606978405065,46.20899999997346
312461.9297,-66.68212263368902,-78.02606486254433,-58.25030803591544,-69.91902807981292,46.20999999996275
312461.9307,-63.49367510055056,-71.95597227549044,-54.06513684052568,-62.34951595546662,46.211000000010245
312461.9317,-60.25910274548197,-65.72834403227596,-50.001822035638966,-54.36547027424285,46.211999999999534
312461.9327,-57.12257604605739,-59.49990891469589,-46.19763695444997,-46.16779158495782,46.212999999988824
312461.9337,-54.237629769657374,-53.43478265696619,-42.79377840193905,-37.97120947134897,46.213999999978114
312461.9347,-51.75746469623997,-47.69613106068877,-39.926798964752244,-29.993484221016146,46.214999999967404
312461.9357,-49.824245714026915,-42.43711823052953,-37.719117477665414,-22.44372163683331,46.21599999995669
312461.9367,-48.55825481474483,-37.791868920874734,-36.26941757926284,-15.51069152967804,46.21700000000419
312461.9377,-48.047811300946094,-33.867206101865804,-35.64380426135065,-9.352075320343676,46.21799999999348
312461.9387,-48.34084302698832,-30.735885552150254,-35.86856570123965,-4.0855192792989525,46.21899999998277
312461.9397,-49.43888276771453,-28.431940984356235,-36.925282897617656,0.2177597266884442,46.21999999997206
312461.9407,-51.29408153917853,-26.948585023699135,-38.74885111055776,3.5362687719909283,46.22099999996135
312461.9417,-53.809591456269835,-26.238898265539113,-41.22874042366563,5.898138650315842,46.22200000000885
312461.9427,-56.84339553987788,-26.219300079058886,-44.21354922279564,7.377615925670902,46.22299999999814
312461.9437,-60.21537536678861,-26.775552906214333,-47.518619084704504,8.088420681761527,46.22399999998743
312461.9447,-63.71713547612244,-27.77082922656187,-50.93620895847651,8.174507905289323,46.22499999997672
312461.9457,-67.1238708165403,-29.055188275717658,-54.24749600082391,7.798988695564022,46.22599999996601
312461.9467,-70.20739166735036,-30.47568561488343,-57.23550193242734,7.132119245006653,46.2269999999553
312461.9477,-72.74932541896102,-31.88628507501963,-59.69795370571074,6.339336565258479,46.228000000002794
312461.9487,-74.55350541907099,-33.156765243866126,-61.45908485519575,5.570303433853101,46.228999999992084
312461.9497,-75.45663494839154,-34.179910147437035,-62.379470275591295,4.949822308639847,46.22999999998137
312461.9507,-75.33647233654716,-34.87643754414577,-62.36315515899035,4.571298364814399,46.23099999997066
312461.9517,-74.11700674659747,-35.19733325662327,-61.361573489418554,4.493191972687701,46.23199999995995
312461.9527,-71.77036243071264,-35.1235060112278,-59.37403146745166,4.73862322998703,46.23300000000745
312461.9537,-68.31545708656593,-34.66293083463287,-56.4448306502218,5.298001656754152,46.23399999999674
312461.9547,-63.813720105773704,-33.84568559212952,-52.65739648776023,6.134280160873237,46.23499999998603
312461.9557,-58.3624223903904,-32.71748147769446,-48.12603293049051,7.1901998332739,46.23599999997532
312461.9567,-52.08635763145301,-31.332424547448053,-42.98611871041975,8.39672310907786,46.23699999996461
312461.9577,-45.12872767592432,-29.745807740102833,-37.38367720235125,9.681763370155611,46.23800000001211
312461.9587,-37.64211144371293,-28.007714415701223,-31.465278382205103,10.978317549650539,46.2390000000014
312461.9597,-29.78033591653158,-26.158116405959408,-25.369165917815476,12.231194574320684,46.23999999999069
312461.9607,-21.691925941829236,-24.22398105620652,-19.218351468850088,13.401697788318955,46.24099999997998
312461.9617,-13.515602117776686,-22.218679140786108,-13.116196922015488,14.46984726732699,46.241999999969266
312461.9627,-5.378044729551342,-20.143730956514514,-7.144735697330758,15.43399533330342,46.242999999958556
312461.9637,2.606126968214415,-17.992667020719882,-1.3656935088495423,16.307968764835103,46.244000000006054
312461.9647,10.332468574229365,-15.756539318272056,4.176113625220604,17.116135932157743,46.24499999999534
312461.9657,17.703445481780825,-13.430423960145337,9.447572131076003,17.88701957811718,46.24599999998463
312461.9667,24.624474979703844,-11.020127158811295,14.421006422774079,18.646233581538908,46.24699999997392
312461.9677,31.00004108206743,-8.54825784876367,19.067712767561,19.409598619647326,46.24799999996321
312461.9687,36.73063992599115,-6.058868320366068,23.352159399057566,20.17727919180437,46.24900000001071
312461.9697,41.711219014295494,-3.6199863747830823,27.22764090981906,20.929683993099264,46.25
312461.9707,45.83160178841537,-1.3235576477529958,30.634011088141854,21.62569309344254,46.25099999998929
312461.9717,48.97915780240169,0.7174337203278952,33.49788753486709,22.203536694025406,46.25199999997858
312461.9727,51.04371228165418,2.37461823268922,35.73544754431783,22.58437543092959,46.25299999996787
312461.9737,51.92441506002201,3.5123378419534075,37.25764623595097,22.678348975489847,46.25399999995716
312461.9747,51.53803666584394,3.9975991398643016,37.97741463524161,22.392596583667665,46.25500000000466
312461.9757,49.827955448427275,3.7110892518150913,37.81816555878761,21.640536758802327,46.255999999993946
312461.9767,46.77296603864522,2.558325626709357,36.72277246726811,20.351545086481156,46.256999999983236
312461.9777,42.39499100016945,0.4799606880364371,34.66210768272783,18.480104484052124,46.257999999972526
312461.9787,36.76482060160413,-2.539697604875956,31.642239696381676,16.013527189064344,46.258999999961816
312461.9797,30.005137453613145,-6.466761126353015,27.709493534214648,12.977460517835139,46.26000000000931
312461.9807,22.29029174288315,-11.215042146411708,22.952762963171,9.438577910927778,46.2609999999986
312461.9817,13.842559784063127,-16.6468889313035,17.50271035402504,5.504104774795463,46.26199999998789
312461.9827,4.924918738638052,-22.577633819695517,11.527774814174846,1.31811128860641,46.26299999997718
312461.9837,-4.169324497135938,-28.78341253865565,5.2272037173116646,-2.9452053645224368,46.26399999996647
312461.9847,-13.12943069651895,-35.01183564276748,-1.1784018286705908,-7.090756551270496,46.26499999995576
312461.9857,-21.641800970949003,-40.99476071183106,-7.458307442347377,-10.913597843927612,46.26600000000326
312461.9867,-29.40521395209332,-46.46224766218651,-13.383749969821638,-14.21088858764467,46.26699999999255
312461.9877,-36.14564375277978,-51.15669321145609,-18.739965404819714,-16.793821511612,46.26799999998184
312461.9887,-41.6295955781105,-54.846140640618096,-23.337190828405696,-18.498578294882233,46.26899999997113
312461.9897,-45.67500817868798,-57.335845952636674,-27.01979023412585,-19.195462472242482,46.26999999996042
312461.9907,-48.15896600695206,-58.47734202872221,-29.672830944153983,-18.795532345718552,46.271000000007916
312461.9917,-49.02172113882975,-58.174462405832614,-31.225673844826506,-17.254286664547344,46.271999999997206
312461.9927,-48.26682224027984,-56.38604473446787,-31.65241342265595,-14.572222380603089,46.272999999986496
312461.9937,-45.95745816202758,-53.12530673064377,-30.9692859430555,-10.792361249392748,46.273999999975786
312461.9947,-42.20941938385816,-48.456149770888295,-29.229428969782585,-5.995104249985187,46.274999999965075
312461.9957,-37.18133556264479,-42.48687415603607,-26.515597846499706,-0.2909954449301082,46.27600000001257
312461.9967,-31.06304014820808,-35.36196627072171,-22.93160441841977,6.1878601143605065,46.27700000000186
312461.9977,-24.063027867158155,-27.25272767976552,-18.593326310504835,13.296890582643533,46.27799999999115
312461.9987,-16.395999748134734,-18.347552526326112,-13.620135327442187,20.88782107029792,46.27899999998044
312461.9997,-8.271433184283163,-8.84262236250258,-8.12751291211801,28.81633535119321,46.27999999996973
312462.0007,0.1160210260527508,1.0663165334287066,-2.221468694003267,36.94800614147411,46.28099999995902
312462.0017,8.5937121723792,11.190586597922675,4.004828857239404,45.16206313976536,46.28200000000652
312462.0027,17.01537477948988,21.353311810513773,10.472041758325364,53.35280310791369,46.28299999999581
312462.0037,25.262631240097924,31.39215109389634,17.113355301129626,61.428694982394944,46.2839999999851
312462.0047,33.24377936763959,41.16014241546846,23.871195203782523,69.30947157404776,46.28499999997439
312462.0057,40.89026760710364,50.52495332012112,30.69249094586542,76.92170535941139,46.28599999996368
312462.0067,48.15144944984865,59.36697893012027,37.52315278895116,84.193519994244,46.287000000011176
312462.0077,54.98833538339326,67.57682074097065,44.30250707557437,91.04917724126165,46.288000000000466
312462.0087,61.367115829623394,75.0527113734379,50.95843608240778,97.4042929174509,46.288999999989755
312462.0097,67.25320894335168,81.69842020623362,57.4038952234766,103.16237399533432,46.289999999979045
312462.0107,72.6064965711292,87.42208682282008,63.5353390059119,108.21323784718038,46.290999999968335
312462.0117,77.37826017681859,92.1362932603778,69.23339142326188,112.43368596908314,46.291999999957625
312462.0127,81.51013162553305,95.75951654184101,74.3658651511948,115.69057594498194,46.29300000000512
312462.0137,84.93515092383863,98.21891758028498,78.79298917876774,117.84618837762352,46.29399999999441
312462.0147,87.58079617336952,99.45424060694313,82.37447003433539,118.76554347874328,46.2949999999837
312462.0157,89.37364223763693,99.42243797096239,84.97781052896255,118.32510828731347,46.29599999997299
312462.0167,90.24513430862805,98.10251565239221,86.48716207022524,116.42217106532411,46.29699999996228
312462.0177,90.13784731625012,95.50002852217305,86.81190740225432,112.98406094287063,46.29800000000978
312462.0187,89.01155316618542,91.65064947360634,85.89416900251402,107.97636893815682,46.29899999999907
312462.0197,86.84843972694155,86.62229505190979,83.71451577161301,101.40938443814326,46.29999999998836
312462.0207,83.65691573468705,80.51540755608073,80.29529076789676,93.3420947558474,46.30099999997765
312462.0217,79.47358472204974,73.46115891482341,75.70119188475402,83.88329269630846,46.30199999996694
312462.0227,74.36316292812992,65.61753874110522,70.03698569833203,73.18957996291923,46.30299999995623
312462.0237,68.41633055451643,57.16349787634786,63.44249808022666,61.46031982092515,46.304000000003725
312462.0247,61.745719867148075,48.29151774175103,56.0852775069663,48.92985536101375,46.304999999993015
312462.0257,54.48043463037236,39.19914377062995,48.15154296923307,35.857544730282704,46.305999999982305
312462.0267,46.75964274760259,30.080139788700496,39.83618602288127,22.516349251266018,46.306999999971595
312462.0277,38.7258719889033,21.115975984319434,31.33267957493869,9.180826850667874,46.307999999960884
312462.0287,30.518657939293483,12.46834899659064,22.82374568781994,-3.8845791248709607,46.30900000000838
312462.0297,22.269141894297828,4.27334880611953,14.473550723750968,-16.436109733547728,46.30999999999767
312462.0307,14.096100140878782,-3.3622589998510524,6.42203683617072,-28.25939357512901,46.31099999998696
312462.0317,6.103717733502456,-10.362361367301384,-1.2182197828234986,-39.175742330304224,46.31199999997625
312462.0327,-1.6187819982885976,-16.68038552650751,-8.362489173266631,-49.04572706135605,46.31299999996554
312462.0337,-8.995754271885307,-22.29592576863073,-14.951838424585754,-57.769974666183,46.31400000001304
312462.0347,-15.962299454858565,-27.209502556368943,-20.94893577112652,-65.28737184650979,46.31500000000233
312462.0357,-22.460450373285145,-31.436023367800164,-26.332299943593302,-71.57108483019414,46.31599999999162
312462.0367,-28.434966471526547,-34.997635291901034,-31.089733468621766,-76.6229760746546,46.31699999998091
312462.0377,-33.82937122662487,-37.91671248831997,-35.21174819329308,-80.46710872789217,46.3179999999702
312462.0387,-38.58284871858901,-40.20970193535182,-38.68577708434075,-83.14306689215967,46.31899999995949
312462.0397,-42.62852568347466,-41.882460422729764,-41.491870154439006,-84.69978330788017,46.320000000006985
312462.0407,-45.89351566046375,-42.92756348425119,-43.60040429131956,-85.19046191843358,46.320999999996275
312462.0417,-48.30090718587806,-43.323867898533855,-44.97211404809014,-84.66902345093575,46.321999999985565
312462.0427,-49.77365825361919,-43.03838295783866,-45.56049568327139,-83.18830538698765,46.322999999974854
312462.0437,-50.24013694696447,-42.03027385881126,-45.3163755585585,-80.80003451110558,46.323999999964144
312462.0447,-49.64084610123661,-40.25660559469312,-44.19419255091375,-77.55638273865168,46.32500000001164
312462.0457,-47.93570901637484,-37.679258118670546,-42.15934649097222,-73.51273616900752,46.32600000000093
312462.0467,-45.11119057288522,-34.27232007227709,-39.19583049970553,-68.73117117329919,46.32699999999022
312462.0477,-41.18649497791518,-30.029210544651868,-35.31330791781458,-63.28405287466994,46.32799999997951
312462.0487,-36.218122455469434,-24.968791398394803,-30.552820289206814,-57.25715767851596,46.3289999999688
312462.0497,-30.302180048910007,-19.139815252474563,-24.99041956734476,-50.751773057051814,46.32999999995809
312462.0507,-23.574016999490144,-12.623198401920506,-18.738195622891304,-43.885338590287304,46.33100000000559
312462.0517,-16.20497758550169,-5.531800306825649,-11.942402744220848,-36.79035051920092,46.33199999999488
312462.0527,-8.396313982088698,1.9923859784554752,-4.778654473127112,-29.611441418095957,46.33299999998417
312462.0537,-0.37055604919383045,9.783495349208424,2.555569974599205,-22.50074776224604,46.33399999997346
312462.0547,7.639129250587916,17.65914554940794,9.85060787500928,-15.611870839057113,46.33499999996275
312462.0557,15.400860624340654,25.429336475826908,16.895768704612163,-9.092901222478238,46.336000000010245
312462.0567,22.6963824192701,32.906202911052375,23.491094802198596,-3.079097236539455,46.336999999999534
312462.0577,29.332891955264667,39.91384871370377,29.458781267582626,2.3141289030075827,46.337999999988824
312462.0587,35.15343857367856,46.29747779213457,34.65331655013313,6.997264209402052,46.338999999978114
312462.0597,40.04507215250797,51.93109397223189,38.969496932984846,10.911199645316975,46.339999999967404
312462.0607,43.944084637288235,56.723163162323125,42.34763709300966,14.029723639670594,46.34099999995669
312462.0617,46.83791306194928,60.61980628050605,44.775530692042565,16.35971487401412,46.34200000000419
312462.0627,48.763537882826974,63.605304640097295,46.28698926044456,17.93895067335025,46.34299999999348
312462.0637,49.80249362806223,65.69993174482012,46.957080081269694,18.83166655876226,46.34399999998277
312462.0647,50.07288529728372,66.95535570347631,46.894467999924125,19.12221421961948,46.34499999997206
312462.0657,49.71904922051053,67.44806370416954,46.23151608260339,18.907348733643193,46.34599999996135
312462.0667,48.89968916225294,67.27142509001803,45.11299262708873,18.28781294259662,46.34700000000885
312462.0677,47.775439748009646,66.52711720390973,43.68434899899351,17.359963192870936,46.34799999999814
312462.0687,46.4968483945977,65.31667825387588,42.080562755763474,16.20818746263872,46.34899999998743
312462.0697,45.193719842187186,63.73392027785053,40.41648019989352,14.898802095536775,46.34999999997672
312462.0707,43.96663805337361,61.8588359652064,38.77944705221655,13.475981798455637,46.35099999996601
312462.0717,42.881280321382086,59.75347535759102,37.22479869362912,11.960090774252253,46.3519999999553
312462.0727,41.96588630444884,57.460067792924,35.774512717130776,10.348558085153412,46.353000000002794
312462.0737,41.21196381234725,55.00144064024284,34.41903179145691,8.619198919942049,46.353999999992084
312462.0747,40.578029769936165,52.38356149792537,33.12197216052145,6.73564875134803,46.35499999998137
312462.0757,39.995925394289934,49.59982680874179,31.82717051093922,4.654372520590855,46.35599999997066
312462.0767,39.37903341416503,46.63655735644055,30.467314600542444,2.3325564419407625,46.35699999995995
312462.0777,38.63158152955588,43.47905572395244,28.973270740917865,-0.2638985097918794,46.35800000000745
312462.0787,37.65815292772473,40.11754254705383,27.283176364136835,-3.153075602695149,46.35899999999674
312462.0797,36.37254621650233,36.55232044610032,25.35041221268585,-6.331164135747633,46.35999999998603
312462.0807,34.70522983424434,32.79761282093516,23.149700848346008,-9.76859919875121,46.36099999997532
312462.0817,32.608808053769955,28.88367844632655,20.680782330934203,-13.408621320223032,46.36199999996461
312462.0827,30.06113855224134,24.856995584777213,17.96937310641842,-17.168425415577456,46.36300000001211
312462.0837,27.065991787628228,20.778520825993713,15.065394425329188,-20.94281960236071,46.3640000000014
312462.0847,23.651394328227738,16.720235980937264,12.03873371178911,-24.61007378546941,46.36499999999069
312462.0857,19.866026293475493,12.760379525509194,8.973048473748237,-28.039429105971706,46.36599999997998
312462.0867,15.774224471280883,8.977898437811904,5.958313148761741,-31.099582834961513,46.366999999969266
312462.0877,11.450259836105475,5.446737544650402,3.082926007001083,-33.66737426294114,46.367999999958556
312462.0887,6.972600228695786,2.2305984435414143,0.4262247177346862,-35.63588403500484,46.369000000006054
312462.0897,2.4188327704246237,-0.6212527428963592,-1.9477971491696406,-36.92122313913623,46.36999999999534
312462.0907,-2.138188931445758,-3.0766646148664076,-3.994918363141446,-37.46742173307672,46.37099999998463
312462.0917,-6.632578234448074,-5.121468121929155,-5.692813924891215,-37.2490186890445,46.37199999997392
312462.0927,-11.005847978546091,-6.758432921454627,-7.04067702939471,-36.271181114203266,46.37299999996321
312462.0937,-15.205593044253998,-8.004424704380403,-8.05641366823246,-34.567426468827925,46.37400000001071
312462.0947,-19.182701143812224,-8.886078473069775,-8.771749475917648,-32.19525407972978,46.375
312462.0957,-22.887567356497787,-9.434474996884216,-9.225819175674994,-29.23019451654142,46.37599999998929
312462.0967,-26.265933612772926,-9.679430823215878,-9.457981518274922,-25.758934261835297,46.37699999997858
312462.0977,-29.25505171519258,-9.644072401408165,-9.500698628130252,-21.872254261169413,46.37799999996787
312462.0987,-31.780867663578853,-9.3403543791251,-9.373327358179319,-17.658525807428337,46.37899999995716
312462.0997,-33.75684405060623,-8.766100338925202,-9.0775894532214,-13.198434854509694,46.38000000000466
312462.1007,-35.08488241825055,-7.903997860209396,-8.59532388187707,-8.561463072453622,46.380999999993946
312462.1017,-35.658592859418,-6.722782346112566,-7.888893948994394,-3.8044547581875787,46.381999999983236
312462.1027,-35.36890454870077,-5.180614700037347,-6.90434616801023,1.0276369421502838,46.382999999972526
312462.1037,-34.11174367223233,-3.230419642764018,-5.577124755733395,5.898979141595618,46.383999999961816
312462.1047,-31.797251943327385,-0.8267287553193698,-3.839864709764836,10.778453086585388,46.38500000000931
312462.1057,-28.359806466160485,2.066611196505028,-1.6315467682374276,15.63419883235844,46.3859999999986
312462.1067,-23.767953655458317,5.468628279703694,1.0928754881693097,20.427833705352867,46.38699999998789
312462.1077,-18.033303803560468,9.3741276433254,4.353353487500404,25.10912910589957,46.38799999997718
312462.1087,-11.217458356642044,13.74808895225655,8.13709456223466,29.611908144243046,46.38899999996647
312462.1097,-3.4361595580162034,18.52223074521995,12.393247571544604,33.85182119173417,46.38999999995576
312462.1107,5.139946994315186,23.594231202504023,17.030589970159717,37.72647663515045,46.39100000000326
312462.1117,14.28827962566577,28.82985826947463,21.918617516060234,41.11816686902978,46.39199999999255
312462.1127,23.741052401911674,34.06799392657491,26.892127111495654,43.899158137522406,46.39299999998184
312462.1137,33.19548583332467,39.12826393503415,31.75905767812346,45.939234597996865,46.39399999997113
312462.1147,42.32690878561109,43.820732861873275,36.311045548356525,47.11493055891356,46.39499999996042
312462.1157,50.80390930270303,47.95691991803546,40.33589016876671,47.3196771787789,46.396000000007916
312462.1167,58.30450933646589,51.361254844219424,43.6309388200332,46.473953377607,46.396999999997206
312462.1177,64.53224494428834,53.882038654770085,46.01630403177402,44.534480714149176,46.397999999986496
312462.1187,69.23103783080302,55.40100712721913,47.346833583021436,41.50154527273792,46.398999999975786
312462.1197,72.19784496323442,55.840712291546375,47.52185941034607,37.42366351608303,46.399999999965075
312462.1207,73.2922597447631,55.16912718268966,46.49194738968237,32.39902175675395,46.40100000001257
312462.1217,72.44249208659294,53.40112299934249,44.26213509199156,26.573390593723172,46.40200000000186
312462.1227,69.647450802771,50.596741701876944,40.891452963687634,20.13452066410245,46.40299999999115
312462.1237,64.97496177219217,46.856464557698864,36.48884592442712,13.303335420171068,46.40399999998044
312462.1247,58.55645047971375,42.31393192486291,31.205916433921793,6.322521059915647,46.40499999996973
312462.1257,50.578671425555484,37.12677812389884,25.227168403579405,-0.556653529938426,46.40599999995902
312462.1267,41.27325789046688,31.466389028211502,18.758620800532846,-7.088294534948662,46.40700000000652
312462.1277,30.904978828538,25.507457068525788,12.015764524855491,-13.04555476498413,46.40799999999581
312462.1287,19.759618306530857,19.418194306978315,5.21184878011494,-18.232977350393345,46.4089999999851
312462.1297,8.132338247915818,13.351972412512643,-1.4525947049907602,-22.496583391271326,46.40999999997439
312462.1307,-3.6827436030230736,7.440999222344631,-7.7982395272856015,-25.730968925062463,46.41099999996368
312462.1317,-15.401215849636932,1.7924314998417983,-13.672935816961216,-27.88293195474473,46.412000000011176
312462.1327,-26.7549561239977,-3.5129168658822065,-18.95489779071118,-28.95144382836869,46.413000000000466
312462.1337,-37.49655396862898,-8.419359751205956,-23.553116814988268,-28.984084224009692,46.413999999989755
312462.1347,-47.40172316977338,-12.892937503354199,-27.405273263010837,-28.070347995628573,46.414999999979045
312462.1357,-56.27005027737342,-16.91634571830731,-30.473647756370116,-26.332479668055406,46.415999999968335
312462.1367,-63.92457283650929,-20.48285191613722,-32.739702116655124,-23.914676072197206,46.416999999957625
312462.1377,-70.21076370385046,-23.589933435788126,-34.198097560346625,-20.971604139747736,46.41800000000512
312462.1387,-74.99551000663448,-26.233373397961103,-34.85093448066435,-17.65720121101376,46.41899999999441
312462.1397,-78.1666171795065,-28.40248388733357,-34.702934427316876,-14.114659297138523,46.4199999999837
312462.1407,-79.63324745096749,-30.076993857923203,-33.7581481546974,-10.468350412019063,46.42099999997299
312462.1417,-79.32753180370335,-31.225956790606634,-32.018578349608795,-6.818242275522664,46.42199999996228
312462.1427,-77.20739345420573,-31.808817611604628,-29.484871954255954,-3.2371029710040804,46.42300000000978
312462.1437,-73.26041115368011,-31.778550645475207,-26.158988664399523,0.22947619761289767,46.42399999999907
312462.1447,-67.50835506905563,-31.086562396821776,-22.048514462269363,3.5604726714936126,46.42499999998836
312462.1457,-60.011868454866274,-29.688865796038616,-17.172086228655512,6.7547029908568765,46.42599999997765
312462.1467,-50.87466318880146,-27.552894357687087,-11.565246508832951,9.82461265594324,46.42699999996694
312462.1477,-40.24655961604125,-24.664248949189684,-5.285971864408277,12.789335341818505,46.42799999995623
312462.1487,-28.32473736166107,-21.03266396627395,1.5808776674258798,15.667802340696348,46.429000000003725
312462.1497,-15.352672586399828,-16.69654422938853,8.920856282497057,18.472635363197618,46.429999999993015
312462.1507,-1.6164097275304619,-11.725552454213753,16.589489035767265,21.20543613034906,46.430999999982305
312462.1517,12.561963621010374,-6.22090693081655,24.41438556206447,23.853908491422164,46.431999999971595
312462.1527,26.833522430910232,-0.3132621676319417,32.1999597252716,26.391032746161045,46.432999999960884
312462.1537,40.83402400763014,5.8417294985595385,39.73454405327537,28.7762806814293,46.43400000000838
312462.1547,54.197147306259325,12.069862313996797,46.79944362776564,30.958637965701087,46.43499999999767
312462.1557,66.5686749126336,18.18633094266591,53.17927066514163,32.881011000997205,46.43599999998696
312462.1567,77.62072290558018,24.00456281711744,58.672759260096946,34.485457345037815,46.43699999997625
312462.1577,87.06508306974948,29.34522575973117,63.1031943510182,35.718605866223875,46.43799999996554
312462.1587,94.66478344389394,34.04470355101853,66.32760684820624,36.53663127203923,46.43900000001304
312462.1597,100.24309399107712,37.96239562641627,68.24398654671661,36.909216294074916,46.44000000000233
312462.1607,103.68939352991234,40.98632069519584,68.79593617773605,36.82206494650469,46.44099999999162
312462.1617,104.96155458371905,43.036674388660224,67.97441676853474,36.27770682910473,46.44199999998091
312462.1627,104.0847722147495,44.06719017851875,65.81649395267078,35.29453561384334,46.4429999999702
312462.1637,101.14703627910497,44.06436028405427,62.401261402835104,33.90423221555402,46.44399999995949
312462.1647,96.29169872443372,43.04476814284236,57.843364972113484,32.147912030972414,46.445000000006985
312462.1657,89.70779565165347,41.05094691552223,52.28475528920332,30.071485472202433,46.445999999996275
312462.1667,81.61892939348729,38.14629363677219,45.885437755529665,27.720815481547966,46.446999999985565
312462.1677,72.27158650546727,34.40962530109187,38.814053798846956,25.137284351918918,46.447999999974854
312462.1687,61.92375827729909,29.929956768438085,31.23911016428076,22.354341507027,46.448999999964144
312462.1697,50.83464379836872,24.802012771770777,23.321576462788,19.39549774782305,46.45000000001164
312462.1707,39.25606174397719,19.122865633916792,15.209405530613354,16.274070602386654,46.45100000000093
312462.1717,27.425992188036407,12.989930063377402,7.034313584055269,12.994786421941182,46.45199999999022
312462.1727,15.564434856568605,6.500364090678957,-1.089090034057234,9.55712850350401,46.45299999997951
312462.1737,3.8715288627017155,-0.24825948041094856,-9.061985393933625,5.960109607450307,46.4539999999688
312462.1747,-7.472345068874276,-7.156313908288065,-16.79822936562735,2.20796433904303,46.45499999995809
312462.1757,-18.30494379187158,-14.11994602439856,-24.220026811232163,-1.68387801138505,46.45600000000559
312462.1767,-28.479614406199268,-21.028886376489066,-31.253087838905167,-5.683251016306322,46.45699999999488
312462.1777,-37.862472086069296,-27.76478019886792,-37.8220211048395,-9.736848704959455,46.45799999998417
312462.1787,-46.3299410103771,-34.20053709391461,-43.84668042199945,-13.767597060811346,46.45899999997346
312462.1797,-53.76721183635461,-40.20109770052942,-49.240071944354206,-17.67428840047753,46.45999999996275
312462.1807,-60.06802363907799,-45.62586617087088,-53.908252930610374,-21.333766260538454,46.461000000010245
312462.1817,-65.13598761100663,-50.3328727413242,-57.75242827568588,-24.60570912628599,46.461999999999534
312462.1827,-68.88745455130547,-54.18452970736225,-60.67320035598187,-27.33980680322224,46.462999999988824
312462.1837,-71.2557112484366,-57.0546473605584,-62.57667674240618,-29.3848781295785,46.463999999978114
312462.1847,-72.19609541417142,-58.836204529416,-63.381914676605746,-30.59926727328741,46.464999999967404
312462.1857,-71.69146581469727,-59.449239737249975,-63.029004187135726,-30.861699401966654,46.46599999995669
312462.1867,-69.75737028587338,-58.848158047607384,-61.48698191666149,-30.08169140083741,46.46700000000419
312462.1877,-66.44623001260774,-57.02774425835247,-58.76073710260329,-28.208609215666105,46.46799999999348
312462.1887,-61.84990730714117,-54.0272375999445,-54.89612385864024,-25.238542333944295,46.46899999998277
312462.1897,-56.10014223434519,-49.93195212050618,-49.98262589791673,-21.218322027996987,46.46999999997206
312462.1907,-49.36651992093307,-44.8721098064746,-44.15311931142622,-16.24623009322004,46.47099999996135
312462.1917,-41.85184851741646,-39.01877422081705,-37.58052759935989,-10.469209704985351,46.47200000000885
312462.1927,-33.78506666268978,-32.577011333861144,-30.471437748486803,-4.076676263743544,46.47299999999814
312462.1937,-25.412035930498615,-25.77663970529037,-23.057021160252273,2.7086917325065984,46.47399999998743
312462.1947,-16.98478521656941,-18.861142828675913,-15.581852995299723,9.64254875223721,46.47499999997672
312462.1957,-8.74993971317664,-12.075482959467582,-8.291424645295892,16.47203086457569,46.47599999996601
312462.1967,-0.9371705392885945,-5.653662650302721,-1.4192776282980017,22.949490810850467,46.4769999999553
312462.1977,6.2514685490395525,0.19308271919543496,4.825259599652742,28.845802914541,46.478000000002794
312462.1987,12.650497780127953,5.286614994775274,10.26778319282702,33.96225662971524,46.478999999992084
312462.1997,18.137562821899323,9.490007812193019,14.77714166009311,38.14017580032607,46.47999999998137
312462.2007,22.637068133231956,12.71287867139646,18.270738247173593,41.26759156833747,46.48099999997066
312462.2017,26.120613516806465,14.913590924228576,20.716414576362073,43.28254366029615,46.48199999995995
312462.2027,28.60421769228338,16.09822709224224,22.130806149558303,44.172865905791895,46.48300000000745
312462.2037,30.142580271348745,16.31649209466542,22.57435498867107,43.97260267867348,46.48399999999674
312462.2047,30.82088219150947,15.654948004702366,22.143443794840955,42.755478042697455,46.48499999998603
312462.2057,30.744831988014845,14.228189763876047,20.960354574914675,40.62607469969877,46.48599999997532
312462.2067,30.02981233491823,12.168725850940707,19.16193128640055,37.70955494448338,46.48699999996461
312462.2077,28.7900544636673,9.616415929203745,16.8879248132988,34.14085572583035,46.48800000001211
312462.2087,27.12876036600161,6.708331624580867,14.270010666090444,30.054306383011706,46.4890000000014
312462.2097,25.13000437476351,3.5698460583879883,11.422394243338942,25.574549972487443,46.48999999999069
312462.2107,22.853084327941794,0.3076284728496965,8.434762332013742,20.80950417122718,46.49099999997998
312462.2117,20.329772186820435,-2.994965756127686,5.368117136217548,15.845889288407628,46.491999999969266
312462.2127,17.564654140194452,-6.279845232252409,2.2537609020525666,10.747598300309726,46.492999999958556
312462.2137,14.538473881164965,-9.51345342928674,-0.9045903288096153,5.5569102505998345,46.494000000006054
312462.2147,11.214124378304668,-12.683583447853223,-4.12586976441409,0.29827877436776784,46.49499999999534
312462.2157,7.544696866521074,-15.794177817351008,-7.44445918974901,-5.015813650877411,46.49599999998463
312462.2167,3.4828119242097375,-18.85872892473077,-10.901483806819693,-10.377636100513445,46.49699999997392
312462.2177,-1.0096573305341474,-21.893011061691887,-14.535489877555289,-15.77644829478973,46.49799999996321
312462.2187,-5.952395545136637,-24.907921584023445,-18.37343760450455,-21.19106785252942,46.49900000001071
312462.2197,-11.338867915771512,-27.903182631116508,-22.422900367047813,-26.583598501211576,46.5
312462.2207,-17.130709690531923,-30.862559216274736,-26.666238093780564,-31.89503694897141,46.50099999998929
312462.2217,-23.254844970899114,-33.751093550473776,-31.0573192002463,-37.04329344843614,46.50199999997858
312462.2227,-29.603655923957376,-36.514653964286936,-35.52112059256552,-41.92392784611463,46.50299999996787
312462.2237,-36.03825381309244,-39.081868637188464,-39.95626186870218,-46.4136407924919,46.50399999995716
312462.2247,-42.39462938003506,-41.368280823482216,-44.24025370405749,-50.37629314031253,46.50500000000466
312462.2257,-48.492206475647535,-43.282345115054575,-48.23698726679987,-53.670980172525276,46.505999999993946
312462.2267,-54.14411198876461,-44.73270367395102,-51.80578484478459,-56.16148411068751,46.506999999983236
312462.2277,-59.168325707647455,-45.63605404063532,-54.81119064477053,-57.72628729779624,46.507999999972526
312462.2287,-63.398798821604025,-45.92485782867765,-57.132617628687,-58.26826269173869,46.508999999961816
312462.2297,-66.69563561407762,-45.55414802896043,-58.672986511274146,-57.72317399376,46.51000000000931
312462.2307,-68.95351846687166,-44.50677084301287,-59.36559398109987,-56.06621341132676,46.5109999999986
312462.2317,-70.10771333129404,-42.796538520133126,-59.17861853995609,-53.3159717818193,46.51199999998789
312462.2327,-70.13720664217831,-40.468959363851134,-58.11689722313983,-49.535457992740575,46.51299999997718
312462.2337,-69.06477551931343,-37.59943212671865,-56.22086307450507,-44.830041592211316,46.51399999996647
312462.2347,-66.95405806495842,-34.28902377249176,-53.56279699012262,-39.34246025610868,46.51499999995576
312462.2357,-63.90394557658487,-30.658170444249762,-50.240793328694586,-33.245287495049,46.51600000000326
312462.2367,-60.04084061277026,-26.83883089019007,-46.37104334184366,-26.731472189619584,46.51699999999255
312462.2377,-55.509494341103874,-22.965761989745737,-42.07918491813334,-20.003720405917203,46.51799999998184
312462.2387,-50.46323871014131,-19.167664414313652,-37.491538141083616,-13.263577126067064,46.51899999997113
312462.2397,-45.05445527975913,-15.558955675532555,-32.72703759239925,-6.701073524393634,46.51999999996042
312462.2407,-39.42607162243541,-12.232867160767402,-27.89058567167856,-0.48573425576851625,46.521000000007916
312462.2417,-33.70475383115856,-9.256437083509544,-23.068395398021377,5.24040355565073,46.521999999997206
312462.2427,-27.99628220290576,-6.66779446357454,-18.325681753751937,10.367307991051014,46.522999999986496
312462.2437,-22.38337443018205,-4.475917108341336,-13.706818299581828,14.81879260442759,46.523999999975786
312462.2447,-16.925978242882806,-2.662819267978597,-9.237824375897308,18.551717015367746,46.524999999965075
312462.2457,-11.66381678222663,-1.1879038219932914,-4.9308124470622605,21.552827064420896,46.52600000001257
312462.2467,-6.620757988809274,0.005979452479550414,-0.7898283068267656,23.83372158061529,46.52700000000186
312462.2477,-1.8104142163250092,0.9853754100339462,3.182621539916014,25.424586989839625,46.52799999999115
312462.2487,2.75772424268607,1.8186584047321521,6.979127139515632,26.36742704545061,46.52899999998044
312462.2497,7.07234861548907,2.5687739204605253,10.581775959508155,26.709525310906702,46.52999999996973
312462.2507,11.115267424122969,3.2869512023151133,13.958065604076346,26.497812789523824,46.53099999995902
312462.2517,14.857789445633344,4.007938464347718,17.058836969223062,25.77468010236467,46.53200000000652
312462.2527,18.258955570073436,4.747148046180409,19.818523832515847,24.575587599386342,46.53299999999581
312462.2537,21.265813357119885,5.499900231723845,22.15777075365998,22.92860789184081,46.5339999999851
312462.2547,23.815703263073875,6.242741810790195,23.988220310572753,20.855806976221523,46.53499999997439
312462.2557,25.840307241476285,6.936610627858015,25.219038746939695,18.37615672129943,46.53599999996368
312462.2567,27.271021381651384,7.531441114935518,25.764559923176886,15.509495683384031,46.537000000011176
312462.2577,28.045073923051312,7.9716757963771725,25.55230065664836,12.280935628003173,46.538000000000466
312462.2587,28.111732617577637,8.202076645420078,24.530549412666538,8.725060387919228,46.538999999989755
312462.2597,27.4379385261063,8.173224327152148,22.67476043673943,4.889287056837835,46.539999999979045
312462.2607,26.012766943228435,7.846152199250225,19.992094016400458,0.8358543856578808,46.540999999968335
312462.2617,23.850242784061674,7.195678035581458,16.523619738492464,-3.357940629112616,46.541999999957625
312462.2627,20.990213332232106,6.212156352411104,12.343925475243445,-7.601436383601018,46.54300000000512
312462.2637,17.497186526498606,4.901559975193932,7.558127342487677,-11.794185454096777,46.54399999999441
312462.2647,13.457255715481997,3.283990515830091,2.2965292062662215,-15.831151133293485,46.5449999999837
312462.2657,8.97342916051489,1.3908927889154459,-3.292591447070898,-19.609057232060604,46.54599999997299
312462.2667,4.159843453973831,-0.7386111967276408,-9.051414647073203,-23.033276357271664,46.54699999996228
312462.2677,-0.8645525572388163,-3.0617623466225865,-14.82145638841175,-26.024555088910798,46.54800000000978
312462.2687,-5.982213930273728,-5.536041236225957,-20.4520898184596,-28.52486139047379,46.54899999999907
312462.2697,-11.082512319072165,-8.122375576781863,-25.8079512366123,-30.501702713114557,46.54999999998836
312462.2707,-16.066032829089725,-10.787262819906223,-30.774596073595443,-31.95039714181214,46.55099999997765
312462.2717,-20.8472886901733,-13.503531281169353,-35.26195657473774,-32.89397167013247,46.55199999996694
312462.2727,-25.355671899197144,-16.249635087230974,-39.20538339024399,-33.380592205783366,46.55299999995623
312462.2737,-29.53466043536765,-19.00756388019852,-42.56430362948655,-33.47867591283976,46.554000000003725
312462.2747,-33.33950067569536,-21.759626725806847,-45.318772124584584,-33.27007288186842,46.554999999993015
312462.2757,-36.733755440358074,-24.48452096704889,-47.464405368818895,-32.84190656363361,46.555999999982305
312462.2767,-39.685234855878655,-27.15320365336832,-49.00634693412658,-32.277809892808506,46.556999999971595
312462.2777,-42.16189513777513,-29.725133252489385,-49.95300288752462,-31.649371041745095,46.557999999960884
312462.2787,-44.128292162961706,-32.14543633676889,-50.310296920318336,-31.00860084676448,46.55900000000838
312462.2797,-45.543112274266484,-34.34347833898657,-50.077126903418616,-30.382152648965683,46.55999999999767
312462.2807,-46.35817928000672,-36.233186523714664,-49.242564948477245,-29.767872064176103,46.56099999998696
312462.2817,-46.5191675878346,-37.71530018071746,-47.785146731276484,-29.134043694690288,46.56199999997625
312462.2827,-45.96805520568545,-38.68152540136097,-45.67436353747974,-28.421454338223683,46.56299999996554
312462.2837,-44.647148166620184,-39.020369994248874,-42.874226527409654,-27.548131765361227,46.56400000001304
312462.2847,-42.50432157913023,-38.62424902409496,-39.34854245720943,-26.416369773918632,46.56500000000233
312462.2857,-39.4989720379232,-37.39730240756456,-35.0673473732509,-24.921437877204355,46.56599999999162
312462.2867,-35.608077809560754,-35.26326869553413,-30.013809496757702,-22.96121795075926,46.56699999998091
312462.2877,-30.83172781161984,-32.17272418579828,-24.19084857314987,-20.445925223409496,46.5679999999702
312462.2887,-25.19751214600098,-28.10902820614199,-17.62673299146409,-17.307064998722378,46.56899999995949
312462.2897,-18.763263060308045,-23.092411499189165,-10.379006645202631,-13.504849629887618,46.570000000006985
312462.2907,-11.617786240420019,-17.181796410631655,-2.5362556760462414,-9.033445113089645,46.570999999996275
312462.2917,-3.8794130898884656,-10.474130726096748,5.782565079142515,-3.923618895939214,46.571999999985565
312462.2927,4.307584287193183,-3.1012330095396465,14.431286190508255,1.7573996843531208,46.572999999974854
312462.2937,12.778464018431508,4.7756347510784485,23.24195277838057,7.908780886154253,46.573999999964144
312462.2947,21.354933482863707,12.973052772548447,32.0320967356116,14.401368957199841,46.57500000001164
312462.2957,29.852935086895883,21.294013236554658,40.613236267299975,21.084850897916933,46.57600000000093
312462.2967,38.0906324744072,29.537095036786358,48.79986501273282,27.79614572719914,46.57699999999022
312462.2977,45.895914093722126,37.50552456486531,56.41814585650028,34.36825395249113,46.57799999997951
312462.2987,53.112785248798545,45.015432943029815,63.313557566700354,40.63879714195736,46.5789999999688
312462.2997,59.60614019118393,51.902715566737264,69.35685269063183,46.457544240041294,46.57999999995809
312462.3007,65.26458058112013,58.02805150368211,74.44786163042001,51.692356623453065,46.58100000000559
312462.3017,70.00115782554417,63.27983247050512,78.51690235140424,56.23317284980327,46.58199999999488
312462.3027,73.75214218677917,67.57496377113702,81.52380430787859,59.993876059844595,46.58299999998417
312462.3037,76.47413698728096,70.85771055213002,83.45480262381986,62.91211813496261,46.58399999997346
312462.3047,78.14003816795586,73.09695001160948,84.31777799968619,64.94739022784002,46.58499999996275
312462.3057,78.734467521502,74.28233432602123,84.13648565308985,66.07780623060334,46.586000000010245
312462.3067,78.24936717794255,74.41995519048156,82.94451457760277,66.29618544251872,46.586999999999534
312462.3077,76.68042554417256,73.52812036492185,80.77973555923757,65.60607073000729,46.587999999988824
312462.3087,74.02491111995354,71.63380394508725,77.6799302731742,64.01829398940602,46.588999999978114
312462.3097,70.28132877949794,68.77022093574979,73.68015074752074,61.54860494475048,46.589999999967404
312462.3107,65.45109890211795,64.97581538488494,68.81215303993893,58.216723142716965,46.59099999995669
312462.3117,59.54221460469947,60.29475738972319,63.10600229539108,54.04697384168929,46.59200000000419
312462.3127,52.57458132117205,54.778838645456915,56.593684067953156,49.07044835078142,46.59299999999348
312462.3137,44.58651220975421,48.490461012314206,49.31430634468321,43.32841255954685,46.59399999998277
312462.3147,35.64166691424668,41.506248889770085,41.32026456910216,36.87649794194352,46.59499999997206
312462.3157,25.835600621224096,33.92070187098659,32.68359093336948,29.78906848367484,46.59599999996135
312462.3167,15.301049653447182,25.849252101290585,23.50163616711485,22.16308108211059,46.59700000000885
312462.3177,4.211126045474987,17.43010766017641,13.901246277058378,14.120755700960105,46.59799999999814
312462.3187,-7.220274525109813,8.824348962408823,4.040698961080266,5.8104470304722495,46.59899999998743
312462.3197,-18.741338777302328,0.21389265665282217,-5.891153083825005,-2.5947441076973075,46.59999999997672
312462.3207,-30.068695212800446,-8.20286632154956,-15.678837711967862,-10.900876856326171,46.60099999996601
312462.3217,-40.897181267346156,-16.217697028638167,-25.087334059622954,-18.89960764970126,46.6019999999553
312462.3227,-50.91261727285809,-23.62118532587096,-33.87196948952847,-26.376913236003087,46.603000000002794
312462.3237,-59.80688869334504,-30.21290024637612,-41.79056117298481,-33.12360409474111,46.603999999992084
312462.3247,-67.29438564405436,-35.81238859397403,-48.61696872377296,-38.946917540549535,46.60499999998137
312462.3257,-73.12866541805514,-40.270177890408334,-54.15503763221034,-43.68232082960577,46.60599999997066
312462.3267,-77.11810819514005,-43.477901394841574,-58.25181119204429,-47.20456921551294,46.60699999995995
312462.3277,-79.13933966403086,-45.376669157778046,-60.80888312778112,-49.43706271864638,46.60800000000745
312462.3287,-79.14729999398271,-45.96289762928506,-61.79085767275089,-50.358631280082896,46.60899999999674
312462.3297,-77.18104074091093,-45.29097187578716,-61.23007292254107,-50.00704581166971,46.60999999998603
312462.3307,-73.36461574261635,-43.47233696440769,-59.22701279024879,-48.47878957351702,46.61099999997532
312462.3317,-67.90277737331502,-40.67088084490738,-55.9461612299,-45.92491083893906,46.61199999996461
312462.3327,-61.07156858949385,-37.09475818289656,-51.60741230974472,-42.54308956460345,46.61300000001211
312462.3337,-53.20428352500024,-32.98508883551866,-46.473510622468545,-38.56636066053195,46.6140000000014
312462.3347,-44.67362369483327,-28.60222157077745,-40.83432719296865,-34.249217067489305,46.61499999999069
312462.3357,-35.871173738800806,-24.21046074503861,-34.98904741542419,-29.85204205125357,46.61599999997998
312462.3367,-27.185535123830764,-20.062292508690344,-29.22753533765885,-25.624971335348683,46.616999999969266
312462.3377,-18.980570041640714,-16.383204962807117,-23.8122255636666,-21.792347841186842,46.617999999958556
312462.3387,-11.575210927608046,-13.358167728462057,-18.961871587119038,-18.538898669518183,46.619000000006054
312462.3397,-5.226182887265206,-11.120722333006137,-14.838348455073996,-15.998637809896618,46.61999999999534
312462.3407,-0.1147755115081421,-9.745444812450279,-11.537478766184305,-14.247289497125502,46.62099999998463
312462.3417,3.6614956368295153,-9.244291753305465,-9.084543217684352,-13.298754095946775,46.62199999997392
312462.3427,6.091854835789204,-9.567051621748849,-7.4347762048619455,-13.105824524829718,46.62299999996321
312462.3437,7.249765380636281,-10.605818888917902,-6.478763834017919,-13.565033632961566,46.62400000001071
312462.3447,7.285257642082688,-12.203114436498886,-6.052288351055856,-14.525199661495263,46.625
312462.3457,6.4127403710704005,-14.16301604766198,-5.949830440725192,-15.798964332821365,46.62599999998929
312462.3467,4.895250061192354,-16.26445811499944,-5.9406762009295875,-17.17640855865829,46.62699999997858
312462.3477,3.0263129202777193,-18.275725561873077,-5.786399651890683,-18.439700585954764,46.62799999996787
312462.3487,1.1107179726023142,-19.96911254398902,-5.258417232616798,-19.377689627569662,46.62899999995716
312462.3497,-0.5544787420931251,-21.134743950219995,-4.154341779194817,-19.79940572037898,46.63000000000466
312462.3507,-1.6974781110459594,-21.592662251440647,-2.3119948374250257,-19.545556952349543,46.630999999993946
312462.3517,-2.0867190365741313,-21.20245268537084,0.3798456784790755,-18.4973145199656,46.631999999983236
312462.3527,-1.5424887942318695,-19.869899724103124,3.9746010388736766,-16.581924927095375,46.632999999972526
312462.3537,0.055371415401313684,-17.550417187889146,8.465263935966075,-13.77496387412126,46.633999999961816
312462.3547,2.763881400711161,-14.249251330515076,13.785963526699057,-10.099323254675403,46.63500000000931
312462.3557,6.577357270596666,-10.018698895237277,19.817378440936974,-5.621277030421131,46.6359999999986
312462.3567,11.431479680968092,-4.952790659049083,26.395374781318637,-0.444182186233639,46.63699999998789
312462.3577,17.21037138774314,0.8199508703660725,33.32203279921504,5.299479333818477,46.63799999997718
312462.3587,23.755892412617715,7.144974395327459,40.37809302905568,11.45693364748152,46.63899999996647
312462.3597,30.87827175234025,13.85064861366246,47.33580827501965,17.864036159164254,46.63999999995576
312462.3607,38.3671868640265,20.756998584141925,53.97123190442262,24.353563861492695,46.64100000000326
312462.3617,46.00247161892972,27.68362720561056,60.07509738865443,30.762293722329158,46.64199999999255
312462.3627,53.563768624550114,34.45636235036559,65.46163387999802,36.93646140075332,46.64299999998184
312462.3637,60.83862574485694,40.91234436232258,69.97489727337623,42.73540141629147,46.64399999997113
312462.3647,67.62874845375963,46.90345553216426,73.49245170307566,48.03338285308889,46.64499999996042
312462.3657,73.75433680165932,52.29817377915503,75.92648772328522,52.7198521333258,46.646000000007916
312462.3667,79.05663629402146,56.98208934224021,77.22268683140521,56.69845683326713,46.646999999997206
312462.3677,83.39899664293442,60.8574410102163,77.35731744290538,59.88533637271407,46.647999999986496
312462.3687,86.66684650561227,63.84209686429838,76.33316032914269,62.20721653010081,46.648999999975786
312462.3697,88.76704723844172,65.86841855798643,74.17490407878715,63.59983131810732,46.649999999965075
312462.3707,89.62708226951356,66.8824084687823,70.92462290784411,64.00712065515408,46.65100000001257
312462.3717,89.1944754514747,66.84345187670424,66.63785690258781,63.38152465032656,46.65200000000186
312462.3727,87.43672215637305,65.7248427838155,61.38067162991974,61.685529674475006,46.65299999999115
312462.3737,84.34187600065002,63.51513686737193,55.2278978793465,58.89443602935289,46.65399999998044
312462.3747,79.91977990155634,60.220225200033134,48.26256381111118,55.000132197926824,46.65499999996973
312462.3757,74.20378149321702,55.86588489640272,40.57635226973193,50.015496484196845,46.65599999995902
312462.3767,67.25264742870984,50.50045336949614,32.2707651448716,43.97892129026496,46.65700000000652
312462.3777,59.152303401163984,44.1972039030924,23.45857046009579,36.95838232900439,46.65799999999581
312462.3787,50.016986973046706,37.055979892975834,14.265057187232195,29.054463375484563,46.6589999999851
312462.3797,39.98941318992624,29.203676344576078,4.828632269399937,20.40179916107819,46.65999999997439
312462.3807,29.23961732397879,20.793237581110294,-4.699637895483703,11.168510724011918,46.66099999996368
312462.3817,17.962248200935242,12.000962036624347,-14.15782129698606,1.5533689392457877,46.662000000011176
312462.3827,6.37222787702155,3.022056582877337,-23.37637445843502,-8.219381982393704,46.663000000000466
312462.3837,-5.301146110757268,-5.935450933747627,-32.18280735647179,-17.9073971099878,46.663999999989755
312462.3847,-16.82141808669343,-14.658167983848942,-40.40753450298045,-27.25944776927844,46.664999999979045
312462.3857,-27.95312772866695,-22.935743709257515,-47.89053105619944,-36.02594770025249,46.665999999968335
312462.3867,-38.47040223492153,-30.569694104359282,-54.488292033096776,-43.97011216019253,46.666999999957625
312462.3877,-48.165419639083055,-37.382047367028356,-60.08052109524137,-50.87898911629984,46.66800000000512
312462.3887,-56.856157676494114,-43.22319581341552,-64.57596138053636,-56.5735822980972,46.66899999999441
312462.3897,-64.39287929303471,-47.97838068297481,-67.91682694824445,-60.917334457713146,46.6699999999837
312462.3907,-70.66289460922135,-51.57232811169658,-70.0813959229532,-63.82235204081374,46.67099999997299
312462.3917,-75.59327193828297,-53.97169065151474,-71.08447588454068,-65.25291988198022,46.67199999996228
312462.3927,-79.15133487686252,-55.185116823172166,-70.97563410716752,-65.22606165281623,46.67300000000978
312462.3937,-81.34296288159571,-55.26095605944185,-69.83528211424102,-63.80913002960333,46.67399999999907
312462.3947,-82.20889178754783,-54.28279113194961,-67.768896247183,-61.11463937040362,46.67499999998836
312462.3957,-81.81937116026512,-52.36315785165994,-64.89982440911554,-57.29276255720358,46.67599999997765
312462.3967,-80.26766175898922,-49.63594720993075,-61.36125695318374,-52.522083981905645,46.67699999996694
312462.3977,-77.66293665806353,-46.248076011602535,-57.28801392219735,-46.99931757625586,46.67799999995623
312462.3987,-74.12317626337358,-42.35105055676124,-52.8088138896899,-40.928752574820166,46.679000000003725
312462.3997,-69.76861846996657,-38.09303120491132,-48.03963996388609,-34.512176654505886,46.679999999993015
312462.4007,-64.71624401103067,-33.61193614837591,-43.07871081021813,-27.939948845343167,46.680999999982305
312462.4017,-59.07565234497739,-29.030007899907933,-38.003409328829754,-21.383761806148158,46.681999999971595
312462.4027,-52.94652825437937,-24.450117597400236,-32.869334137329105,-14.991458476476291,46.682999999960884
312462.4037,-46.41772974591528,-19.953915073657814,-27.7114377258714,-8.884069254650413,46.68400000000838
312462.4047,-39.56786129691517,-15.601763182372917,-22.547019928135356,-3.1550322024299615,46.68499999999767
312462.4057,-32.46705006795563,-11.434239563549541,-17.380175457345743,2.1286300978260835,46.68599999998696
312462.4067,-25.17953134771301,-7.474862700098347,-12.207166452886288,6.923559789065656,46.68699999997625
312462.4077,-17.766584503002928,-3.7336134978429896,-7.022117841055851,11.206231580358676,46.68799999996554
312462.4087,-10.289348497218699,-0.2107861866668782,-1.8224219303100493,14.968585548128782,46.68900000001304
312462.4097,-2.811087458246946,3.0992844540441835,3.3867100933549454,18.213665868250718,46.69000000000233
312462.4107,4.601433066447338,6.205011516995467,8.58900373175663,20.951744488155175,46.69099999999162
312462.4117,11.87766981624314,9.115150978127605,13.75548363616404,23.197298714815034,46.69199999998091
312462.4127,18.944183334531576,11.837365225061012,18.84455908038392,24.967066970383588,46.6929999999702
312462.4137,25.726575544336832,14.377775003227253,23.803754582779774,26.27924441240169,46.69399999995949
312462.4147,32.152233515013805,16.741380995745484,28.572824145136995,27.153718295636562,46.695000000006985
312462.4157,38.15351026135016,18.933116904106065,33.087833892091815,27.61310017753617,46.695999999996275
312462.4167,43.67089743451282,20.95920977495107,37.285690920524,27.684204442854643,46.696999999985565
312462.4177,48.65572208540768,22.828480672420106,41.10854787770598,27.3995623087523,46.697999999974854
312462.4187,53.071934610260094,24.5532250542872,44.50752906711072,26.79855436046732,46.698999999964144
312462.4197,56.896645530483156,26.149367308112193,47.44530380961779,25.927793596176052,46.70000000001164
312462.4207,60.119206672373394,27.63568219594835,49.897168616319554,24.840489571798724,46.70100000000093
312462.4217,62.73880383477331,29.032006741625892,51.85047758174191,23.59466151059449,46.70199999999022
312462.4227,64.760715214715,30.356514700269663,53.30246163677284,22.25022863373917,46.70299999997951
312462.4237,66.19157236909983,31.622275064876412,54.25668036628715,20.86517104851617,46.7039999999688
312462.4247,67.03411769978295,32.833448364059926,54.71853275996043,19.491104953004182,46.70499999995809
312462.4257,67.28206560686466,33.98157336752452,54.690394897177626,18.1687334970414,46.70600000000559
312462.4267,66.9157286928158,35.042448938391004,54.16703631769923,16.923704343972027,46.70699999999488
312462.4277,65.89905639299784,35.97411248517676,53.13198144200219,15.76341659785277,46.70799999998417
312462.4287,64.1786485016881,36.716354793493245,51.55542349106194,14.675269110010769,46.70899999997346
312462.4297,61.685154752435956,37.19209415541843,49.39416899825393,13.626731677673511,46.70999999996275
312462.4307,58.3372653163924,37.31076988581416,46.59390162365394,12.567459231185973,46.711000000010245
312462.4317,54.04825322492995,36.973720993724335,43.09382145390187,11.43347145756595,46.711999999999534
312462.4327,48.734770199006,36.08130835885059,38.83346211478953,10.153205483438622,46.712999999988824
312462.4337,42.32734654504309,34.54133880515452,33.76123754707578,8.655038823405944,46.713999999978114
312462.4347,34.78182821249221,32.27817766561441,27.844048433557685,6.875695759620946,46.714999999967404
312462.4357,26.090822198354974,29.24181155491628,21.077108314943757,4.768812783318836,46.71599999995669
312462.4367,16.29413327352615,25.416059995622792,13.49305043125694,2.3128639003678617,46.71700000000419
312462.4377,5.487172365906874,20.825142692399616,5.169361098581278,-0.4823549813214543,46.71799999999348
312462.4387,-6.173595710074299,15.53789147346559,-3.7667407977587977,-3.5714080317919494,46.71899999998277
312462.4397,-18.468923759207513,9.669048050924356,-13.136698895571131,-6.871644779581586,46.71999999997206
312462.4407,-31.119282951834826,3.3772998152886076,-22.71277529740065,-10.264734885865998,46.72099999996135
312462.4417,-43.791797958014435,-3.1400410345815377,-32.22416297986502,-13.601422935550858,46.72200000000885
312462.4427,-56.111484565905876,-9.655535997392217,-41.3669276644777,-16.709335282940273,46.72299999999814
312462.4437,-67.67631621549108,-15.922846955982854,-49.81732535061637,-19.403394621640988,46.72399999998743
312462.4447,-78.0753282928209,-21.689998783952642,-57.24773965696047,-21.498149154978044,46.72499999997672
312462.4457,-86.90870282301088,-26.713792864699858,-63.344233181325144,-22.821125620087326,46.72599999996601
312462.4467,-93.80858485053841,-30.77436225381757,-67.82453259780476,-23.226188448854188,46.7269999999553
312462.4477,-98.45928283056853,-33.6888160638427,-70.45518524676714,-22.605844493562845,46.728000000002794
312462.4487,-100.61550871473733,-35.322964144023516,-71.06664471658588,-20.90148006415415,46.728999999992084
312462.4497,-100.11742046264806,-35.600241073475964,-69.56516468030156,-18.11065246281987,46.72999999998137
312462.4507,-96.90143299647971,-34.50715103545965,-65.940595319984,-14.290771629443444,46.73099999997066
312462.4517,-91.00604742669209,-32.09481558933088,-60.26946796093307,-9.558781521394025,46.73199999995995
312462.4527,-82.57229003427736,-28.476502604819743,-52.71309703008232,-4.086762263125474,46.73300000000745
312462.4537,-71.83872430424762,-23.82132116645238,-43.510795297331526,1.9063039642107442,46.73399999999674
312462.4547,-59.131370978346354,-18.34455752803471,-32.96865744558483,8.166055984250713,46.73499999998603
312462.4557,-44.84921244056011,-12.295376042245064,-21.444687799214467,14.416758331164345,46.73599999997532
312462.4567,-29.44624137736593,-5.942795028066138,-9.331303348915428,20.376787487751628,46.73699999996461
312462.4577,-13.411217447475094,0.43904481121819333,2.9635882269325893,25.77449071688991,46.73800000001211
312462.4587,2.7535952025831407,6.585280845628237,15.035667398059557,30.36329280597912,46.7390000000014
312462.4597,18.553428610251228,12.253425251032647,26.502206206540063,33.935003941532514,46.73999999999069
312462.4607,33.520558937300535,17.234330525646218,37.01789887271593,36.33044541912378,46.74099999997998
312462.4617,47.231387499139196,21.3604055133113,46.287641679336,37.446743119594046,46.741999999969266
312462.4627,59.320285174390314,24.510716233889983,54.07566646012997,37.24091955358725,46.742999999958556
312462.4637,69.48971820339295,26.612877402244667,60.210749671366784,35.72971763910302,46.744000000006054
312462.4647,77.51647680840765,27.64190555513057,64.58754212208537,32.985885581582124,46.74499999999534
312462.4657,83.25411934536804,27.61643898735216,67.16436329427421,29.13141581967751,46.74599999998463
312462.4667,86.63199838093703,26.592912693489346,67.95805230905222,24.328439263061544,46.74699999997392
312462.4677,87.65143056288585,24.658393301259004,67.03664423836602,18.768612123531117,46.74799999996321
312462.4687,86.37969550518811,21.922821588937875,64.5107325290173,12.661887037058076,46.74900000001071
312462.4697,82.94259408333808,18.511378165216907,60.5243814620626,6.225531514964463,46.75
312462.4707,77.516265643805,14.557588194282552,55.24637143654779,-0.32584829025351036,46.75099999998929
312462.4717,70.31886643881002,10.19762709278527,48.86240730785629,-6.788688126220391,46.75199999997858
312462.4727,61.60256423373335,5.566099297751354,41.56871561600991,-12.976870809267895,46.75299999996787
312462.4737,51.64612709492668,0.7933578936890796,33.567224458688685,-18.726007111025776,46.75399999995716
312462.4747,40.74820060621752,-3.995763739402348,25.062286143940568,-23.89567009600134,46.75500000000466
312462.4757,29.221199632718626,-8.682105338898483,16.258693033990205,-28.369860214918024,46.755999999993946
312462.4767,17.38560802275231,-13.15163800004442,7.36057331468643,-32.05613154031415,46.756999999983236
312462.4777,5.5643973690832915,-17.29471214876381,-1.4293475281395096,-34.883902095697685,46.757999999972526
312462.4787,-5.922747024831041,-21.005582057290372,-9.910662365206512,-36.8024959421514,46.758999999961816
312462.4797,-16.76566672382844,-24.182633475135148,-17.886872657554264,-37.77942151293186,46.76000000000931
312462.4807,-26.670617202140807,-26.729626215669466,-25.16803758667405,-37.79928676654706,46.7609999999986
312462.4817,-35.36784353050238,-28.558107660133334,-31.57469904945521,-36.863600529712016,46.76199999998789
312462.4827,-42.619722250004,-29.59097374262155,-36.94309716398977,-34.99152925022044,46.76299999997718
312462.4837,-48.229175727083785,-29.766971136547987,-41.13147661262387,-32.221490519367684,46.76399999996647
312462.4847,-52.04790888735909,-29.045768545229855,-44.02708214664075,-28.613291095871915,46.76499999995576
312462.4857,-53.983896999421525,-27.41309500054903,-45.553275057220546,-24.250378139641494,46.76600000000326
312462.4867,-54.0074841562766,-24.88536412735422,-45.6760910420205,-19.241684652474152,46.76699999999255
312462.4877,-52.155447207057875,-21.51318559013482,-44.4095178401327,-13.72252505717867,46.76799999998184
312462.4887,-48.53244462782217,-17.383212455934636,-41.81880552135396,-7.854039214916485,46.76899999997113
312462.4897,-43.309402576047994,-12.617883501286574,-38.02123296371516,-1.8207906994075942,46.76999999996042
312462.4907,-36.71858241042618,-7.372783715991065,-33.183932680848926,4.173711383172652,46.771000000007916
312462.4917,-29.045310076706464,-1.8315499620978795,-27.51860757929661,9.913593616795824,46.771999999997206
312462.4927,-20.616607594978962,3.8015268480402695,-21.273236558416265,15.179104347257233,46.772999999986496
312462.4937,-11.787226718259904,9.310828002655938,-14.721136441336128,19.756583785738812,46.773999999975786
312462.4947,-2.9238198038262184,14.480085723895188,-8.14799937047471,23.44930031223522,46.774999999965075
312462.4957,5.611830563208819,19.103680968435583,-1.8377323359212363,26.088385511651428,46.77600000001257
312462.4967,13.47948360925581,22.99772998127417,3.9419327725961435,27.543016078395937,46.77700000000186
312462.4977,20.37593912154181,26.010104823156205,8.953030281911527,27.728983582640613,46.77799999999115
312462.4987,26.048342095441274,28.028586293929756,12.99915513287647,26.614867954271766,46.77899999998044
312462.4997,30.304414601801255,28.986476396306095,15.934583439391782,24.22518414836283,46.77999999996973
312462.5007,33.01895631508206,28.8651921561392,17.670044433706618,20.640092572691017,46.78099999995902
312462.5017,34.13623546824665,27.693606941406493,18.174736026680748,15.991534119627753,46.78200000000652
312462.5027,33.668208518737806,25.544177785403487,17.474484276920606,10.455946161862121,46.78299999999581
312462.5037,31.688831489831006,22.526172665416247,15.646268091101295,4.244009442764468,46.7839999999851
312462.5047,28.325029420304805,18.77656430500562,12.809634560043284,-2.4118604776550656,46.78499999997439
312462.5057,23.745144768356425,14.449362532108381,9.115788680816566,-9.271355501014265,46.78599999996368
312462.5067,18.145867423288813,9.704295248083644,4.73532902884302,-16.100398026633787,46.787000000011176
312462.5077,11.73874130023096,4.695804488706482,-0.15430004991233687,-22.68445158967379,46.788000000000466
312462.5087,4.737336850131793,-0.43670761662971,-5.380568806818518,-28.839982596873345,46.788999999989755
312462.5097,-2.6539239642922636,-5.5765660355884865,-10.785862746919447,-34.42318673163443,46.789999999979045
312462.5107,-10.248493492114452,-10.634819980802266,-16.234939655376404,-39.335324662420696,46.790999999968335
312462.5117,-17.883436715322055,-15.552178779469275,-21.619319059792392,-43.524303364500696,46.791999999957625
312462.5127,-25.421945887754074,-20.297801931041377,-26.858386711131793,-46.98246525419819,46.79300000000512
312462.5137,-32.7527121489269,-24.865153348549335,-31.89732007641163,-49.740877538770135,46.79399999999441
312462.5147,-39.786536155121574,-29.265404389660798,-36.70224990762366,-51.860718205632246,46.7949999999837
312462.5157,-46.45081729716989,-33.51909911454617,-41.25333795589491,-53.422604775659174,46.79599999997299
312462.5167,-52.68275083258285,-37.646956787007134,-45.5366465366034,-54.514884270582904,46.79699999996228
312462.5177,-58.422167081172674,-41.66076592038122,-49.535783487965105,-55.22198201635033,46.79800000000978
312462.5187,-63.60495783800376,-45.555313928430486,-53.2243162643844,-55.61388588940648,46.79899999999907
312462.5197,-68.1579524682627,-49.3021978583323,-56.55986107728461,-55.737723728900924,46.79999999998836
312462.5207,-71.99593873977847,-52.84618415820136,-59.480576128522344,-55.61218626496398,46.80099999997765
312462.5217,-75.02128817545135,-56.10454562106761,-61.9045394814397,-55.22527536349445,46.80199999996694
312462.5227,-77.12636563462871,-58.9695238574334,-63.73219607811843,-54.53554305950201,46.80299999995623
312462.5237,-78.19860503520412,-61.31377174978891,-64.85174330642974,-53.476659851440104,46.804000000003725
312462.5247,-78.12784617161834,-62.99834939340812,-65.14702050323031,-51.96484118786413,46.804999999993015
312462.5257,-76.81527889796995,-63.882604818393595,-64.50720388797198,-49.908397388264554,46.805999999982305
312462.5267,-74.18315432122388,-63.835089508949615,-62.83740988777972,-47.2184784671359,46.806999999971595
312462.5277,-70.1843160646199,-62.7445549700314,-60.06919573988254,-43.819979011912466,46.807999999960884
312462.5287,-64.81058862105186,-60.530059801092726,-56.169927832296516,-39.661558799784736,46.80900000000838
312462.5297,-58.09913636093415,-57.14928838539091,-51.15006770131142,-34.72382261206594,46.80999999999767
312462.5307,-50.13606923902349,-52.604335703361336,-45.067595988020074,-29.024879049718983,46.81099999998696
312462.5317,-41.05680489621066,-46.94443369015527,-38.029040445674234,-22.622746152692635,46.81199999997625
312462.5327,-31.042980138419363,-40.26536249812994,-30.186872633036323,-15.614367700747097,46.81299999996554
312462.5337,-20.316011374678578,-32.70558017413961,-21.733361552223478,-8.13132021207573,46.81400000001304
312462.5347,-9.127704863393014,-24.4393897825416,-12.891291088963927,-0.332597064805603,46.81500000000233
312462.5357,2.2514147273157095,-15.667717566907768,-3.9022319843358635,7.604875905414069,46.81599999999162
312462.5367,13.54518012208086,-6.607275999677744,4.986718295717658,15.497134517909064,46.81699999998091
312462.5377,24.485254079785946,2.5209866430669905,13.536673826023032,23.164499127778047,46.8179999999702
312462.5387,34.823952190197545,11.503204491397229,21.53007721853419,30.44231651121071,46.81899999995949
312462.5397,44.34542488333428,20.14277737991838,28.782149871038907,37.190177541470234,46.820000000006985
312462.5407,52.87435325364416,28.2686416404042,35.14977814517856,43.298822356989106,46.820999999996275
312462.5417,60.28153505421185,35.74104530504669,40.53716655037073,48.69417262595664,46.821999999985565
312462.5427,66.48601437586902,42.454489346648586,44.897876152786594,53.338209155206776,46.822999999974854
312462.5437,71.45371507411019,48.33776765077371,48.23318535896653,57.2267155175722,46.823999999964144
312462.5447,75.19284521115239,53.351309701656916,50.58703112522503,60.384205519976334,46.82500000001164
312462.5457,77.74661895948535,57.482275575255905,52.03808170483406,62.85661583954373,46.82600000000093
312462.5467,79.18406768565772,60.738049631401026,52.689730314895655,64.702550067315,46.82699999999022
312462.5477,79.58986268376474,63.138909119191425,52.65896106032025,65.98398755796373,46.82799999997951
312462.5487,79.05413484980394,64.71069527951836,52.06511001987691,66.75740831825222,46.8289999999688
312462.5497,77.66324651578383,65.47828370168936,51.019520243692476,67.06623075548384,46.82999999995809
312462.5507,75.49235158932886,65.46054193787276,49.61697337016022,66.93531840127015,46.83100000000559
312462.5517,72.60038438566403,64.66728748600518,47.92958519648038,66.3680989205235,46.83199999999488
312462.5527,69.02786459120907,63.098536298654714,46.00359780325044,65.34657483320743,46.83299999998417
312462.5537,64.79762041897901,60.746083511887754,43.85921212195478,63.83421620296114,46.83399999997346
312462.5547,59.91824180801591,57.59720889179275,41.49331041582639,61.78143911980875,46.83499999996275
312462.5557,54.389808253908654,53.64007413043358,38.88464639359957,59.13311769601472,46.836000000010245
312462.5567,48.211216799289495,48.87019953588439,36.00085729563102,55.83737595232871,46.836999999999534
312462.5577,41.38828520124763,43.29729106001716,32.806497828184966,51.8547783756105,46.837999999988824
312462.5587,33.9417368199428,36.95164581882291,29.27122370922515,47.16699579008689,46.838999999978114
312462.5597,25.91419275053589,29.889398734062596,25.377267929236314,41.784069870627214,46.839999999967404
312462.5607,17.37540004881057,22.19598048708054,21.12545201815511,35.74952990993641,46.84099999995669
312462.5617,8.425101383026409,13.987326336581694,16.53914583972906,29.14281610780605,46.84200000000419
312462.5627,-0.8068170039290415,5.408589320811706,11.665814027774012,22.07871483588952,46.84299999999348
312462.5637,-10.162998621641885,-3.3696513748137757,6.576041571496697,14.703788592927685,46.84399999998277
312462.5647,-19.463941264293663,-12.157458839033753,1.3601892426220465,7.190060069397125,46.84499999997206
312462.5657,-28.515552759559313,-20.753441288907986,-3.876934284567572,-0.27354032956281904,46.84599999996135
312462.5667,-37.11831141525402,-28.953876050188065,-9.022805721338878,-7.491254291119906,46.84700000000885
312462.5677,-45.07726050451677,-36.56232969197117,-13.964620150546745,-14.271261915352099,46.84799999999814
312462.5687,-52.21199708476771,-43.39900694840797,-18.5966649100514,-20.4362418290239,46.84899999998743
312462.5697,-58.36582678351746,-49.30909111308961,-22.82690104443125,-25.83286388068019,46.84999999997672
312462.5707,-63.41334539882266,-54.169437258407235,-26.5821189840911,-30.339463875140567,46.85099999996601
312462.5717,-67.26586531298301,-57.89313652516516,-29.811198205861384,-33.87132793649732,46.8519999999553
312462.5727,-69.87431348463375,-60.43166897723015,-32.486209276394035,-36.383241736125484,46.853000000002794
312462.5737,-71.22946710774804,-61.7745843454355,-34.601328973033006,-37.869214569838164,46.853999999992084
312462.5747,-71.35963917810325,-61.94687264134193,-36.16977105083786,-38.359545401474385,46.85499999998137
312462.5757,-70.32615509522842,-61.00438848060273,-37.21914283689395,-37.91563286626098,46.85599999997066
312462.5767,-68.21715091718742,-59.02785460735511,-37.78579991531915,-36.62312162499624,46.85699999995995
312462.5777,-65.14035593347987,-56.116076231010034,-37.90887112096813,-34.58410569091414,46.85800000000745
312462.5787,-61.2155846134939,-52.379038621150656,-37.62465360844359,-31.9091639369188,46.85899999999674
312462.5797,-56.567650522558424,-47.93153272733711,-36.962029988595106,-28.709979751098615,46.85999999998603
312462.5807,-51.320329799453305,-42.88786102921705,-35.939441204518715,-25.093199250936603,46.86099999997532
312462.5817,-45.591853896781664,-37.358028534961754,-34.563772008489984,-21.156021439233072,46.86199999996461
312462.5827,-39.49221651914476,-31.44563753574322,-32.83128879410348,-16.983806309651886,46.86300000001211
312462.5837,-33.1223588780748,-25.247499094305894,-30.730534697351086,-12.6497548914991,46.8640000000014
312462.5847,-26.575074061851883,-18.85477102640462,-28.246858997257053,-8.21648268370123,46.86499999999069
312462.5857,-19.93726936277789,-12.355252867187115,-25.368061235661617,-3.739098975012236,46.86599999997998
312462.5867,-13.293066541643794,-5.836332125540993,-22.090486556966344,0.730759179890827,46.866999999969266
312462.5877,-6.727121538420294,0.6120022843314389,-18.424833795518072,5.140591116803473,46.867999999958556
312462.5887,-0.327518075396257,6.894675483455415,-14.400941117481437,9.433076538149047,46.869000000006054
312462.5897,5.812362541238863,12.91011070415491,-10.07089683064425,13.543134297948502,46.86999999999534
312462.5907,11.593474755712373,18.55030267838809,-5.509978296991082,17.3965136148353,46.87099999998463
312462.5917,16.912547665119952,23.70263118734305,-0.8151350357422662,20.910259565457924,46.87199999997392
312462.5927,21.665414765798918,28.253462508134753,3.8990178289709867,23.99517888383953,46.87299999996321
312462.5937,25.752085151618232,32.09337114261324,8.506467688499766,26.560198689846512,46.87400000001071
312462.5947,29.083179449548336,35.12360909865541,12.877858881020293,28.5182840929462,46.875
312462.5957,31.58715821869992,37.2632767255446,16.88965127390339,29.793384296592762,46.87599999998929
312462.5967,33.2176282317198,38.45652625474573,20.43355599557834,30.327731445655992,46.87699999997858
312462.5977,33.95993938077685,38.679070461485004,23.425354425528887,30.088737517391593,46.87799999996787
312462.5987,33.836291512298494,37.94328172172917,25.81222600387651,29.074730986766365,46.87899999995716
312462.5997,32.908658135366395,36.3012517298116,27.57781624850231,27.318848324339665,46.88000000000466
312462.6007,31.27899648799304,33.845332784713186,28.74446017884929,24.890539606037812,46.880999999993946
312462.6017,29.086437189111074,30.70588493157726,29.372222066236816,21.89434968000362,46.881999999983236
312462.6027,26.50141166363315,27.04619117851857,29.554697757779554,18.465877774982904,46.882999999972526
312462.6037,23.716957250450225,23.054753716387076,29.41182428054908,14.765076507305526,46.883999999961816
312462.6047,20.93771175272297,18.93542418587695,29.08022485467256,10.967301470807516,46.88500000000931
312462.6057,18.367344876461,14.896027804125872,28.701858637549012,7.252740978622884,46.8859999999986
312462.6067,16.19535012432202,11.136294597940948,28.411919897230515,3.7950208498636977,46.88699999998789
312462.6077,14.584219056093803,7.835995821253415,28.32702320137155,0.7498750194403924,46.88799999997718
312462.6087,13.658029214637208,5.1441908163009735,28.534709634320475,-1.7552107247785798,46.88899999996647
312462.6097,13.493394475729033,3.1704172322878836,29.085212787884117,-3.629539857570709,46.88999999995576
312462.6107,14.113557750215481,1.9785111852434027,29.98624002967859,-4.825230844900828,46.89100000000326
312462.6117,15.48616466306621,1.583536138569792,31.201270340682836,-5.340232898666961,46.89199999999255
312462.6127,17.524963828467992,1.9520483518033103,32.65156764706367,-5.218087937850818,46.89299999998184
312462.6137,20.095360463483434,3.0056551690696853,34.22178554258804,-4.544467697639588,46.89399999997113
312462.6147,23.023433828332365,4.627554712241878,35.76872518206365,-3.4407844151924505,46.89499999996042
312462.6157,26.107743836549222,6.671505934417115,37.13253178287361,-2.0554147499041004,46.896000000007916
312462.6167,29.133023932813256,8.972488112606849,38.14940200672506,-0.5532672930997133,46.896999999997206
312462.6177,31.884706621506673,11.358185683497421,38.66474404085366,0.8954531981850918,46.897999999986496
312462.6187,34.1631683291226,13.660388516250581,38.545696251158745,2.1263876263443064,46.898999999975786
312462.6197,35.79661662174484,15.725432595721362,37.69197176266418,2.991210938002991,46.899999999965075
312462.6207,36.65167124442739,17.422917330220116,36.04414901443227,3.3661222088762144,46.90100000001257
312462.6217,36.64089851132689,18.652111772297467,33.588757493272595,3.158070784518043,46.90200000000186
312462.6227,35.72682645136002,19.345685399718814,30.35979167169317,2.308378097117027,46.90299999999115
312462.6237,33.92227066627378,19.4706479569543,26.43659795950019,0.7936633115395311,46.90399999998044
312462.6247,31.287110102911203,19.026633364375776,21.938390250934688,-1.3757719224516276,46.90499999996973
312462.6257,27.92193978230455,18.04189133125156,17.015930977463327,-4.159722675356289,46.90599999995902
312462.6267,23.9592684410983,16.56753611716907,11.841141279732327,-7.493471789143659,46.90700000000652
312462.6277,19.553102444998984,14.670728492420336,6.595556398703644,-11.294127909008646,46.90799999999581
312462.6287,14.867849425050887,12.427524006491694,1.4586083964099543,-15.467204659068859,46.9089999999851
312462.6297,10.067479978292859,9.9161047384712,-3.4033060704567006,-19.912767926342234,46.90999999997439
312462.6307,5.305805862038842,7.211026410223284,-7.846125374374085,-24.530579350039734,46.91099999996368
312462.6317,0.7185786628167131,4.37896832616085,-11.755125811837742,-29.223821377031964,46.912000000011176
312462.6327,-3.582099063204733,1.4762857996396643,-15.049201189012472,-33.901184989359976,46.913000000000466
312462.6337,-7.510805708966453,-1.4515468127590687,-17.6822603913413,-38.47731415283861,46.913999999989755
312462.6347,-11.009289383544637,-4.368727987372595,-19.64185628905902,-42.871808404936694,46.914999999979045
312462.6357,-14.044671075296874,-7.246475557646356,-20.945409590016045,-47.00716480156719,46.915999999968335
312462.6367,-16.605825775916887,-10.059403080498782,-21.634596335025478,-50.80617363970895,46.916999999957625
312462.6377,-18.698554342695893,-12.781502615415985,-21.76860904722587,-54.18935477206186,46.91800000000512
312462.6387,-20.340238176378293,-15.382347950038968,-21.417066993272112,-57.07302499517161,46.91899999999441
312462.6397,-21.554672223337796,-17.824102444105037,-20.653336060170876,-59.368521055722624,46.9199999999837
312462.6407,-22.367701076422563,-20.05982181282019,-19.548926803096432,-60.98297360616856,46.92099999997299
312462.6417,-22.8041471786929,-22.033394096669213,-18.169481229856626,-61.82184788958921,46.92199999996228
312462.6427,-22.88633492816577,-23.681272019511454,-16.57265224671475,-61.79325535962259,46.92300000000978
312462.6437,-22.634300311291884,-24.935946172176948,-14.807946487572512,-60.81381874799721,46.92399999999907
312462.6447,-22.067555813020217,-25.73090232889981,-12.918366068401587,-58.81566460111643,46.92499999998836
312462.6457,-21.20807842509343,-26.00662404029099,-10.943472267485147,-55.75394441579295,46.92599999997765
312462.6467,-20.08402625369227,-25.717061615001516,-8.923326400625655,-51.614167407861785,46.92699999996694
312462.6477,-18.733583939899464,-24.835905760653148,-6.902657725871865,-46.41857865868966,46.92799999995623
312462.6487,-17.208300275865245,-23.361987910937213,-4.934576106339774,-40.23084325516686,46.929000000003725
312462.6497,-15.575317286451703,-21.32318239406964,-3.0831918384775165,-33.15839993341322,46.929999999993015
312462.6507,-13.917995318230673,-18.77830391175253,-1.424622039376982,-25.352018941957116,46.930999999982305
312462.6517,-12.334602750094582,-15.816666513971262,-0.04604030842208657,-17.002323716403026,46.931999999971595
312462.6527,-10.934945044189444,-12.55518101064943,0.9573542422715998,-8.333294267513484,46.932999999960884
312462.6537,-9.835034730361947,-9.133096190752761,1.4873338200386386,0.40696202119459446,46.93400000000838
312462.6547,-9.15012794980331,-5.704712941008114,1.4492568779184518,8.957634607016177,46.93499999999767
312462.6557,-8.986650802808066,-2.4305971819077286,0.7597506997833231,17.05807986071008,46.93599999998696
312462.6567,-9.433688826856029,0.5320323043147764,-0.6452392886097629,24.461237596989744,46.93699999997625
312462.6577,-10.554798979675487,3.038976932259246,-2.8028159964761463,30.946621251187896,46.93799999996554
312462.6587,-12.380915390317158,4.968011209859788,-5.716698234720245,36.33192071572095,46.93900000001304
312462.6597,-14.905055216515345,6.226391179081652,-9.352696778774938,40.48235423600599,46.94000000000233
312462.6607,-18.079394377405315,6.756319352015106,-13.636654157099121,43.31708079578334,46.94099999999162
312462.6617,-21.815087244521635,6.537948832156759,-18.455191085071146,44.81222159501063,46.94199999998091
312462.6627,-25.984968219940505,5.589729818699715,-23.6593505450355,45.00031689128067,46.9429999999702
312462.6637,-30.42901939104533,3.966139306520327,-29.070963824475147,43.966336929201034,46.94399999995949
312462.6647,-34.96224190475867,1.7530661309621645,-34.49130798085932,41.84064567718069,46.945000000006985
312462.6657,-39.38435348916176,-0.9386741405444999,-39.71140684707395,38.78955754827557,46.945999999996275
312462.6667,-43.49057171133375,-3.981066295029279,-44.52316984019514,35.00430787542693,46.946999999985565
312462.6677,-47.08264793143269,-7.237146056911219,-48.730480596645094,30.689361273277218,46.947999999974854
312462.6687,-49.97929956266043,-10.569036956253507,-52.15934937326938,26.05099932889904,46.948999999964144
312462.6697,-52.02524962736739,-13.845090074879375,-54.66632934343729,21.287059871977895,46.95000000001164
312462.6707,-53.09821647474369,-16.94556326927528,-56.144559075663665,16.57855228022728,46.95100000000093
312462.6717,-53.11338965876622,-19.766449772162638,-56.52701574848176,12.08366228123018,46.95199999999022
312462.6727,-52.02516149211299,-22.221274551597894,-55.786824230713165,7.934406854239099,46.95299999997951
312462.6737,-49.82613506690399,-24.240898978743417,-53.93474050222886,4.235930256307471,46.9539999999688
312462.6747,-46.5436744059948,-25.771587554304688,-51.01418727567096,1.0681723718410652,46.95499999995809
312462.6757,-42.234477515541684,-26.771773065274036,-47.09443982218673,-1.5105842489463597,46.95600000000559
312462.6767,-36.977818111309176,-27.208090174174004,-42.26271954782354,-3.458950565679359,46.95699999999488
312462.6777,-30.86820129285464,-27.051318652424108,-36.616036458202046,-4.747208190723493,46.95799999998417
312462.6787,-24.008203431815563,-26.27287910790622,-30.253621416888922,-5.3524000465063635,46.95899999997346
312462.6797,-16.502215231263243,-24.842455934038544,-23.270705406122598,-5.254440196687407,46.95999999996275
312462.6807,-8.451684876403158,-22.727191093839004,-15.75424436649717,-4.433807351915275,46.961000000010245
312462.6817,0.047722178704255186,-19.892711302294316,-7.780970468623498,-2.871185817747316,46.961999999999534
312462.6827,8.90685095550635,-16.306038238202586,0.5821045560500192,-0.5491778736827823,46.962999999988824
312462.6837,18.041715561146358,-11.940207889989845,9.274875915464753,2.5440429039653094,46.963999999978114
312462.6847,27.370365971942636,-6.780213466363694,18.239417420697198,6.4095112459117685,46.964999999967404
312462.6857,36.80844592909072,-0.8297079137378219,27.41394805033019,11.031264153667502,46.96599999995669
312462.6867,46.26408175826077,5.882224674725011,36.72625736487183,16.369881125841495,46.96700000000419
312462.6877,55.63283431201454,13.294981101918466,46.087432411195785,22.35658015862734,46.96799999999348
312462.6887,64.79346461230658,21.311776056658143,55.386723866119006,28.88867503599844,46.96899999998277
312462.6897,73.6052057384815,29.797061735783917,64.48830064821466,35.82711294375007,46.96999999997206
312462.6907,81.90710402026214,38.57653745268962,73.23047801828515,42.99664955072496,46.97099999996135
312462.6917,89.5198034955743,47.440052510281234,81.42777943840606,50.18899576525924,46.97200000000885
312462.6927,96.24991646736962,56.14746571729925,88.87592805851853,57.16900668953685,46.97299999999814
312462.6937,101.89687148933263,64.43727060396661,95.35958428700043,63.6837031638541,46.97399999998743
312462.6947,106.2618818665443,72.03754953348265,100.66237752806737,69.47364574111205,46.97499999997672
312462.6957,109.15845616428393,78.6786047732227,104.57854785217619,74.28594526526142,46.97599999996601
312462.6967,110.42369822721608,84.10644978751704,106.9253387742309,77.88801568374201,46.9769999999553
312462.6977,109.92953440049067,88.09624471704107,107.55518179421722,80.08107043044919,46.978000000002794
312462.6987,107.59297071587241,90.46473561212743,106.36669647385008,80.71234413634129,46.978999999992084
312462.6997,103.38452663478292,91.08081027799594,103.31359854892163,79.68508942439243,46.97999999998137
312462.7007,97.33411124218426,89.87341051366047,98.41075714322184,76.96554913821141,46.98099999997066
312462.7017,89.53379242013355,86.83623053649391,91.7368575997104,72.58632514125269,46.98199999995995
312462.7027,80.1371434044572,82.0288683559829,83.43338980220815,66.6458370797668,46.98300000000745
312462.7037,69.35511362907403,75.57436049026494,73.6999698269661,59.30386481057332,46.98399999999674
312462.7047,57.44863860788118,67.65329801025763,62.7862898029749,50.77347050930677,46.98499999998603
312462.7057,44.71845296653286,58.49497038336219,50.98125151474819,41.309874445531385,46.98599999997532
312462.7067,31.492779460601174,48.36619164038851,38.60005051407313,31.19708777186033,46.98699999996461
312462.7077,18.113716526414706,37.55861339407039,25.97012086279797,20.733266486374564,46.98800000001211
312462.7087,4.923224796518101,26.375408979209066,13.416914001995947,10.21582926176308,46.9890000000014
312462.7097,-7.7503868962949625,15.118216827525892,1.2504640635533286,-0.0726281044705727,46.98999999999069
312462.7107,-19.604651721913438,4.075160636638242,-10.246410363114903,-9.87668531720151,46.99099999997998
312462.7117,-30.373130690753776,-6.489372566148006,-20.827590320909746,-18.97795400456448,46.991999999969266
312462.7127,-39.83310957013238,-16.342703100931278,-30.29037340724077,-27.201907244945136,46.992999999958556
312462.7137,-47.810550516677246,-25.289304423604726,-38.47922501586805,-34.42142131586495,46.994000000006054
312462.7147,-54.182279524118904,-33.17368016335611,-45.28662470460057,-40.55705023151695,46.99499999999534
312462.7157,-58.87561416878515,-39.8808459395807,-50.65130756130128,-45.57432050412309,46.99599999998463
312462.7167,-61.86582407196277,-45.33477394271972,-54.55439670417472,-49.47856153242743,46.99699999997392
312462.7177,-63.171951804783,-49.49529314481998,-57.01405874128686,-52.30795606507342,46.99799999996321
312462.7187,-62.851593389295445,-52.35401226771818,-58.07937790410786,-54.12559151209922,46.99900000001071
312462.7197,-60.99524089848933,-53.92984187878722,-57.82413306775559,-55.011310202955066,47.0
312462.7207,-57.72072812405295,-54.264638791917974,-56.34107930122362,-55.054096751565424,47.00099999998929
312462.7217,-53.16820400202418,-53.41938948743414,-53.737193651708175,-54.34561291717439,47.00199999997858
312462.7227,-47.49590333659999,-51.47120415339192,-50.13016130816318,-52.975310744104995,47.00299999996787
312462.7237,-40.87681012074592,-48.511227582030166,-45.646174953527584,-51.02734410218762,47.00399999995716
312462.7247,-33.49613685701987,-44.64340759488749,-40.41892054761516,-48.57928031848061,47.00500000000466
312462.7257,-25.5493944159468,-39.98391541169595,-34.589449663837094,-45.70241068420461,47.005999999993946
312462.7267,-17.240718751558717,-34.660902187768315,-28.306511187810596,-42.46329208397437,47.006999999983236
312462.7277,-8.781065838690623,-28.81421404295503,-21.726847621622802,-38.926038077103364,47.007999999972526
312462.7287,-0.3858907569451544,-22.594680689161926,-15.01496049099839,-35.15482651011105,47.008999999961816
312462.7297,7.728009812526256,-16.16264020483703,-8.34191491091447,-31.216105099745352,47.01000000000931
312462.7307,15.346697846502009,-9.685458282435032,-1.8828772792206312,-27.18005212593491,47.0109999999986
312462.7317,22.26439083966082,-3.333932604211865,4.186752090268565,-23.120975593880182,47.01199999998789
312462.7327,28.289736848084015,2.722373951827324,9.696557074137512,-19.116494939571695,47.01299999997718
312462.7337,33.25277730112974,8.320671878012908,14.487425044306255,-15.245525189708017,47.01399999996647
312462.7347,37.0121558113631,13.311015925540385,18.418542177736242,-11.585253871354457,47.01499999995576
312462.7357,39.46201889227228,17.562461003439058,21.37450372669838,-8.207446334174458,47.01600000000326
312462.7367,40.5379956889353,20.968793160353044,23.271898249256814,-5.174518988133549,47.01699999999255
312462.7377,40.22164760661348,23.453316584954152,24.064711043825945,-2.535870498642631,47.01799999998184
312462.7387,38.54284780012642,24.972224491075426,23.74794796199128,-0.32495235074343143,47.01899999997113
312462.7397,35.57968090626567,25.51618145398067,22.359002711141695,1.4425070152661092,47.01999999996042
312462.7407,31.455634865787772,25.109888397663774,19.976468220632036,2.7688291335695756,47.021000000007916
312462.7417,26.334073488202367,23.809575503355752,16.716309366479667,3.6731260416897373,47.021999999997206
312462.7427,20.410210898628005,21.698555983055694,12.725549850839744,4.188496991521483,47.022999999986496
312462.7437,13.901035367771406,18.881156400986903,8.173857586160022,4.357906605040032,47.023999999975786
312462.7447,7.033828346830806,15.4754985761703,3.243617736373106,4.229134883255802,47.024999999965075
312462.7457,0.03407483305502139,11.605727470614436,-1.8807600826343303,3.849318331184592,47.02600000001257
312462.7467,-6.886352653733767,7.394345749818932,-7.023460653784418,3.259678596454119,47.02700000000186
312462.7477,-13.539842898547368,2.9553205790519526,-12.026949938187842,2.491049966523094,47.02799999999115
312462.7487,-19.771701710065535,-1.611430932111101,-16.759932327802186,1.560765500562379,47.02899999998044
312462.7497,-25.466132233307025,-6.223690925381871,-21.122917257374677,0.471345914625748,47.02999999996973
312462.7507,-30.549066945186432,-10.818408726067085,-25.050935505429628,-0.7887352405580178,47.03099999995902
312462.7517,-34.98763694352995,-15.350878804060248,-28.513195033688955,-2.242146841382549,47.03200000000652
312462.7527,-38.78634998085647,-19.791744847432692,-31.509741738551174,-3.917822597318801,47.03299999999581
312462.7537,-41.98033668537445,-24.122167205844374,-34.06546683100194,-5.844504058032855,47.0339999999851
312462.7547,-44.62628825671735,-28.327686830188647,-36.22205371480973,-8.043297569537806,47.03499999997439
312462.7557,-46.79192363238908,-32.391469332198184,-38.028658819497956,-10.519989570618115,47.03599999996368
312462.7567,-48.54496842121816,-36.28770148180192,-39.53225249323944,-13.257948791043654,47.037000000011176
312462.7577,-49.94268639091763,-39.975928296827924,-40.76859346889438,-16.21244913232883,47.038000000000466
312462.7587,-51.02296910952665,-43.39705745757789,-41.754766883713636,-19.307168600110074,47.038999999989755
312462.7597,-51.79786113005049,-46.471622013294265,-42.484083103127446,-22.433461080171,47.039999999979045
312462.7607,-52.25018625170651,-49.10069244160221,-42.92392291002978,-25.452770569561846,47.040999999968335
312462.7617,-52.333662355074345,-51.169581827606876,-43.0168419477318,-28.202280490556504,47.041999999957625
312462.7627,-51.97657221406476,-52.554215153602655,-42.684937844094925,-30.503588369571695,47.04300000000512
312462.7637,-51.08872420335266,-53.129760563107574,-41.837165471900626,-32.173896339919764,47.04399999999441
312462.7647,-49.57112055604957,-52.78087303438611,-40.37898908497971,-33.03893935511052,47.0449999999837
312462.7657,-47.32748147487827,-51.4127036754782,-38.223513078446956,-32.94666249328362,47.04599999997299
312462.7667,-44.27657689065689,-48.96170140329523,-35.303060280230596,-31.780528539989334,47.04699999996228
312462.7677,-40.36421361369157,-45.40519263068326,-31.58008595434284,-29.47130254619445,47.04800000000978
312462.7687,-35.57372535119616,-40.76877568625051,-27.056336733479352,-26.006228117748602,47.04899999999907
312462.7697,-29.933918346439096,-35.13070846266173,-21.77928674241815,-21.43467820238809,47.04999999998836
312462.7707,-23.52362814880171,-28.622690070194846,-15.845098856455294,-15.869619049445351,47.05099999997765
312462.7717,-16.472325925782908,-21.426722055615333,-9.397649106308494,-9.484549238115168,47.05199999996694
312462.7727,-8.956550752879904,-13.768057705448548,-2.6234911530388487,-2.5059388492521006,47.05299999995623
312462.7737,-1.1923070471371717,-5.904580631609114,4.257004972208467,4.7984346546910155,47.054000000003725
312462.7747,6.576079200051835,1.886733703880007,11.001762613711314,12.134510481716038,47.054999999993015
312462.7757,14.08983781752899,9.325356210008083,17.36148220123119,19.199294278669996,47.055999999982305
312462.7767,21.091313177740258,16.14363442734116,23.09540045257801,25.69929098734888,47.056999999971595
312462.7777,27.339998586319027,22.102907970543136,27.98709681798691,31.368671408374865,47.057999999960884
312462.7787,32.62779228794163,27.008104107911187,31.859095480501214,35.98582809399902,47.05900000000838
312462.7797,36.79228143980334,30.719711732181317,34.585096472049344,39.38709294856393,47.05999999999767
312462.7807,39.727023326096834,33.16222803643404,36.09885570419108,41.47660736474857,47.06099999998696
312462.7817,41.38804289508491,34.32844390510734,36.39900401685065,42.23163671485556,47.06199999997625
312462.7827,41.79607900950034,34.279257498615664,35.549425212982264,41.70297815319888,47.06299999996554
312462.7837,41.034459814042755,33.13905243127745,33.67517276539176,40.010492827837865,47.06400000001304
312462.7847,39.242838944042546,31.087017217971898,30.954262384812903,37.33416777311489,47.06500000000233
312462.7857,36.607347926176196,28.345087217380797,27.60600151516421,33.90144718171122,47.06599999999162
312462.7867,33.34798833137749,25.16343372009422,23.87677922753097,29.971839720295105,47.06699999998091
312462.7877,29.704278075642886,21.804587628371447,20.02441915603042,25.81998683361059,47.0679999999702
312462.7887,25.9202654139127,18.527355429079368,16.30228027120516,21.718453634899095,47.06899999995949
312462.7897,22.23002606953446,15.571659428755517,12.944270720478576,17.92147533392065,47.070000000006985
312462.7907,18.84466701692256,13.145317640723734,10.151823300042158,14.65076393099056,47.070999999996275
312462.7917,15.94168651367291,11.413584326070023,8.083680652320812,12.084266488287874,47.071999999985565
312462.7927,13.657302913441697,10.492019527798512,6.849074532382885,10.348489203921115,47.072999999974854
312462.7937,12.082088475980209,10.442969068789782,6.504582119093476,9.514687289166874,47.073999999964144
312462.7947,11.259955361336495,11.275641678015697,7.0546316379279626,9.59889826045517,47.07500000001164
312462.7957,11.190265856931845,12.949493160776665,8.455337685520849,10.565494397965022,47.07600000000093
312462.7967,11.83260182007105,15.38039217955528,10.62109903684171,12.33367456247301,47.07699999999022
312462.7977,13.11354889953554,18.448866890166908,13.4332087667498,14.786126847117126,47.07799999997951
312462.7987,14.934742626039393,22.009628738735667,16.749621815457107,17.778985239771707,47.0789999999688
312462.7997,17.181391932219825,25.901544328297057,20.415004387533116,21.152181127250124,47.07999999995809
312462.8007,19.73053948224109,29.957276149550157,24.270250350709684,24.739351335473298,47.08100000000559
312462.8017,22.45842859387688,34.01192893228341,28.160781976216693,28.376597952071343,47.08199999999488
312462.8027,25.246508676493423,37.9102053648616,31.943139346159157,31.909584373641636,47.08299999998417
312462.8037,27.9858056911978,41.51177367792418,35.48958326047379,35.19867511163202,47.08399999997346
312462.8047,30.57958943050418,44.69475857261264,38.69066670842318,38.12205966112825,47.08499999996275
312462.8057,32.944463444409976,47.35746456160675,41.455945996649085,40.57701892295087,47.086000000010245
312462.8067,35.010166193538076,49.418607359385035,43.713182743067435,42.479674355378606,47.086999999999534
312462.8077,36.71848740631179,50.81644878836605,45.406514795942826,43.763687784359426,47.087999999988824
312462.8087,38.021761081301314,51.50729344666937,46.4941363911425,44.37844234661663,47.088999999978114
312462.8097,38.881392055200266,51.46380715618547,46.94602129171251,44.28722831604917,47.089999999967404
312462.8107,39.266809368113044,50.673560687965775,46.74215049440857,43.46588503629422,47.09099999995669
312462.8117,39.155126123600255,49.13809644919606,45.87157861844072,41.902222392260114,47.09200000000419
312462.8127,38.531636944954194,46.87267498344857,44.332506503759205,39.59637863449777,47.09299999999348
312462.8137,37.39111909328501,43.906700249921656,42.13334218637674,36.56208645729326,47.09399999998277
312462.8147,35.73974226259299,40.28466740968033,39.29455059621195,32.82863844410597,47.09499999997206
312462.8157,33.59725499758053,36.06734355079429,35.850935909752835,28.44318822562874,47.09599999996135
312462.8167,30.999019960694874,31.332797211605747,31.853888557829094,23.472913956646835,47.09700000000885
312462.8177,27.997428723475334,26.176849142731697,27.373075641739344,18.006520080063588,47.09799999999814
312462.8187,24.66224619294166,20.71253118270938,22.497066722640213,12.154569404185395,47.09899999998743
312462.8197,21.07951521552028,15.068212604509336,17.332467075139167,6.048220527607378,47.09999999997672
312462.8207,17.348786440701193,9.384177432466545,12.001270553855194,-0.16391157087559458,47.10099999996601
312462.8217,13.578614039171608,3.8075996847782254,6.636330452371106,-6.320865317776098,47.1019999999553
312462.8227,9.880456295159767,-1.5139507762260762,1.3750599798006287,-12.256290997672213,47.103000000002794
312462.8237,6.361320300441681,-6.4401510715434185,-3.648308361465777,-17.806916926831025,47.103999999992084
312462.8247,3.115669966444533,-10.846226557629382,-8.311376858368565,-22.82198281616564,47.10499999998137
312462.8257,0.2172557779028589,-14.631288644069718,-12.51246579857038,-27.17294206581797,47.10599999997066
312462.8267,-2.2883938065918246,-17.726009658034872,-16.17894509223504,-30.762637304304164,47.10699999995995
312462.8277,-4.390067141596959,-20.09892239171992,-19.274210438135192,-33.53312906418927,47.10800000000745
312462.8287,-6.114859932815734,-21.760688460655686,-21.802556049188002,-35.47141167595206,47.10899999999674
312462.8297,-7.52950423964204,-22.76580304789638,-23.81132879232899,-36.61238108888,47.10999999998603
312462.8307,-8.738673454179748,-23.211384866987874,-25.38994854001826,-37.038616561675596,47.11099999997532
312462.8317,-9.880141092315652,-23.232924158680998,-26.665629793283145,-36.87678540637503,47.11199999996461
312462.8327,-11.116936101312003,-22.99710863243204,-27.795918071853837,-36.290755417925354,47.11300000001211
312462.8337,-12.626902947182765,-22.692095211928788,-28.958435771971033,-35.47177836926751,47.1140000000014
312462.8347,-14.590316535658701,-22.515821466986278,-30.338489951135116,-34.62636437778016,47.11499999999069
312462.8357,-17.176397318137138,-22.66313360662507,-32.11540431902384,-33.96267718722809,47.11599999997998
312462.8367,-20.529701916738336,-23.31263045683834,-34.44857919877304,-33.67642463341707,47.116999999969266
312462.8377,-24.75741614347762,-24.614172889212057,-37.4643420492438,-33.93728286805908,47.117999999958556
312462.8387,-29.918544202958923,-26.677980132642023,-41.24462044659166,-34.876870627585454,47.119000000006054
312462.8397,-36.01587150619701,-29.566129733591733,-45.81835049253886,-36.579182113481984,47.11999999999534
312462.8407,-42.99138766330899,-33.28710495356654,-51.15633577457908,-39.07420277033127,47.12099999998463
312462.8417,-50.72560628423333,-37.7938065378177,-57.17001177790349,-42.33518714881264,47.12199999997392
312462.8427,-59.040929874198746,-42.985184272439604,-63.71427025402125,-46.279793268557846,47.12299999996321
312462.8437,-67.70890544146415,-48.71136981420513,-70.59418334887334,-50.774968049929534,47.12400000001071
312462.8447,-76.46092476798954,-54.781929189110684,-77.57516542476495,-55.6451892713778,47.125
312462.8457,-85.00166695814123,-60.97662329288521,-84.39584741676921,-60.6834158051063,47.12599999998929
312462.8467,-93.02438105346705,-67.05788681234444,-90.78273662834445,-65.6639009164961,47.12699999997858
312462.8477,-100.22697934964626,-72.78412459819545,-96.4656108987795,-70.3558992734348,47.12799999996787
312462.8487,-106.32786733074322,-77.9228880475122,-101.1925598022829,-74.53725646010548,47.12899999995716
312462.8497,-111.08047637356289,-82.26303420881926,-104.74363879788838,-78.00691227721873,47.13000000000466
312462.8507,-114.28558570906364,-85.62508205727794,-106.94223887401138,-80.59547048640113,47.130999999993946
312462.8517,-115.800708814039,-87.86915242986005,-107.66348069841956,-82.17317555924689,47.131999999983236
312462.8527,-115.54605894747306,-88.90009405822276,-106.83919903402051,-82.65487336505979,47.132999999972526
312462.8537,-113.50687733786275,-88.66963800811537,-104.45936648486092,-82.00179554497085,47.133999999961816
312462.8547,-109.7321818661099,-87.17566492743194,-100.57008983394003,-80.22027263105764,47.13500000000931
312462.8557,-104.33025034832959,-84.45889239744452,-95.26857212194443,-77.35772513166927,47.1359999999986
