TimeStamp,ECR,FCR,ECU,FCU,time_index
312431.7197,-24.928976567463923,-8.862746619702357,-67.61163205202142,-31.665635155419235,16.0
312431.7207,-25.89700365180867,-9.426310042627739,-69.63658203329524,-32.701624392787956,16.00099999998929
312431.7217,-26.801597642673993,-10.063089643186489,-71.37801906300464,-33.58604803090612,16.00199999997858
312431.7227,-27.81507565028419,-10.852423425938264,-72.84580224816331,-34.39615269431999,16.00299999996787
312431.7237,-29.120306614141764,-11.883865805686625,-74.05539102727876,-35.21947161419224,16.00399999995716
312431.7247,-30.897830843250958,-13.250551165842396,-75.0246785164119,-36.147020230421816,16.005000000004657
312431.7257,-33.31194210969833,-15.041221430988228,-75.77004002005006,-37.26539080748288,16.005999999993946
312431.7267,-36.49672059693445,-17.33152100102398,-76.30199531931032,-38.64833491834151,16.006999999983236
312431.7277,-40.54307438286426,-20.175281810142916,-76.62096651859805,-40.34852495075573,16.007999999972526
312431.7287,-45.487831391588955,-23.596578642375214,-76.71364790997998,-42.390228929244316,16.008999999961816
312431.7297,-51.30582101920235,-27.58332179333449,-76.55048448641162,-44.7636094894074,16.010000000009313
312431.7307,-57.905700781728,-32.08306892446843,-76.08468096943336,-47.42126664697694,16.010999999998603
312431.7317,-65.13003146383146,-37.00158561124243,-75.25303882464914,-50.27749048598973,16.011999999987893
312431.7327,-72.75980364081629,-42.20447628660598,-73.97875534262157,-53.2104856444942,16.012999999977183
312431.7337,-80.5232928867736,-47.52196124523681,-72.17613142751398,-56.067591303501075,16.013999999966472
312431.7347,-88.10879671444285,-52.75661237948244,-69.75694114222897,-58.67326880565406,16.014999999955762
312431.7357,-95.18050976710207,-57.693603777544176,-66.6380353679206,-60.83938642269341,16.01600000000326
312431.7367,-101.3965493757493,-62.1128066215539,-62.749602502235874,-62.3771193273756,16.01699999999255
312431.7377,-106.42797150802146,-65.8018821582521,-58.04340674476436,-63.10962239408052,16.01799999998184
312431.7387,-109.97753165534982,-68.56941881908077,-52.50028082376803,-62.88453975874788,16.01899999997113
312431.7397,-111.79695347315683,-70.25713087616242,-46.1361712263356,-61.58539809879937,16.01999999996042
312431.7407,-111.70156939225085,-70.75019033063239,-39.006120223424944,-59.14099358430546,16.021000000007916
312431.7417,-109.58138365566921,-69.98489750505395,-31.20571415117193,-55.53202147568591,16.021999999997206
312431.7427,-105.4078640473783,-67.95309820889942,-22.869719755093268,-50.79440155550435,16.022999999986496
312431.7437,-99.23607309526507,-64.70300913764513,-14.167853545791875,-45.01900511404823,16.023999999975786
312431.7447,-91.20207808737662,-60.33639628853526,-5.297863578136187,-38.34776863922514,16.024999999965075
312431.7457,-81.51590553076065,-55.002338763607185,3.5236719102845417,-30.96646163535163,16.026000000012573
312431.7467,-70.45060403617032,-48.88807704108232,12.072229094688641,-23.094636617054892,16.027000000001863
312431.7477,-58.328227199906074,-42.20766720651171,20.12715815753701,-14.973505625043172,16.027999999991152
312431.7487,-45.5037268143294,-35.18932146691046,27.483601880922233,-6.852640870592789,16.028999999980442
312431.7497,-32.347844844977224,-28.062397221427727,33.96365802200375,1.0235256681714366,16.029999999969732
312431.7507,-19.230105346411108,-21.044995945032245,39.42598140490451,8.428433762907389,16.030999999959022
312431.7517,-6.502937439296389,-14.333050809701147,43.77313864933621,15.164473182343645,16.03200000000652
312431.7527,5.512182947025775,-8.091627456315246,46.95620088518718,21.071681747613578,16.03299999999581
312431.7537,16.535886497433673,-2.4489512597080196,48.976272436751465,26.033550456750206,16.0339999999851
312431.7547,26.338913564550666,2.506572723328763,49.88288771463901,29.979673756354817,16.03499999997439
312431.7557,34.74677914056606,6.726340901921673,49.76944427885285,32.88524745934383,16.03599999996368
312431.7567,41.64116522499883,10.198776189999922,48.76605740796708,34.76767108019267,16.037000000011176
312431.7577,46.95833429409682,12.944255787589613,47.03040281961771,35.68073324043254,16.038000000000466
312431.7587,50.68504376132138,15.008365422308769,44.737245376847916,35.70702958613378,16.038999999989755
312431.7597,52.85257290515565,16.45420457897784,42.06742340267797,34.94936883992191,16.039999999979045
312431.7607,53.52954353353103,17.354497518504978,39.19706675938755,33.52195696650389,16.040999999968335
312431.7617,52.81422214442086,17.784224916251492,36.28777383786349,31.542111545088297,16.041999999957625
312431.7627,50.826938549916385,17.814387544553067,33.47836494640715,29.123154552712926,16.043000000005122
312431.7637,47.70315279873403,17.50735905911776,30.878678570393138,26.368974010898654,16.043999999994412
312431.7647,43.587561637606825,16.91409641746189,28.565697104072257,23.370550101195203,16.044999999983702
312431.7657,38.62947323465076,16.07327316298617,26.58209628861178,20.20452913083892,16.04599999997299
312431.7667,32.97951119142758,15.012202862896647,24.93712444607761,16.933719885755416,16.04699999996228
312431.7677,26.78755241995896,13.74924629149787,23.60954931118116,13.609201274118325,16.04800000000978
312431.7687,20.201672892371214,12.297262424570981,22.552275071716224,10.273584795859835,16.04899999999907
312431.7697,13.367782134682518,10.667581451983956,21.698139915946978,6.964883000484563,16.04999999998836
312431.7707,6.429579086252989,8.873953894800312,20.966360523600997,3.7204029948222974,16.05099999997765
312431.7717,-0.47153869184391123,6.935963713662145,20.26909551268608,0.5801134689328059,16.051999999966938
312431.7727,-7.196935690337123,4.881479433945121,19.51765129012738,-2.410980192913967,16.052999999956228
312431.7737,-13.611808838283476,2.747845125562601,18.627943339635866,-5.201785649181734,16.054000000003725
312431.7747,-19.58699610610948,0.5816679943893592,17.524942677222757,-7.7355668851527835,16.054999999993015
312431.7757,-25.00152599604968,-1.5627755525511546,16.14596776453311,-9.951871307466716,16.055999999982305
312431.7767,-29.745784994943524,-3.6263357330104786,14.442812459232684,-11.789756894407416,16.056999999971595
312431.7777,-33.72506921056137,-5.54867336513437,12.382816991553458,-13.191983895091813,16.057999999960884
312431.7787,-36.863203037820675,-7.272421335836004,9.94907976029491,-14.109721399063506,16.059000000008382
312431.7797,-39.10586142339103,-8.747362580488781,7.140064269831398,-14.507253796772565,16.05999999999767
312431.7807,-40.42322858998817,-9.934164257669039,3.968873046623085,-14.366161907978443,16.06099999998696
312431.7817,-40.81166568734654,-10.807258489291987,0.46243857397375515,-13.688498887802401,16.06199999997625
312431.7827,-40.29413868764919,-11.356554584898838,-3.339175655006671,-12.498576779780002,16.06299999996554
312431.7837,-38.91926750849834,-11.587795421802513,-7.383254695600626,-10.843115520429095,16.06400000001304
312431.7847,-36.758985962401695,-11.521517597098168,-11.604682309376457,-8.789668032183268,16.06500000000233
312431.7857,-33.904935709421814,-11.190725209606844,-15.926052963464356,-6.423405944052367,16.065999999991618
312431.7867,-30.463841351422737,-10.637524556474114,-20.257826245979487,-3.8425128086916267,16.066999999980908
312431.7877,-26.55221457092768,-9.909076984514408,-24.498768889337967,-1.1525687895149117,16.067999999970198
312431.7887,-22.29080165592052,-9.053297942410277,-28.536959328127324,1.5395912886778418,16.068999999959487
312431.7897,-17.799213360309764,-8.114754443809622,-32.25161828338912,4.132015754304034,16.070000000006985
312431.7907,-13.191155728797451,-7.131188136997519,-35.515974687401666,6.533243928943203,16.070999999996275
312431.7917,-8.57061689105962,-6.131019662398925,-38.20128281028165,8.66691610768376,16.071999999985565
312431.7927,-4.029264103755365,-5.132079578682967,-40.18198201183849,10.47502253640801,16.072999999974854
312431.7937,0.35482233855979806,-4.1416736168087995,-41.341847487543966,11.919568731694294,16.073999999964144
312431.7947,4.517093143916155,-3.1579400849821426,-41.58083395866384,12.982596015588625,16.07500000001164
312431.7957,8.405307238353,-2.1723110281617135,-40.8221810782434,13.664661818780363,16.07600000000093
312431.7967,11.977421738556405,-1.1727621319501738,-39.01924562018802,13.982036807612756,16.07699999999022
312431.7977,15.198968931034448,-0.1474433389480119,-36.16146540188866,13.962999203203655,16.07799999997951
312431.7987,18.040348641494898,0.9117666808690731,-32.27885375806302,13.643687755630774,16.0789999999688
312431.7997,20.474471146423124,2.0062376286863137,-27.444476634865644,13.064005034938484,16.07999999995809
312431.8007,22.475143179934058,3.128499142510639,-21.774476595680447,12.264038621702241,16.081000000005588
312431.8017,24.016500801369755,4.261390700585727,-15.425372742105703,11.281391752195033,16.081999999994878
312431.8027,25.073666089390844,5.378617819974158,-8.588570560520315,10.149694871103268,16.082999999984168
312431.8037,25.624652281644995,6.446723446491623,-1.4822440474872136,8.898418045617252,16.083999999973457
312431.8047,25.653379662277562,7.428317727418195,5.659016104997816,7.553937525921181,16.084999999962747
312431.8057,25.153509369151923,8.286254617980303,12.596181649987603,6.141646031704026,16.086000000010245
312431.8067,24.132671352311124,8.988316902885822,19.098613422540772,4.688753770042319,16.086999999999534
312431.8077,22.616571059492667,9.511886659656733,24.956840317802712,3.2273220429733454,16.087999999988824
312431.8087,20.652418639802985,9.848046399744476,29.99435163020737,1.7970162642625886,16.088999999978114
312431.8097,18.311141342849112,10.004582400160087,34.07749889653994,0.4470679420195274,16.089999999967404
312431.8107,15.687915533639673,10.007445595069166,37.122717782528134,-0.7630025537993779,16.090999999956694
312431.8117,12.900684624301546,9.900360477122197,39.10046714606902,-1.7642333165148731,16.09200000000419
312431.8127,10.086502898009718,9.74244703804138,40.035527145809326,-2.4808072574719846,16.09299999999348
312431.8137,7.395747533296438,9.60391879926379,40.00358122864331,-2.834355255119803,16.09399999998277
312431.8147,4.984453522667193,9.560122526761072,39.124303970378115,-2.7497524251421983,16.09499999997206
312431.8157,3.005228239103952,9.6843722840007,37.55146203395015,-2.161992832661036,16.09599999996135
312431.8167,1.5973739092392152,10.040182878819945,35.46078336731018,-1.0235677792759712,16.097000000008848
312431.8177,0.8769691036409358,10.673609043019425,33.036537487622375,0.6883385663200277,16.097999999998137
312431.8187,0.9277204284563964,11.606434774478352,30.457879683518833,2.9655712216694123,16.098999999987427
312431.8197,1.7933842768563533,12.830925787893833,27.886033463221622,5.764357417920024,16.099999999976717
312431.8207,3.4724736984752678,14.30675706814369,25.4533158113696,9.002910414114455,16.100999999966007
312431.8217,5.915812075652839,15.960563893585107,23.254854349452085,12.561744581027478,16.101999999955297
312431.8227,9.027284991237787,17.688351431688904,21.343617748467707,16.286949659922335,16.103000000002794
312431.8237,12.667891858685994,19.36075331330783,19.729100768737833,19.996424535103493,16.103999999992084
312431.8247,16.662931220986124,20.830875225567485,18.379697884487463,23.488810539501948,16.104999999981374
312431.8257,20.811891980579386,21.944218825075236,17.228491753518487,26.554615333729167,16.105999999970663
312431.8267,24.900390990104572,22.549976778063492,16.181901789514107,28.9888043611576,16.106999999959953
312431.8277,28.713316820317313,22.51284121790737,15.130408052371429,30.603978555758335,16.10800000000745
312431.8287,32.048227068925,21.724390287454625,13.960405937074144,31.243170239625623,16.10899999999674
312431.8297,34.72801312599051,20.113119313584953,12.566170456470445,30.79128338840795,16.10999999998603
312431.8307,36.6118955847863,17.652265976761075,10.860920410552785,29.18428164730092,16.11099999997532
312431.8317,37.603941732876656,14.36473666195017,8.786069679660482,26.41538201531065,16.11199999996461
312431.8327,37.65849292280112,10.3246612365893,6.31792514355392,22.537731268258657,16.113000000012107
312431.8337,36.782137147709065,5.6553673239701,3.471321907678656,17.66330736654238,16.114000000001397
312431.8347,35.03213931063856,0.5238502125456477,0.2999555452836253,11.95807654585918,16.114999999990687
312431.8357,32.51152431480855,-4.867903680903401,-3.1065458478433614,5.633723710294458,16.115999999979977
312431.8367,29.36127157003714,-10.294127784356876,-6.6284942602037376,-1.063465480625269,16.116999999969266
312431.8377,25.750300873512234,-15.51820443643264,-10.124404129268287,-7.865780036092795,16.117999999958556
312431.8387,21.86408971285281,-20.30635892228829,-13.440903222003676,-14.498379592270156,16.119000000006054
312431.8397,17.892847180361453,-24.44110806592146,-16.423432316476557,-20.693705889533017,16.119999999995343
312431.8407,14.020172946917551,-27.733480162112656,-18.926832188521075,-26.205019836803437,16.120999999984633
312431.8417,10.413051586864276,-30.03313231258498,-20.82495349950066,-30.818170073172357,16.121999999973923
312431.8427,7.213880830632187,-31.235672970847727,-22.01853657050791,-34.36086609692863,16.122999999963213
312431.8437,4.535021636770014,-31.286735665210642,-22.440782801404865,-36.70895187336561,16.12400000001071
312431.8447,2.4561083560827113,-30.182623403745886,-22.060261323100857,-37.78943394922697,16.125
312431.8457,1.0240924061498595,-27.967627933050398,-20.881042984980617,-37.58028816102817,16.12599999998929
312431.8467,0.25573799360837624,-24.728398558136156,-18.940206274310093,-36.107326871194736,16.12699999997858
312431.8477,0.1420678972131157,-20.585967609704234,-16.30309316004473,-33.438631503668056,16.12799999996787
312431.8487,0.6540923926337002,-15.686213285234137,-13.056885728944605,-29.677223614017624,16.12899999995716
312431.8497,1.7490610536361892,-10.189640275765619,-9.303209039779553,-24.952747659434838,16.130000000004657
312431.8507,3.37646449113203,-4.261375935709691,-5.150529401135377,-19.41296239334801,16.130999999993946
312431.8517,5.48308222269792,1.9377859425742532,-0.7071044475603907,-13.215785004360379,16.131999999983236
312431.8527,8.016516675956082,8.258603298686296,3.924846540143852,-6.522509654441258,16.132999999972526
312431.8537,10.926856962340551,14.568378645809833,8.65323776425764,0.5073564871742289,16.133999999961816
312431.8547,14.166358259033261,20.753483799759962,13.398167975101769,7.719412326179846,16.135000000009313
312431.8557,17.687277803871726,26.719435262407718,18.091852585737723,14.965840012853862,16.135999999998603
312431.8567,21.438249265700847,32.388791746378686,22.676602345800674,22.105264327624194,16.136999999987893
312431.8577,25.359777297356725,37.69736422349702,27.101235338420125,29.00140752301989,16.137999999977183
312431.8587,29.379570988388807,42.58939235259374,31.316488002024766,35.52109039703951,16.138999999966472
312431.8597,33.40849263220279,47.01243317179493,35.270108505653376,41.53220210167104,16.139999999955762
312431.8607,37.33786880233099,50.91271971788424,38.902359360782995,46.90225966391641,16.14100000000326
312431.8617,41.03879543324913,54.23167807506094,42.142620517333114,51.49810353715759,16.14199999999255
312431.8627,44.363877792045194,56.90414877291431,44.907672492516326,55.1871354170662,16.14299999998184
312431.8637,47.15159840377231,58.858657398236616,47.10206239862009,57.84031357598845,16.14399999997113
312431.8647,49.23322588967439,60.019840606825724,48.62073195689654,59.33689896500152,16.14499999996042
312431.8657,50.44189371433919,60.312882032218695,49.353838536007444,59.57071549909876,16.146000000007916
312431.8667,50.62321919619875,59.66957375404582,49.19345332991289,58.457474443862274,16.146999999997206
312431.8677,49.64662678011124,58.035417512014284,48.041600349152766,55.94253835989765,16.147999999986496
312431.8687,47.41640753457883,55.37703642216385,45.81892869847519,52.00838359348664,16.148999999975786
312431.8697,43.8815040385277,51.6890974117489,42.47320654821655,46.68097516775117,16.149999999965075
312431.8707,39.043062614939316,46.99995450911992,37.98679956219651,40.034300537136275,16.151000000012573
312431.8717,32.95894043125545,41.37531312490766,32.3823529157315,32.19241787462577,16.152000000001863
312431.8727,25.74458160908887,34.91937731884685,25.726030001710814,23.328551778328535,16.152999999991152
312431.8737,17.569964685164592,27.773160570486045,18.1278604900932,13.66099930143768,16.153999999980442
312431.8747,8.652648119433353,20.109895127123906,9.738997188721733,3.4458716321185068,16.154999999969732
312431.8757,-0.75272793787403,12.12774153308639,0.7459521426444357,-7.033032089587539,16.155999999959022
312431.8767,-10.367816617092759,4.0402532861256795,-8.637847813087253,-17.476667169767104,16.15700000000652
312431.8777,-19.905891009412095,-3.934732176591273,-18.182602662816144,-27.58473468523356,16.15799999999581
312431.8787,-29.0880139153783,-11.586946191904236,-27.654000992461807,-37.070298468253874,16.1589999999851
312431.8797,-37.6588499349603,-18.72536907292945,-36.82549924963025,-45.674023082635756,16.15999999997439
312431.8807,-45.40092766189452,-25.18881620418848,-45.490069961316195,-53.17702961272375,16.16099999996368
312431.8817,-52.14626898528544,-30.854584787803226,-53.47050894072222,-59.41145141776949,16.162000000011176
312431.8827,-57.784503789932124,-35.64446749971345,-60.62751104230105,-64.26793464773176,16.163000000000466
312431.8837,-62.266864884498595,-39.527652532203106,-66.86491356206179,-67.69955483581,16.163999999989755
312431.8847,-65.60578637242013,-42.520285424266,-72.13174845482692,-69.72189212289346,16.164999999979045
312431.8857,-67.87018097775797,-44.68174388412304,-76.42101684536662,-70.40930046684976,16.165999999968335
312431.8867,-69.17681802506915,-46.107947930798495,-79.76537684225805,-69.88769545192038,16.166999999957625
312431.8877,-69.6785343581194,-46.922270079859196,-82.23019310531696,-68.32444627423673,16.168000000005122
312431.8887,-69.55025906563748,-47.26480262539494,-83.90461074095984,-65.91616793236489,16.168999999994412
312431.8897,-68.97399843497764,-47.280864605612535,-84.89146794462597,-62.8753519538116,16.169999999983702
312431.8907,-68.12399624067265,-47.10967918835599,-85.29693843164586,-59.41683664749198,16.17099999997299
312431.8917,-67.15325085407586,-46.87411944062639,-85.22079032166194,-55.745096569789844,16.17199999996228
312431.8927,-66.18243816980399,-46.6723105617493,-84.74806461112219,-52.04322884279683,16.17300000000978
312431.8937,-65.29207001168068,-46.57170042401401,-83.94282287075643,-48.46434157587541,16.17399999999907
312431.8947,-64.51843107905249,-46.60598435755282,-82.84440590343011,-45.12582350870924,16.17499999998836
312431.8957,-63.853509023160655,-46.77501555921412,-81.46640317712018,-42.1067153093803,16.17599999997765
312431.8967,-63.24879087108004,-47.0475726822938,-79.7982801271488,-39.44813551234488,16.176999999966938
312431.8977,-62.62247468136022,-47.36661462851856,-77.80937072415684,-37.15646201103731,16.177999999956228
312431.8987,-61.86936622841654,-47.6564508364608,-75.45473819120843,-35.20875557077296,16.179000000003725
312431.8997,-60.872520589598835,-47.831110930633244,-72.68225583696007,-33.559753287309526,16.179999999993015
312431.9007,-59.51556521077087,-47.803122315869516,-69.44017559849505,-32.14966995867728,16.180999999982305
312431.9017,-57.694613791872385,-47.49190333573969,-65.68444035604547,-30.912029915756502,16.181999999971595
312431.9027,-55.32874976771849,-46.831051034580646,-61.38505650776615,-29.780809749126878,16.182999999960884
312431.9037,-52.36821605159298,-45.77393764046841,-56.53096776992815,-28.696295416528343,16.184000000008382
312431.9047,-48.79967788502164,-44.29721403287725,-51.13304561414611,-27.609231216460667,16.18499999999767
312431.9057,-44.648205548687855,-42.402032729037735,-45.22501735923564,-26.48304429250945,16.18599999998696
312431.9067,-39.97592659724915,-40.11302592189773,-38.862368080230084,-25.2941452248255,16.18699999997625
312431.9077,-34.877594813016664,-37.47528410324177,-32.11945494748846,-24.03051084299317,16.18799999996554
312431.9087,-29.473587919587544,-34.54975787106549,-25.085241786236065,-22.688929232268823,16.18900000001304
312431.9097,-23.901054579236227,-31.40763342149638,-17.858180737856582,-21.271412169893555,16.19000000000233
312431.9107,-18.304065478324553,-28.124299970223188,-10.540825594592594,-19.78134531219638,16.190999999991618
312431.9117,-12.823673010430289,-24.77353017794399,-3.234753025467875,-18.219946088713055,16.191999999980908
312431.9127,-7.58874718273145,-21.422434415139055,3.9637039852479843,-16.583535004947656,16.192999999970198
312431.9137,-2.7083383092971167,-18.12763455934287,10.9665322445995,-14.86200610038105,16.193999999959487
312431.9147,1.7338661100645985,-14.932946547031673,17.69571083202897,-13.038720609659265,16.195000000006985
312431.9157,5.682651978598622,-11.868680638425303,24.0834515034498,-11.0918627009419,16.195999999996275
312431.9167,9.111869018892241,-8.95248395742921,30.071161569771327,-8.997108188424631,16.196999999985565
312431.9177,12.02266000363815,-6.19148107841473,35.60744408160239,-6.7312872412945906,16.197999999974854
312431.9187,14.43970573861536,-3.5853330118339692,40.645569399090185,-4.2765892643733565,16.198999999964144
312431.9197,16.40603103926711,-1.1297468429907107,45.14091686488822,-1.6247772302309644,16.20000000001164
312431.9207,17.977020328183745,1.1800637996775591,49.048887989591734,1.2191408928180842,16.20100000000093
312431.9217,19.21432182193699,3.346440767302301,52.32373298754312,4.234291680471255,16.20199999999022
312431.9227,20.180276257064996,5.367257945524225,54.91861736634955,7.382770899755721,16.20299999997951
312431.9237,20.933397063266057,7.235078052132733,56.787097493772244,10.610184681838021,16.2039999999688
312431.9247,21.525267865036277,8.93759857632408,57.88599130107724,13.847963362199962,16.20499999995809
312431.9257,21.99902930342963,10.459326303074151,58.17944296419292,17.01731624136592,16.206000000005588
312431.9267,22.38942252844853,11.78425695560355,57.64380950602134,20.034506544788357,16.206999999994878
312431.9277,22.72416407286793,12.89919862094686,56.27286206151748,22.816966625775198,16.207999999984168
312431.9287,23.02626721717793,13.797280646069488,54.08271061407749,25.289661867948464,16.208999999973457
312431.9297,23.316815574450878,14.481145127251583,51.1158386345614,27.39106087669712,16.209999999962747
312431.9307,23.61764706852773,14.965331933089214,47.44367722029873,29.07808622356563,16.211000000010245
312431.9317,23.95342563234513,15.277440156177784,43.16725435570898,30.329504018039223,16.211999999999534
312431.9327,24.35266151079046,15.457772486451836,38.415614722785314,31.147354641732836,16.212999999988824
312431.9337,24.847379777560224,15.5573320956697,33.341904500777495,31.556217396804808,16.213999999978114
312431.9347,25.471315355718215,15.634227597781676,28.117235130777086,31.600319825823142,16.214999999967404
312431.9357,26.25671184589474,15.748731053201983,22.92265907883064,31.338726076307147,16.215999999956694
312431.9367,27.229998810991503,15.957406493116663,17.93978787204956,30.839044929978343,16.21700000000419
312431.9377,28.4067957399603,16.30686293970183,13.34073845597909,30.170265345516764,16.21799999999348
312431.9387,29.78682082227472,16.8277704852603,9.2781921431651,29.395437477946004,16.21899999998277
312431.9397,31.349353314007782,17.529799682539835,5.876380131207156,28.56495747844474,16.21999999997206
312431.9407,33.04990002237658,18.398098463311136,3.2237660232441856,27.711179078164665,16.22099999996135
312431.9417,34.818646629983355,19.391809007689535,1.3680809943432102,26.844965628128868,16.222000000008848
312431.9427,36.561137898518936,20.44495814005238,0.31418987864373427,25.954621933445992,16.222999999998137
312431.9437,38.1614388196546,21.469843642832526,0.02504110877388029,25.00742153518369,16.223999999987427
312431.9447,39.487798906593916,22.362804723934104,0.42569938882150166,23.95369287183742,16.224999999976717
312431.9457,40.40059555816272,23.01202992760497,1.4101994361068022,22.7331709945371,16.225999999966007
312431.9467,40.762093348831385,23.30684289407276,2.850715234456631,21.2830850990678,16.226999999955297
312431.9477,40.447347571716634,23.147736838945324,4.608333986461233,19.547259435449256,16.228000000002794
312431.9487,39.355423329469836,22.456320058354127,6.5445761453876425,17.48537572857365,16.228999999992084
312431.9497,37.42001245662779,21.184299345419124,8.532726461198875,15.081492934270516,16.229999999981374
312431.9507,34.61852010278406,19.320671392748714,10.4680436151003,12.350951687926107,16.230999999970663
312431.9517,30.97876442921681,16.89641217715842,12.275998548981399,9.344905054281385,16.231999999959953
312431.9527,26.58258268633897,13.986141829472588,13.917847791079723,6.151905203295737,16.23300000000745
312431.9537,21.56585392856703,10.706481944479213,15.393065184156088,2.8962213988450176,16.23399999999674
312431.9547,16.114715554568267,7.21109296500353,16.738415248034325,-0.26715344165893196,16.23499999998603
312431.9557,10.458045761306431,3.6826572963423914,18.023731895595287,-3.160557635911924,16.23599999997532
312431.9567,4.856582061579204,0.3223343539182113,19.344743351741563,-5.594250047676387,16.23699999996461
312431.9577,-0.4106782362915059,-2.6625666134186945,20.81353401117201,-7.3787707476828,16.238000000012107
312431.9587,-5.061920143252377,-5.071791202675771,22.547434951443364,-8.338136650712315,16.239000000001397
312431.9597,-8.828757101894007,-6.72523362627352,24.65726937480561,-8.322841342576432,16.239999999990687
312431.9607,-11.472160406279825,-7.474930333199186,27.235935581366192,-7.221621831296546,16.240999999979977
312431.9617,-12.796958019312687,-7.215046513308297,30.348283161477013,-4.971037526199241,16.241999999969266
312431.9627,-12.66388474651296,-5.889106678616094,34.02313018295626,-1.5620714648367784,16.242999999958556
312431.9637,-10.99834322262925,-3.493940621663185,38.248089567829915,2.956803598196613,16.244000000006054
312431.9647,-7.795279757066702,-0.08007871670065234,42.96763719730798,8.480371467379848,16.244999999995343
312431.9657,-3.119870376595724,4.251387274152014,48.08458303021596,14.851205142668435,16.245999999984633
312431.9667,2.8959740922998956,9.355184567107573,53.46482321776281,21.867659949286626,16.246999999973923
312431.9677,10.06096580665598,15.050939328573582,58.94498038877069,29.2947308004397,16.247999999963213
312431.9687,18.135063558849527,21.13421641309296,64.3423043432379,36.87695932837055,16.24900000001071
312431.9697,26.842540139492176,27.38864708867118,69.46602649075807,44.35242967100682,16.25
312431.9707,35.886518374711315,33.5982176059368,74.12925367080518,51.46682758849825,16.25099999998929
312431.9717,44.96393214756098,39.5588159240452,78.16045930790571,57.9865606523713,16.25199999997858
312431.9727,53.77988847441326,45.088234201584875,81.41368382946246,63.71004395007313,16.25299999996787
312431.9737,62.06051088414358,50.033990006013575,83.77668618914585,68.4764349948576,16.25399999995716
312431.9747,69.5635211276514,54.278543045425124,85.17648159193297,72.17133576979501,16.255000000004657
312431.9757,76.08604717477219,57.7417258707151,85.58193875362436,74.72924671809606,16.255999999993946
312431.9767,81.46940731471187,60.3804535440783,85.0033708469572,76.13283202586874,16.256999999983236
312431.9777,85.60088735416358,62.186005847857935,83.4893133688335,76.40931249225717,16.257999999972526
312431.9787,88.41277502192338,63.17936555043151,81.12091561324029,75.62451859562692,16.258999999961816
312431.9797,89.87912015244629,63.405231059470815,78.00455909443548,73.87529337989986,16.260000000009313
312431.9807,90.01083347015918,62.92539069369419,74.2634397552196,71.28101997484147,16.260999999998603
312431.9817,88.8498099487977,61.81214467347691,70.02890106639084,67.9750566547854,16.261999999987893
312431.9827,86.46276149318969,60.14239259588337,65.4322793645453,64.09679569268906,16.262999999977183
312431.9837,82.93537251210175,57.99287798166178,60.59792559244003,59.78493048887759,16.263999999966472
312431.9847,78.36726227197533,55.43691230180495,55.63791047004876,55.17233430290397,16.264999999955762
312431.9857,72.86806683629791,52.54270745569442,50.64872015450268,50.38274360965592,16.26600000000326
312431.9867,66.5547617193671,49.37324870012867,45.71002766054528,45.529222217429705,16.26699999999255
312431.9877,59.550156401260026,45.98746011439751,40.885404514157116,40.714181475771504,16.26799999998184
312431.9887,51.9823249615688,42.442270251457494,36.224639623105,36.03056761880307,16.26899999997113
312431.9897,43.98461157722299,38.79509110169476,31.767177798910673,31.5637157781192,16.26999999996042
312431.9907,35.695778780104526,35.1061879278457,27.54609374943478,27.39332191409148,16.271000000007916
312431.9917,27.259857112203875,31.440443717922122,23.591987554688806,23.59500254195083,16.271999999997206
312431.9927,18.82530702580424,27.86810627562795,19.936226519204702,20.24099428934633,16.272999999986496
312431.9937,10.543210416675514,24.464238599315642,16.613060570457296,17.39968098462571,16.273999999975786
312431.9947,2.5643566826256525,21.306759436549324,13.66029213836094,15.133809543629525,16.274999999965075
312431.9957,-4.9647414694090335,18.473142487385388,11.118369426959083,13.497447878431851,16.276000000012573
312431.9967,-11.906694997984568,16.03601979258194,9.027973333191323,12.53192698603155,16.277000000001863
312431.9977,-18.138588002528678,14.058087937303556,7.426360765094561,12.26117420764047,16.277999999991152
312431.9987,-23.557355412594326,12.586827812590986,6.342889527087541,12.68696680109154,16.278999999980442
312431.9997,-28.084654548046686,11.64960698667912,5.79426427258777,13.784700277401285,16.279999999969732
312432.0007,-31.670699208052586,11.249730966240891,5.780096435959911,15.500266135423589,16.280999999959022
312432.0017,-34.29659290603781,11.363944825301646,6.279357264572954,17.748567155437875,16.28200000000652
312432.0027,-35.9748251051039,11.941765388437387,7.24822306386036,20.414070700119833,16.28299999999581
312432.0037,-36.74776803810353,12.906857910445721,8.619673749369008,23.353623383141247,16.2839999999851
312432.0047,-36.68421332742535,14.160476416200495,10.305024379038386,26.40154116198216,16.28499999997439
312432.0057,-35.874194752232796,15.586783230521057,12.197364019117517,29.37676815727901,16.28599999996368
312432.0067,-34.42253242448933,17.059671691394097,14.17666941681604,32.091687591682685,16.287000000011176
312432.0077,-32.44168198941624,18.450556675895566,16.116175290352245,34.36199074899838,16.288000000000466
312432.0087,-30.044561912752755,19.63648747425088,17.889439338510222,36.01688341894186,16.288999999989755
312432.0097,-27.338050312920924,20.50788901688815,19.377454712617112,36.90884768266686,16.289999999979045
312432.0107,-24.417785748053983,20.97525662727385,20.475145882784762,36.922187543920934,16.290999999968335
312432.0117,-21.364777913299697,20.974215591861498,21.096638372117734,35.97967009487616,16.291999999957625
312432.0127,-18.244146525153084,20.468502271144764,21.1788137477058,34.04672264631752,16.293000000005122
312432.0137,-15.106078859070596,19.45061442385989,20.68283625570771,31.13284697813335,16.293999999994412
312432.0147,-11.988852416475334,17.940096305706067,19.59354826507677,27.29014576233485,16.294999999983702
312432.0157,-8.923535212212101,15.979647483953952,17.916855895475887,22.609101110712253,16.29599999997299
312432.0167,-5.939777717221461,13.629451055754483,15.675439892526057,17.211977821607018,16.29699999996228
312432.0177,-3.071969609667972,10.960286537754694,12.903307010985893,11.24442218690452,16.29800000000978
312432.0187,-0.3649673387021981,8.046108247222286,9.639824375804421,4.865972526378394,16.29899999999907
312432.0197,2.121386375017334,4.9568200113466885,5.923939557724793,-1.7597234728503988,16.29999999998836
312432.0207,4.309632548448586,1.751956473791227,1.789275458881785,-8.474183940405064,16.30099999997765
312432.0217,6.104465564603156,-1.524108030397563,-2.7392977492791557,-15.132127416097667,16.301999999966938
312432.0227,7.395183192570506,-4.844951585360965,-7.647163250663793,-21.607667305692406,16.302999999956228
312432.0237,8.060832162316196,-8.202621838803365,-12.929282452976555,-27.79825290299363,16.304000000003725
312432.0247,7.97778791549856,-11.60582511035485,-18.587328242311482,-33.62616447115146,16.304999999993015
312432.0257,7.029246136048442,-15.075963564063944,-24.624850809039668,-39.03760403025952,16.305999999982305
312432.0267,5.115883232890671,-18.641410391169334,-31.040924290457976,-43.999648858301036,16.306999999971595
312432.0277,2.1667844649728045,-22.330591357945266,-37.82290848609895,-48.49553022194231,16.307999999960884
312432.0287,-1.8503423700037953,-26.164567267712947,-44.9390893308524,-52.518847507924086,16.309000000008382
312432.0297,-6.920644008122491,-30.149873931846134,-52.332021325161435,-56.06741440622857,16.30999999999767
312432.0307,-12.9761724752891,-34.27236810180548,-59.91337774495931,-59.13745165062125,16.31099999998696
312432.0317,-19.893218016061383,-38.49274985255615,-67.56102015804912,-61.71878909478836,16.31199999997625
312432.0327,-27.493391000237914,-42.74429085097391,-75.11883446732597,-63.79162416609566,16.31299999996554
312432.0337,-35.548630438665505,-46.93310625522158,-82.3996596407967,-65.32521553521124,16.31400000001304
312432.0347,-43.79000415288574,-50.94108276194699,-89.19137595815579,-66.27868657908895,16.31500000000233
312432.0357,-51.91985600090078,-54.63133674167271,-95.26594415440465,-66.60389263930382,16.315999999991618
312432.0367,-59.62657526798495,-57.85584598058207,-100.3909192008975,-66.25009042058666,16.316999999980908
312432.0377,-66.60103657562648,-60.46469716526875,-104.34272626799793,-65.16995787850523,16.317999999970198
312432.0387,-72.55360530931283,-62.31623729151178,-106.9208029167074,-63.326366917665204,16.318999999959487
312432.0397,-77.2305373874091,-63.28732484999843,-107.96159772538594,-60.69922329968563,16.320000000006985
312432.0407,-80.4286295827996,-63.28285462669231,-107.35138245221897,-57.29166694903262,16.320999999996275
312432.0417,-82.00709592065044,-62.243780570191575,-105.03688659095761,-53.1349735613987,16.321999999985565
312432.0427,-81.89584725973542,-60.152980086390265,-101.03289650723788,-48.291610630223886,16.322999999974854
312432.0437,-80.09961812540597,-57.03847965845616,-95.42616575452114,-42.8560670009789,16.323999999964144
312432.0447,-76.69769449863807,-52.9737797946347,-88.37524185896918,-36.95327883772539,16.32500000001164
312432.0457,-71.83932208645145,-48.07525697649213,-80.10610620947536,-30.734696668370088,16.32600000000093
312432.0467,-65.73518873671121,-42.49685944682244,-70.90382321826424,-24.372256332554393,16.32699999999022
312432.0477,-58.6456504570456,-36.42253030993105,-61.100677555071684,-18.050709825950115,16.32799999997951
312432.0487,-50.86658500684019,-30.056965666850513,-51.06152065133748,-11.95892124882737,16.3289999999688
312432.0497,-42.71389317618763,-23.61543165857015,-41.16723034724284,-6.2808236665905826,16.32999999995809
312432.0507,-34.50771602563531,-17.313412328620064,-31.797296699740254,-1.1867558309964756,16.331000000005588
312432.0517,-26.5573952148276,-11.356836843142046,-23.312575647516365,3.1741487017173435,16.331999999994878
312432.0527,-19.148080085583313,-5.933543575939195,-16.039200914304097,6.679958567795574,16.332999999984168
312432.0537,-12.529693860398641,-1.206490306717981,-10.254520907375213,9.239930423320324,16.333999999973457
312432.0547,-6.908732567319788,2.690969670948232,-6.1757454044449025,10.796286760432814,16.334999999962747
312432.0557,-2.4431082938942184,5.657636388290503,-3.951765249877747,11.32380490666454,16.336000000010245
312432.0567,0.7600113807753335,7.624937819972112,-3.6583686169993475,10.827445758884002,16.336999999999534
312432.0577,2.643649127124644,8.555618924201973,-5.296841739451233,9.338431886285315,16.337999999988824
312432.0587,3.198216047971757,8.441080509301983,-8.795730859616507,6.909318775388244,16.338999999978114
312432.0597,2.4570529896270967,7.297894749889698,-14.015372392461483,3.60867640421493,16.339999999967404
312432.0607,0.4909582359874735,5.164052000321993,-20.754681737011616,-0.48399639970996494,16.340999999956694
312432.0617,-2.5976742795591474,2.095456423332939,-28.75963346045257,-5.282565496209292,16.34200000000419
312432.0627,-6.6805663552717585,-1.8369084997072616,-37.73286598563687,-10.697328100659997,16.34299999999348
312432.0637,-11.608712861503507,-6.548867296132363,-47.34389562203344,-16.63659029413539,16.34399999998277
312432.0647,-17.216751494285923,-11.943889473107559,-57.23951590305309,-23.00669482443297,16.34499999997206
312432.0657,-23.326494060845203,-17.912957087333897,-67.05407325398306,-29.710647786373368,16.34599999996135
312432.0667,-29.74974160013926,-24.333716797250666,-76.419431792877,-36.645686507701306,16.347000000008848
312432.0677,-36.29064881498677,-31.0693119281119,-84.9745515747192,-43.700287933741684,16.347999999998137
312432.0687,-42.74799960504937,-37.967383714092556,-92.37469098341934,-50.751219288598264,16.348999999987427
312432.0697,-48.91779352962241,-44.85976486119241,-98.3002941913785,-57.6612685919588,16.349999999976717
312432.0707,-54.5965180117107,-51.56335756978737,-102.46563254991736,-64.27825632856472,16.350999999966007
312432.0717,-59.58539537213338,-57.882593722307114,-104.62723396444207,-70.43582320813137,16.351999999955297
312432.0727,-63.69575661972276,-63.6137254012935,-104.59206190268851,-75.9563217895214,16.353000000002794
312432.0737,-66.75552056624997,-68.55100354417338,-102.22530589899813,-80.655927445375,16.353999999992084
312432.0747,-68.61656694983901,-72.49459022274263,-97.45753240703341,-84.35184727124995,16.354999999981374
312432.0757,-69.16260789274844,-75.25983733275908,-90.29083516090147,-86.87126753866714,16.355999999970663
312432.0767,-68.31700531445787,-76.68737354748457,-80.80353493594481,-88.06146517626654,16.356999999959953
312432.0777,-66.04987270044536,-76.6532927536798,-69.15292550004814,-87.80033876398501,16.35800000000745
312432.0787,-62.38375325375541,-75.07864767356662,-55.57555816850611,-86.00650785781737,16.35899999999674
312432.0797,-57.39719207313794,-71.9374333754246,-40.384609537685165,-82.64809849663826,16.35999999998603
312432.0807,-51.22561939579326,-67.26230163665797,-23.963987660066415,-77.7493827244227,16.36099999997532
312432.0817,-44.059129164639984,-61.147376171954484,-6.758996776978139,-71.39456842824511,16.36199999996461
312432.0827,-36.13695897178694,-53.74773100771011,10.736410807065024,-63.728232737580704,16.363000000012107
312432.0837,-27.7387344406672,-45.275333942759,27.99553096625779,-54.95214100876497,16.364000000001397
312432.0847,-19.17280977837588,-35.991523455137845,44.47744338476454,-45.31847230986565,16.364999999990687
312432.0857,-10.762291142584493,-26.196357116503204,59.6474479478857,-35.11975659556769,16.365999999979977
312432.0867,-2.8295459303409585,-16.21541847748572,72.99846923419662,-24.676093039046112,16.366999999969266
312432.0877,4.319842350368022,-6.384875113313792,84.07235777509017,-14.320439654406924,16.367999999958556
312432.0887,10.412633365196195,2.96427545898352,92.479948617425,-4.382921779494489,16.369000000006054
312432.0897,15.221967492215727,11.521765890984778,97.91874946720662,4.824812610213024,16.369999999995343
312432.0907,18.578936094806537,19.012430415795478,100.18722477929956,13.024166169339928,16.370999999984633
312432.0917,20.38090842484961,25.208483786620477,99.19481386708907,19.982155752059324,16.371999999973923
312432.0927,20.596073145625912,29.938966141176415,94.96705886350735,25.521188935712832,16.372999999963213
312432.0937,19.263930899841675,33.09583095022788,87.64550473534294,29.525496834519615,16.37400000001071
312432.0947,16.491772772614215,34.63640902168689,77.48234677478735,31.943926985126367,16.375
312432.0957,12.447471860665617,34.582251855370615,64.8301169191034,32.78907710066136,16.37599999998929
312432.0967,7.349176170957096,33.014619027021425,50.12699451148307,32.13301985097837,16.37699999997858
312432.0977,1.4526985752882156,30.06710453173986,33.878577297919406,30.100107515522495,16.37799999996787
312432.0987,-4.962463452919264,25.916077219650443,16.63713607700845,26.857533644060563,16.37899999995716
312432.0997,-11.60748940577074,20.7697266517702,-1.0205114617889794,22.604452060682853,16.380000000004657
312432.1007,-18.19801707463266,14.85655009172658,-18.515341901782282,17.56050326326694,16.380999999993946
312432.1017,-24.46648810513413,8.414087900999005,-35.2875673212552,11.9545730572998,16.381999999983236
312432.1027,-30.172374771001806,1.6786190401528298,-50.81618610361073,6.014513621382722,16.382999999972526
312432.1037,-35.10982612893624,-5.123622496572798,-64.63583742368498,-0.0415950653098701,16.383999999961816
312432.1047,-39.112519503851466,-11.783339002590445,-76.35038002315925,-6.012258524571989,16.385000000009313
312432.1057,-42.055753756496344,-18.113005137080517,-85.64286344944055,-11.717284437639307,16.385999999998603
312432.1067,-43.856050510281776,-23.949691820489736,-92.28180681234818,-17.00044374537641,16.386999999987893
312432.1077,-44.46871763417229,-29.15610464947358,-96.12392585217508,-21.730307823873122,16.387999999977183
312432.1087,-43.88395959861862,-33.620207449135606,-97.11363638521594,-25.799643984981493,16.388999999966472
312432.1097,-42.1221817640343,-37.25389300010877,-95.27979832504325,-29.123848754375874,16.389999999955762
312432.1107,-39.229127130083135,-39.991194877430026,-90.73024247077532,-31.638934512413076,16.39100000000326
312432.1117,-35.271408618204454,-41.78650605874529,-83.64464122102994,-33.29955899212022,16.39199999999255
312432.1127,-30.332868230283946,-42.613187177576016,-74.26624936559311,-34.07750418423191,16.39299999998184
312432.1137,-24.51202248857587,-42.46282135014315,-62.89296235836934,-33.96088265101094,16.39399999997113
312432.1147,-17.920661191551186,-41.34521914281193,-49.86803114475797,-32.954190989044086,16.39499999996042
312432.1157,-10.683475158043349,-39.28911494853709,-35.570651172674296,-31.079161033877767,16.396000000007916
312432.1167,-2.9384192045976856,-36.34334404995957,-20.4065256168357,-28.37619913964075,16.396999999997206
312432.1177,5.162612575373856,-32.57816595043088,-4.79840470253404,-24.90607114007144,16.397999999986496
312432.1187,13.453297189743065,-28.086318987971808,10.823463072385497,-20.751400975916184,16.398999999975786
312432.1197,21.753089490552583,-22.983363929895543,26.031057792219812,-16.017515336244625,16.399999999965075
312432.1207,29.868584856158716,-17.40690449705047,40.408565432749036,-10.832190058804116,16.401000000012573
312432.1217,37.59638741128491,-11.514358618972013,53.56261948413268,-5.343935154917216,16.402000000001863
312432.1227,44.72767570071543,-5.479087581659222,65.13272897390593,0.2814133906956975,16.402999999991152
312432.1237,51.05446843874942,0.5151423206048015,74.8017019931306,5.8658584914845395,16.403999999980442
312432.1247,56.377391491468174,6.281206860836605,82.30575472161149,11.226038636481332,16.404999999969732
312432.1257,60.51455445453137,11.636839604108522,87.44388717457426,16.18134290553531,16.405999999959022
312432.1267,63.31098123693289,16.413517435005506,90.08602443222794,20.562861978838537,16.40700000000652
312432.1277,64.6479214453183,20.465398581763335,90.17937964446641,24.222562010163024,16.40799999999581
312432.1287,64.45131116002588,23.67763164076061,87.75250241291515,27.041990347602592,16.4089999999851
312432.1297,62.69866025611747,25.973352843089884,82.91653795293207,28.939806829684198,16.40999999997439
312432.1307,59.42371964439908,27.318752878370663,75.86333772177422,29.877485378156656,16.41099999996368
312432.1317,54.71842002948301,27.725719848701956,66.86022420943117,29.862644953458275,16.412000000011176
312432.1327,48.731762347304716,27.25174102863677,56.24140940191861,28.949637463617083,16.413000000000466
312432.1337,41.665562444495656,25.996957533822616,44.39628208107893,27.23722834883281,16.413999999989755
312432.1347,33.76718905130141,24.098493580235235,31.754995172319713,24.863434732852454,16.414999999979045
312432.1357,25.319663610803456,21.72240482283817,18.771981669777176,21.997815469601598,16.415999999968335
312432.1367,16.629692685675202,19.053787677656967,5.908188340077575,18.83171615539812,16.416999999957625
312432.1377,8.014360700258859,16.285745248675067,-6.387074526160726,15.567141075619787,16.418000000005122
312432.1387,-0.21269085160730897,13.608001261086754,-17.69372212945405,12.405037598452333,16.418999999994412
312432.1397,-7.75474002370199,11.19598240057922,-27.636998128154982,9.533826297412393,16.419999999983702
312432.1407,-14.34429643119563,9.201149009536808,-35.901253658565146,7.118987707257911,16.42099999997299
312432.1417,-19.753530296836093,7.743247893234695,-42.240711461325645,5.294426148667255,16.42199999996228
312432.1427,-23.802257269643054,6.904998687165667,-46.48671951236029,4.156180747633997,16.42300000000978
312432.1437,-26.363115463649724,6.729521467257104,-48.55122662933529,3.7588572751261013,16.42399999999907
312432.1447,-27.363791707498986,7.220586285622818,-48.42645506611747,4.114929496163478,16.42499999998836
312432.1457,-26.786377907106736,8.345535235828914,-46.18098289760592,5.196825547464488,16.42599999997765
312432.1467,-24.664146284667236,10.040514725405018,-41.952663527076105,6.9414942383303275,16.426999999966938
312432.1477,-21.076206417930806,12.217478362444878,-35.9389846970241,9.2569575342253,16.427999999956228
312432.1487,-16.140633126607252,14.772294385675707,-28.385592369150196,12.030215164356195,16.429000000003725
312432.1497,-10.006722554684977,17.59322633321199,-19.573767831355454,15.135787017082468,16.429999999993015
312432.1507,-2.8470398844407256,20.569056515879673,-9.807646721950043,18.44416480948307,16.430999999982305
312432.1517,5.150132656875863,23.59618770833557,0.5980909279298853,21.829496301561594,16.431999999971595
312432.1527,13.787447526192869,26.584182309334146,11.329442227863886,25.175936782076143,16.432999999960884
312432.1537,22.863894077455953,29.459367862597844,22.08274881709301,28.382261868169568,16.434000000008382
312432.1547,32.17877903919554,32.16633700145482,32.57252080649883,31.364526648691033,16.43499999999767
312432.1557,41.53429830000781,34.66737972147005,42.537312160282646,34.05675987250967,16.43599999998696
312432.1567,50.73688777023059,36.94008666742154,51.743717276550264,36.409878283937,16.43699999997625
312432.1577,59.59768758897382,38.97353505775786,59.988708441220275,38.38917634353391,16.43799999996554
312432.1587,67.93255728617575,40.76359784493009,67.10064600823607,39.97087423622775,16.43900000001304
312432.1597,75.5621289375829,42.30798977156763,72.93935881112235,41.13828038734945,16.44000000000233
312432.1607,82.31237536412486,43.60167446635171,77.39570737895599,41.878137268337014,16.440999999991618
312432.1617,88.01610137277696,44.63320390353773,80.39100798715627,42.177670719472914,16.441999999980908
312432.1627,92.51564418229863,45.38245074818742,81.87661725978325,42.02275905507457,16.442999999970198
312432.1637,95.66690624120737,45.8200362453585,81.83386505347349,41.39749004965511,16.443999999959487
312432.1647,97.34465579726428,45.908566924340775,80.2743910552269,40.28519712972224,16.445000000006985
312432.1657,97.4488369955158,45.60559120454782,77.24080324631322,38.67087918418481,16.445999999996275
312432.1667,95.91145237090129,44.86799216237415,72.80744993788215,36.54473089033723,16.446999999985565
312432.1677,92.70343603413775,43.657364902928876,67.08099623558324,33.906361011093686,16.447999999974854
312432.1687,87.8408426067597,41.94580341454516,60.20043280517929,30.76917072766249,16.448999999964144
312432.1697,81.38964756489392,39.72145556593623,52.33612822250952,27.164314398861034,16.45000000001164
312432.1707,73.46849577077384,36.99320364175306,43.687569908160384,23.14367734584483,16.45100000000093
312432.1717,64.24884655103018,33.79389277146752,34.479521482414604,18.781379326407503,16.45199999999022
312432.1727,53.95213869684545,30.18165548469137,24.956450045595684,14.17344199490181,16.45299999997951
312432.1737,42.84382364556011,26.239055955265158,15.37523449227804,9.435431811600388,16.4539999999688
312432.1747,31.224370825786917,22.069985678439586,5.996340914948073,4.698089902504813,16.45499999995809
312432.1757,19.417612866962017,17.79446320033742,-2.926173533552495,0.1011675580760066,16.456000000005588
312432.1767,7.757045520111232,13.541702322211979,-11.15530906343564,-4.214120456725294,16.456999999994878
312432.1777,-3.4290962616933407,9.441994718402086,-18.48178115496482,-8.113452747152504,16.457999999984168
312432.1787,-13.833019601413474,5.6180856024960315,-24.733970293418682,-11.477886982276072,16.458999999973457
312432.1797,-23.18177832618451,2.1767909910479717,-29.786430027620195,-14.21174670699304,16.459999999962747
312432.1807,-31.24988605911502,-0.7983956834356198,-33.566268123854805,-16.249204197478573,16.461000000010245
312432.1817,-37.869229908976614,-3.253032409096869,-36.0568272345586,-17.558945498337998,16.461999999999534
312432.1827,-42.935564814172565,-5.16525595547983,-37.29825975614521,-18.146456212010047,16.462999999988824
312432.1837,-46.41112262247323,-6.54676227048671,-37.38480408096863,-18.05366673268048,16.463999999978114
312432.1847,-48.32316873928851,-7.441121120164805,-36.45880934880305,-17.3559249650114,16.464999999967404
312432.1857,-48.7586566006764,-7.919546622696705,-34.7018030541305,-16.156501516266037,16.465999999956694
312432.1867,-47.855437997929,-8.074476524449599,-32.32312912804253,-14.579054219206268,16.46700000000419
312432.1877,-45.790757486548756,-8.011512793961588,-29.5468826861043,-12.75866413719492,16.46799999999348
312432.1887,-42.767966954269525,-7.840425125814358,-26.598013385275515,-10.832185752565938,16.46899999998277
312432.1897,-39.002522657893486,-7.66600288730231,-23.68854842842882,-8.928716827593881,16.46999999997206
312432.1907,-34.708359919959186,-7.579551839689043,-21.004890504095428,-7.160981917253571,16.47099999996135
312432.1917,-30.085677179889256,-7.651768638603066,-18.69707365196495,-5.618338338846568,16.472000000008848
312432.1927,-25.31100730132739,-7.9275948460378345,-16.870716246366094,-4.361962356066195,16.472999999998137
312432.1937,-20.530224617253452,-8.423465691473611,-15.582206413656563,-3.4225706381296157,16.473999999987427
312432.1947,-15.854853031196512,-9.127145100954401,-14.837408084668605,-2.8007970048043282,16.474999999976717
312432.1957,-11.361730583319797,-10.000099073679797,-14.593906310211153,-2.470099567826836,16.475999999966007
312432.1967,-7.095778719241171,-10.982127226948739,-14.766541297533534,-2.381842144455131,16.476999999955297
312432.1977,-3.0753491527081116,-11.997769318776191,-15.235734726280599,-2.471998475668266,16.478000000002794
312432.1987,0.7005964837566854,-12.963848883798887,-15.857910048343996,-2.6687870754071152,16.478999999992084
312432.1997,4.244359031822565,-13.797424054652065,-16.47716742353479,-2.9004718741896043,16.479999999981374
312432.2007,7.571361179265567,-14.423394279826663,-16.937304868654294,-3.102565926578213,16.480999999970663
312432.2017,10.692885633477468,-14.781062153196585,-17.093284659898345,-3.223751692400385,16.481999999959953
312432.2027,13.61045352941857,-14.829066113210605,-16.82132556835033,-3.2299738337553148,16.48300000000745
312432.2037,16.312401349118225,-14.548270165738467,-16.026947939055383,-3.106354633321927,16.48399999999674
312432.2047,18.772960257108956,-13.942403746842768,-14.650494992642972,-2.8568085073162774,16.48499999998603
312432.2057,20.953862509519613,-13.036467735409973,-12.669880850017355,-2.501468031309827,16.48599999997532
312432.2067,22.808223898217115,-11.873139536962476,-10.100552185335598,-2.0722559699191825,16.48699999996461
312432.2077,24.2862066612156,-10.507600069855085,-6.992874489825442,-1.6071240842056387,16.488000000012107
312432.2087,25.341777976605858,-9.00135032492977,-3.4273460368135398,-1.143611778282854,16.489000000001397
312432.2097,25.93976320693061,-7.415671555244619,0.49181304839558376,-0.7124432313950821,16.489999999990687
312432.2107,26.06236103566797,-5.805403624816847,4.64406329689977,-0.3318745423143309,16.490999999979977
312432.2117,25.714341634569916,-4.213669704646182,8.900283709744157,-0.003423814196936184,16.491999999969266
312432.2127,24.926282638643443,-2.6680679855556044,13.130226916447315,0.2905247263545745,16.492999999958556
312432.2137,23.755396939082367,-1.1786938852780342,17.209165793996853,0.5869421866943226,16.494000000006054
312432.2147,22.283750951844183,0.261834488287617,21.023339154817126,0.9401222196461082,16.494999999995343
312432.2157,20.613937825792934,1.6763799491200213,24.47396325050543,1.4175428518794007,16.495999999984633
312432.2167,18.862531069387703,3.099550485796425,27.479743112918566,2.093986248712559,16.496999999973923
312432.2177,17.151875112378594,4.572629732712532,29.977975711872325,3.0444591701173507,16.497999999963213
312432.2187,15.600948266571441,6.137711383125933,31.924469866555253,4.336584016004802,16.49900000001071
312432.2197,14.316143331954173,7.831653160919534,33.292603369557554,6.0231930656569475,16.5
312432.2207,13.382841132458772,9.680482594782045,34.071887780587836,8.135850860449889,16.50099999998929
312432.2217,12.858599332544719,11.694841136854437,34.266412720121984,10.679952445467018,16.50199999997858
312432.2227,12.768647312804076,13.866950044589652,33.89349625962082,13.63190572770896,16.50299999996787
312432.2237,13.10417912326008,16.16943123451185,32.982782944894886,16.938717699580703,16.50399999995716
312432.2247,13.823688139040284,18.556133748712554,31.575916857732384,20.520084434589933,16.505000000004657
312432.2257,14.857311146153126,20.964919249120342,29.726787526459105,24.272854178284902,16.505999999993946
312432.2267,16.113871001606608,23.322167064627585,27.502216559664017,28.07751308049538,16.506999999983236
312432.2277,17.49005111510362,25.548589272246474,24.982837789791407,31.8061546713436,16.507999999972526
312432.2287,18.880925512020788,27.565815400855335,22.26383730106118,35.3312547006463,16.508999999961816
312432.2297,20.1909251120422,29.303127188806048,19.45517311466734,38.534495554085225,16.510000000009313
312432.2307,21.34425841268567,30.70370408725621,16.680894831537117,41.31487652161693,16.510999999998603
312432.2317,22.293830244085676,31.729781921879056,14.077233853082488,43.59540868463083,16.511999999987893
312432.2327,23.027814962153066,32.366226483464374,11.789232462814503,45.32782050511418,16.512999999977183
312432.2337,23.57323156500016,32.6221714441162,9.965817483060382,46.49488064181203,16.513999999966472
312432.2347,23.99612143429784,32.530551824893635,8.753389215978606,47.11016132650186,16.514999999955762
312432.2357,24.39822224212292,32.145562822464434,8.28817308919404,47.21529852472075,16.51600000000326
312432.2367,24.9103374037393,31.538269960882108,8.687751793416059,46.8750321662632,16.51699999999255
312432.2377,25.682891031837013,30.79077122178269,10.042341197693881,46.17050950015006,16.51799999998184
312432.2387,26.874406487707535,29.989447968201123,12.406476867043969,45.191488165808096,16.51899999997113
312432.2397,28.638828952435972,29.217925747899926,15.79182578153427,44.028168306391876,16.51999999996042
312432.2407,31.112711739645874,28.550390111097535,20.161820944568387,42.7634062236099,16.521000000007916
312432.2417,34.403293063372445,28.04586396967905,25.428732098590437,41.46601362594286,16.521999999997206
312432.2427,38.57840431520503,27.743955499951664,31.453637498622953,40.18573132460712,16.522999999986496
312432.2437,43.65898127168257,27.662438727584362,38.04955993800908,38.95029563806432,16.523999999975786
312432.2447,49.6147129154923,27.796847228890286,44.98779107270937,37.76480652522865,16.524999999965075
312432.2457,56.36308209998208,28.122062837367796,52.007172046765554,36.613379100635655,16.526000000012573
312432.2467,63.77175567581045,28.595685592328135,58.825848499476194,35.46283698695671,16.527000000001863
312432.2477,71.66399788654438,29.162797927737305,65.15479758614455,34.26800882538518,16.527999999991152
312432.2487,79.82653725566809,29.761602646579643,70.71225507838228,32.978037543785156,16.528999999980442
312432.2497,88.01913696721935,30.329334050342492,75.23806925431026,31.543020583284584,16.529999999969732
312432.2507,95.98501840236543,30.807822938212585,78.5069865984277,29.920277190316643,16.530999999959022
312432.2517,103.46127527940635,31.148141185589886,80.33993662500103,28.079588239053766,16.53200000000652
312432.2527,110.18849092173359,31.313855993517475,80.61252599815664,26.006869907586463,16.53299999999581
312432.2537,115.91892375656876,31.282577361899275,79.26016451597627,23.705913271464542,16.5339999999851
312432.2547,120.42283851344058,31.045669481705545,76.27950967974924,21.198030303685837,16.53499999997439
312432.2557,123.49280895064857,30.606198558119182,71.72620950641542,18.519671762584604,16.53599999996368
312432.2567,124.94607487346182,29.9753853283155,65.70921887309855,15.718301040779593,16.537000000011176
312432.2577,124.62527350487309,29.167999840091447,58.38223625222463,12.846997713128232,16.538000000000466
312432.2587,122.39805681885085,28.19726097159053,49.93303035104746,9.95840545668438,16.538999999989755
312432.2597,118.15623093071915,27.069870076744895,40.571579393807376,7.0987161830709224,16.539999999979045
312432.2607,111.81509674032655,25.781809188855103,30.518015446071878,4.3023869383545295,16.540999999968335
312432.2617,103.31362692228157,24.31546821314873,19.991345976463922,1.5882170197091177,16.541999999957625
312432.2627,92.61598639268185,22.638538154195544,9.199816993101829,-1.0427239847843477,16.543000000005122
312432.2637,79.71470380160879,20.704930682627516,-1.666402845567319,-3.607017703000675,16.543999999994412
312432.2647,64.63555043675132,18.457775482008344,-12.439781810511192,-6.136595137112393,16.544999999983702
312432.2657,47.443906098574274,15.834326578668302,-22.977072616038303,-8.674377779314618,16.54599999997299
312432.2667,28.252118356857686,12.772399442546508,-33.15818021733808,-11.268255220685145,16.54699999996228
312432.2677,7.227122036714725,9.217783477923994,-42.88265114234074,-13.963984337723957,16.54800000000978
312432.2687,-15.402592625010353,5.131948082887045,-52.06440953917324,-16.797730550222756,16.54899999999907
312432.2697,-39.341669502476876,0.49929840484882426,-60.62552280208741,-19.789035836906503,16.54999999998836
312432.2707,-64.22523627441929,-4.666753326303957,-68.48985636281365,-22.934983096298694,16.55099999997765
312432.2717,-89.619808354851,-10.319553078584587,-75.57746629485077,-26.206231911558454,16.551999999966938
312432.2727,-115.0284321940187,-16.3773117979261,-81.80048171247505,-29.545434766801797,16.552999999956228
312432.2737,-139.90045763231134,-22.723859248956895,-87.06105691982748,-32.86832063066637,16.554000000003725
312432.2747,-163.6459699551381,-29.21211779114704,-91.25174362391965,-36.06747591210228,16.554999999993015
312432.2757,-185.65451968578265,-35.67012507079896,-94.25836961714752,-39.01858635592313,16.555999999982305
312432.2767,-205.3173964484453,-41.90920298165043,-95.96523878104385,-41.588654142689236,16.556999999971595
312432.2777,-222.0523382826078,-47.733673350436064,-96.26221530528704,-43.645497672481994,16.557999999960884
312432.2787,-235.3292834697829,-52.95137784536209,-95.05304780531152,-45.06769875290412,16.559000000008382
312432.2797,-244.69558690729218,-57.3841845960588,-92.26414711713946,-45.75409856964532,16.55999999999767
312432.2807,-249.79905794246827,-60.87766434340171,-87.8529688759863,-45.631967520387626,16.56099999998696
312432.2817,-250.40724178113453,-63.30919461429342,-81.8151744676419,-44.66308372580027,16.56199999997625
312432.2827,-246.42156109932685,-64.59389404915011,-74.18984893179788,-42.847141135028245,16.56299999996554
312432.2837,-237.8852457099915,-64.68798654363391,-65.06223098364086,-40.222153190722615,16.56400000001304
312432.2847,-224.98438277245154,-63.58942699350752,-54.563640471990105,-36.861798499701884,16.56500000000233
312432.2857,-208.04188603323888,-61.33586453322509,-42.86854901532815,-32.86994359580133,16.565999999991618
312432.2867,-187.50467193640998,-58.00025157360016,-30.18900407535468,-28.37284636593503,16.566999999980908
312432.2877,-163.92480254560243,-53.6846053295415,-16.766858929371352,-23.50976552378284,16.567999999970198
312432.2887,-137.93577058765158,-48.51257407411268,-2.86445687748623,-18.42285460879274,16.568999999959487
312432.2897,-110.22542579855039,-42.621539617787526,11.24545167770094,-13.247287990991179,16.570000000006985
312432.2907,-81.50724732625977,-36.154993703611915,25.289728531693182,-8.102544115525385,16.570999999996275
312432.2917,-52.491737888635676,-29.25585960758559,39.00400349121785,-3.0856594787538527,16.571999999985565
312432.2927,-23.859647361893874,-22.06129886888413,52.14027724671309,1.7329239356440667,16.572999999974854
312432.2937,3.7614654779837466,-14.699360711002345,64.47246046242958,6.310546676195777,16.573999999964144
312432.2947,29.816134640796243,-7.287617217148133,75.79956694999444,10.630472730883747,16.57500000001164
312432.2957,53.834546097625385,0.06629744721000487,85.94653450217801,14.697198618478158,16.57600000000093
312432.2967,75.44038729558295,7.262537835393839,94.76290384223915,18.529424797782283,16.57699999999022
312432.2977,94.35306585171381,14.205760809000283,102.11981812422042,22.151416828324432,16.57799999997951
312432.2987,110.3847908626334,20.801301924786333,107.9059887335994,25.58364932909361,16.5789999999688
312432.2997,123.4333589394051,26.95147781743909,112.02338862138788,28.833707968539628,16.57999999995809
312432.3007,133.47174242887033,32.55267064337649,114.38346935792387,31.888415559966464,16.581000000005588
312432.3017,140.53572133343354,37.493773791417354,114.90464753040042,34.70804839297704,16.581999999994878
312432.3027,144.71082595984444,41.65643880923253,113.51167329644827,37.22332711537399,16.582999999984168
312432.3037,146.11976813263286,44.91737514006867,110.1372901407825,39.335619167755056,16.583999999973457
312432.3047,144.91134906227725,47.15273479122725,104.72633853609707,40.920499268116934,16.584999999962747
312432.3057,141.25156455553858,48.244384429092136,97.24217112900261,41.83450693306721,16.586000000010245
312432.3067,135.31731246651398,48.087649631910836,87.67496045286951,41.92464321502475,16.586999999999534
312432.3077,127.2927758831364,46.59993119341929,76.05122009274355,41.03988948565486,16.587999999988824
312432.3087,117.36824165215957,43.729459655648796,62.44365306028001,39.04383262114618,16.588999999978114
312432.3097,105.74084781488388,39.463385334910086,46.98030902950283,35.82736133432211,16.589999999967404
312432.3107,92.6165600851059,33.83440488183444,29.85199079219176,31.32036860043595,16.590999999956694
312432.3117,78.2125734745783,26.92520322308887,11.316907528979135,25.50145804965815,16.59200000000419
312432.3127,62.75932797078337,18.870136160357575,-8.298273009960614,18.404802443641454,16.59299999999348
312432.3137,46.50141421265815,9.853782199203494,-28.601579940600125,10.123526661106593,16.59399999998277
312432.3147,29.696814218941213,0.10623523156078409,-49.14339931911749,0.8092660729830813,16.59499999997206
312432.3157,12.614152997579327,-10.104728492164837,-69.42858384307226,-9.332140973516037,16.59599999996135
312432.3167,-4.472097155787974,-20.484218097785046,-88.93259279921251,-20.048557963017103,16.597000000008848
312432.3177,-21.288246418760437,-30.72290913842421,-107.12089822959253,-31.052499189543607,16.597999999998137
312432.3187,-37.56939103747037,-40.51103412422963,-123.47059930466763,-42.034335523461486,16.598999999987427
312432.3197,-53.06813505421418,-49.55276082934485,-137.49297046955752,-52.67680571211331,16.599999999976717
312432.3207,-67.5632518088605,-57.57999434687093,-148.75555031980167,-62.669801924152424,16.600999999966007
312432.3217,-80.86747043200529,-64.36467626331827,-156.90236898356466,-71.72440763296001,16.601999999955297
312432.3227,-92.83362646652621,-69.72876844318316,-161.6710138483966,-79.58526196541004,16.603000000002794
312432.3237,-103.35855439508835,-73.55128976607126,-162.90543854771036,-86.0404965255888,16.603999999992084
312432.3247,-112.38430846205296,-75.772005670648,-160.56371070857028,-90.92872073581749,16.604999999981374
312432.3257,-119.89655444348298,-76.39163184444354,-154.72024493183116,-94.1427970838227,16.605999999970663
312432.3267,-125.92025144584197,-75.46868147588549,-145.5624484880099,-95.63042262773992,16.606999999959953
312432.3277,-130.51300969017197,-73.11333627215416,-133.38208562098188,-95.39179166859842,16.60800000000745
312432.3287,-133.75673884545924,-69.47893281061882,-118.56201031854171,-93.47483285879115,16.60899999999674
312432.3297,-135.74836720790188,-64.75180944800793,-101.55919891292906,-89.9686729155353,16.60999999998603
312432.3307,-136.59049707239822,-59.14034226545639,-82.88521131231347,-84.99606566063585,16.61099999997532
312432.3317,-136.3828569361011,-52.86400548798077,-63.08530978418261,-78.7055339701465,16.61199999996461
312432.3327,-135.21531735753493,-46.14322395591844,-42.71746318846733,-71.2639060031429,16.613000000012107
312432.3337,-133.16306464424667,-39.19065121992119,-22.33236810677765,-62.849795954636456,16.614000000001397
312432.3347,-130.28429381152628,-32.20432168620213,-2.455440836923734,-53.64840009802337,16.614999999990687
312432.3357,-126.62051459548339,-25.362908774549282,16.428502907959704,-43.847772181700165,16.615999999979977
312432.3367,-122.19929048702375,-18.823095887882424,33.88743458485294,-33.63653177665842,16.616999999969266
312432.3377,-117.03898001248619,-12.718856237205102,49.55099646795975,-23.20276823382583,16.617999999958556
312432.3387,-111.15484833171821,-7.162262444337229,63.116169252653236,-12.733752205082075,16.619000000006054
312432.3397,-104.56578658066348,-2.245324513088925,74.35002312331342,-2.415972176658991,16.619999999995343
312432.3407,-97.30082936934646,1.9577034591474036,83.09000404731276,7.565015244705176,16.620999999984633
312432.3417,-89.40470141070999,5.388097227532519,89.24228957767794,17.02539319220022,16.621999999973923
312432.3427,-80.94174684517552,8.000990794441382,92.77875997287805,25.7849202565014,16.622999999963213
312432.3437,-71.99778506321556,9.764602170871825,93.73307759713524,33.6700109056053,16.62400000001071
312432.3447,-62.67967315577945,10.66052932388525,92.1962637836468,40.51809165025703,16.625
312432.3457,-53.112611210172496,10.685100021737888,88.31202609672741,46.18306667685314,16.62599999998929
312432.3467,-43.435474328842055,9.851573372222369,82.27194144240964,50.54154062052134,16.62699999997858
312432.3477,-33.79466753328763,8.192829897721033,74.31046319726323,53.499293088856184,16.62799999996787
312432.3487,-24.337153861236608,5.764069983708866,64.69961261611256,54.99739776614393,16.62899999995716
312432.3497,-15.203385851303612,2.6449816042627474,53.743150928129765,55.01734132051516,16.630000000004657
312432.3507,-6.520868459889758,-1.059154890226737,41.77001731301349,53.58452998291932,16.630999999993946
312432.3517,1.601001401952299,-5.217883928507497,29.12686093783656,50.76967315577961,16.631999999983236
312432.3527,9.074326920760903,-9.677840060375287,16.169586949878248,46.68769495553074,16.632999999972526
312432.3537,15.834049404017104,-14.267008755215734,3.253965005129885,41.49403093733695,16.633999999961816
312432.3547,21.83718231325293,-18.80092323416717,-9.274501968211453,35.378398233803615,16.635000000009313
312432.3557,27.060130302871464,-23.09052518810402,-21.091100810545377,28.556359980960277,16.635999999998603
312432.3567,31.494498340313914,-26.951221090379974,-31.90234337655899,21.25921574938088,16.636999999987893
312432.3577,35.14196583025812,-30.212507437068584,-41.45573932143239,13.722917195642054,16.637999999977183
312432.3587,38.00890617840819,-32.72743520694785,-49.54828738531344,6.176814820088677,16.638999999966472
312432.3597,40.10146235203169,-34.38114827297632,-56.0330811659536,-1.1669241002004063,16.639999999955762
312432.3607,41.42174070060682,-35.09776788588882,-60.8235022078984,-8.122429315425045,16.64100000000326
312432.3617,41.965663722914925,-34.845003906533115,-63.894607701868075,-14.537093406217224,16.64199999999255
312432.3627,41.72284018858096,-33.63604429920187,-65.28150185647802,-20.29589153243631,16.64299999998184
312432.3637,40.678586657135575,-31.52849236938311,-65.07469365042188,-25.32278674094981,16.64399999997113
312432.3647,38.817990686304135,-28.620366397412692,-63.4126701935766,-29.57920895067402,16.64499999996042
312432.3657,36.13166740598052,-25.04342587988857,-60.47213358540416,-33.05985512575974,16.646000000007916
312432.3667,32.62265164522137,-20.95431907727296,-56.45653947543186,-35.78629593767433,16.646999999997206
312432.3677,28.313708658896303,-16.524236116082992,-51.58371920806374,-37.7990677095259,16.647999999986496
312432.3687,23.254254231572634,-11.927882355142188,-46.07345008157955,-39.149058919932195,16.648999999975786
312432.3697,17.52605988165979,-7.332645405227052,-40.13585073562185,-39.88905512168771,16.649999999965075
312432.3707,11.246984283869633,-2.8888100869002726,-33.961418008997676,-40.06627901620954,16.651000000012573
312432.3717,4.572113686556441,1.2784199951500292,-27.71339127170617,-39.7166555770367,16.652000000001863
312432.3727,-2.3080992666987292,5.074499212574241,-21.52293999670495,-38.86135513959229,16.652999999991152
312432.3737,-9.17285476125302,8.438336704838362,-15.487435487573444,-37.50593668832724,16.653999999980442
312432.3747,-15.779060057519873,11.342184798014946,-9.671807803392568,-35.64215090792482,16.654999999969732
312432.3757,-21.87201590397235,13.788750553987576,-4.112726284571308,-33.25219293299827,16.655999999959022
312432.3767,-27.198077648826697,15.805907711489999,1.174900268213893,-30.314944038313683,16.65700000000652
312432.3777,-31.518428047586383,17.439595025291553,6.189807962341309,-26.813534061460953,16.65799999999581
312432.3787,-34.622962227813424,18.74563935916679,10.935490495543304,-22.743412461770316,16.6589999999851
312432.3797,-36.343231792743204,19.781323815291938,15.411449220946855,-18.12004991662428,16.65999999997439
312432.3807,-36.563431390376564,20.597525379857377,19.605473534635422,-12.985411124084244,16.66099999996368
312432.3817,-35.22853595075783,21.23217315888578,23.487747076860934,-7.4124417452135285,16.662000000011176
312432.3827,-32.348900815933405,21.705634822568488,27.007404075761137,-1.506988828470657,16.663000000000466
312432.3837,-28.000903413047023,22.01843961627082,30.091929896223558,4.593191940883677,16.663999999989755
312432.3847,-22.323511298415838,22.151510780123346,32.649530912141465,10.722419392893144,16.664999999979045
312432.3857,-15.510980794705363,22.06883138786494,34.57431563975553,16.693858410778628,16.665999999968335
312432.3867,-7.802195067303841,21.72222955750868,35.75385785419231,22.308615359529224,16.666999999957625
312432.3877,0.5325865004493102,21.057764576863864,36.078478621200425,27.366472126840982,16.668000000005122
312432.3887,9.206597546558719,20.02304414950015,35.451410043533016,31.677415269100408,16.668999999994412
312432.3897,17.931966386538186,18.574718780896962,33.79890583904959,35.0730358454879,16.669999999983702
312432.3907,26.434539748232176,16.68538967309502,31.0793522950817,37.416879204421875,16.67099999997299
312432.3917,34.46708754702015,14.349231388897097,27.290509216001084,38.612911392282555,16.67199999996228
312432.3927,41.820003384998024,11.585762685467499,22.474167423106344,38.61143114629858,16.67300000000978
312432.3937,48.328842799070145,8.441384490019628,16.717732726841724,37.411977744320794,16.67399999999907
312432.3947,53.878319093297115,4.9885241054202,10.152515325263911,35.06304402880177,16.67499999998836
312432.3957,58.402679392729375,1.3224573422829728,2.9487932318356536,31.658676105758843,16.67599999997765
312432.3967,61.882683951899836,-2.443897615699877,-4.691998383875536,27.332301030105846,16.676999999966938
312432.3977,64.33968298773266,-6.1867308488259765,-12.54734949663585,22.248347244153234,16.677999999956228
312432.3987,65.82750375310845,-9.779012462646083,-20.385232094114315,16.5923894525976,16.679000000003725
312432.3997,66.42300787739238,-13.098385792860812,-27.9762137273716,10.560645492358903,16.679999999993015
312432.4007,66.21624375509344,-16.034575899344205,-35.10517368610881,4.34967009081624,16.680999999982305
312432.4017,65.30109744345253,-18.49567003849307,-41.58171893982683,-1.852970650118265,16.681999999971595
312432.4027,63.76724272234655,-20.41275155272884,-47.248529900316285,-7.876391955182879,16.682999999960884
312432.4037,61.69401880290232,-21.742541773045694,-51.987067196063435,-13.571986190776245,16.684000000008382
312432.4047,59.146641023793414,-22.467907926684344,-55.720319989872486,-18.816682335825746,16.68499999999767
312432.4057,56.17489850245058,-22.59630771328255,-58.41254936733313,-23.513867918628325,16.68599999998696
312432.4067,52.814237973492034,-22.156441539213766,-60.06625034530363,-27.592200235301952,16.68699999997625
312432.4077,49.08889947448892,-21.193551292630517,-60.71679705521467,-31.00272889299854,16.68799999996554
312432.4087,45.01657895549901,-19.763923456457135,-60.425424798766386,-33.71489528254635,16.68900000001304
312432.4097,40.61396236283795,-17.9292129277369,-59.27132256626144,-35.71205307126847,16.69000000000233
312432.4107,35.90241604237475,-15.751197046931596,-57.34365001300789,-36.98716057731769,16.690999999991618
312432.4117,30.913132980399844,-13.287498668828452,-54.73425166290793,-37.53923167431885,16.691999999980908
312432.4127,25.69111962597414,-10.58869074383943,-51.53172430801036,-37.37100464381449,16.692999999970198
312432.4137,20.297553157690658,-7.697026547640569,-47.81731473074014,-36.48811247778025,16.693999999959487
312432.4147,14.810227773637418,-4.646847300340019,-43.66290352347866,-34.89983275139247,16.695000000006985
312432.4157,9.322020682573433,-1.4665227104633152,-39.13109038581301,-32.621282476568894,16.695999999996275
312432.4167,3.937521890253358,1.8183994623632564,-34.27716181225785,-29.67672613526763,16.696999999985565
312432.4177,-1.2318351070405091,5.181302572526957,-29.152517460454412,-26.10350459667375,16.697999999974854
312432.4187,-6.073651217208319,8.590429743335424,-23.808977169805356,-21.95598632412874,16.698999999964144
312432.4197,-10.480858844071557,12.005224874562112,-18.303301562768134,-17.308902151218437,16.70000000001164
312432.4207,-14.357813524087199,15.373646119665983,-12.701243480232755,-12.259456191989557,16.70100000000093
312432.4217,-17.62558634718919,18.630917009853924,-7.0805056505777975,-6.927706079716356,16.70199999999022
312432.4227,-20.22595619607644,21.70003229031647,-1.5321049257582882,-1.4548664711332648,16.70299999997951
312432.4237,-22.1237449986389,24.49414879908145,3.8401785778642235,4.0006049272621,16.7039999999688
312432.4247,-23.307318981258344,26.920785041259087,8.922376913090757,9.269050003726859,16.70499999995809
312432.4257,-23.787275014302878,28.887547483451375,13.59481951622716,14.177462133014433,16.706000000005588
312432.4267,-23.59352260473402,30.30891824894884,17.738200075076968,18.558619893196155,16.706999999994878
312432.4277,-22.77113847145244,31.11349718770119,21.240716187261732,22.26081162518897,16.707999999984168
312432.4287,-21.37549411073264,31.251006733136723,24.005642955001058,25.15735845825281,16.708999999973457
312432.4297,-19.467223988171803,30.698350588751786,25.95863529528695,27.155115981747613,16.709999999962747
312432.4307,-17.107605585556808,29.46407060670138,27.054057393886584,28.201185820177162,16.711000000010245
312432.4317,-14.354861885004782,27.590666716684733,27.279710756569454,28.28719475530617,16.711999999999534
312432.4327,-11.26177833219821,25.154422157102527,26.65946719775879,27.450689971552958,16.712999999988824
312432.4337,-7.874862581963379,22.262594427960593,25.253496318976932,25.773437156422663,16.713999999978114
312432.4347,-4.235084152242757,19.04807088096441,23.155990447139207,23.376671362466464,16.714999999967404
312432.4357,-0.38003345855456705,15.661823897805636,20.49051279364951,20.413613835462613,16.715999999956694
312432.4367,3.652842497627962,12.26371128842235,17.403305315984603,17.05980632694392,16.71700000000419
312432.4377,7.822416712662612,9.012332140487509,14.05507147128975,13.502004928358385,16.71799999999348
312432.4387,12.080053230872446,6.054750387466441,10.611879212183233,9.926499959823328,16.71899999998277
312432.4397,16.366383715581513,3.5169272629146957,7.235899581844461,6.507775082599767,16.71999999997206
312432.4407,20.60926029563721,1.4956559907476945,4.0767004341928,3.3983832945522843,16.72099999996135
312432.4417,24.72334851372507,0.052671314434587384,1.2637537693084175,0.7208034585287841,16.722000000008848
312432.4427,28.611660266066046,-0.7885764010046028,-1.0993043261937674,-1.4381403357376785,16.722999999998137
312432.4437,32.16912146086263,-1.0432209802530776,-2.938288033764686,-3.029945460199459,16.723999999987427
312432.4447,35.2880431309548,-0.762345119788664,-4.20977344969759,-4.044091321844997,16.724999999976717
312432.4457,37.86514090849756,-0.027654244896927808,-4.9001381006004,-4.504863935522168,16.725999999966007
312432.4467,39.809549418482405,1.0560653328083196,-5.022558446420153,-4.465755806742766,16.726999999955297
312432.4477,41.05112657870313,2.3700417255799153,-4.612368475241689,-4.0020504893134214,16.728000000002794
312432.4487,41.5482551513041,3.791377609590676,-3.7213130924292246,-3.2023384593457567,16.728999999992084
312432.4497,41.29433638326331,5.202832058510696,-2.411306530668751,-2.1597758321289824,16.729999999981374
312432.4507,40.32223724174709,6.501702767377887,-0.748322001737531,-0.963885350396796,16.730999999970663
312432.4517,38.70609491622717,7.607082813040242,1.2030063283044048,0.3063872549386034,16.731999999959953
312432.4527,36.56008871179416,8.464925626525698,3.3835889071542167,1.5877992635699094,16.73300000000745
312432.4537,34.0340423872412,9.05056005350152,5.742559774663368,2.8357567219623445,16.73399999999674
312432.4547,31.30599659149021,9.368534459383199,8.2382707177526,4.0249457955572785,16.73499999998603
312432.4557,28.572165653191277,9.44991249813923,10.837630103857048,5.147750280933439,16.73599999997532
312432.4567,26.03493950761411,9.34737070047765,13.513996295233595,6.210774084735109,16.73699999996461
312432.4577,23.889786075772726,9.128638448322087,16.243990255331813,7.22996835238926,16.738000000012107
312432.4587,22.312032551424398,8.868956848432962,19.003705296224595,8.224989402182027,16.739000000001397
312432.4597,21.444542929497228,8.64330242751016,21.764852480544377,9.213474092355055,16.739999999990687
312432.4607,21.387258743586074,8.519118762886011,24.491382033234554,10.20590864111919,16.740999999979977
312432.4617,22.189433889079837,8.55022537464947,27.13706436702446,11.201687132237172,16.741999999969266
312432.4627,23.84518437265812,8.772436474519752,29.644405193745985,12.186815653361489,16.742999999958556
312432.4637,26.292708808983438,9.201236565687633,31.94511935407232,13.13353184425685,16.744000000006054
312432.4647,29.41723978989093,9.831644167790655,33.96221338739906,14.001896696664994,16.744999999995343
312432.4657,33.057487132762574,10.64017071060767,35.613546031643764,14.743197495650678,16.745999999984633
312432.4667,37.01505894605706,11.588571242275478,36.81656801963706,15.304800053859267,16.746999999973923
312432.4677,41.066120376757105,12.628907898488364,37.4938056198338,15.63592536680799,16.747999999963213
312432.4687,44.97439277458405,13.709323387181154,37.57856103503536,15.693717232894786,16.74900000001071
312432.4697,48.50452084504069,14.779862080265891,37.02026694315767,15.448924501875965,16.75
312432.4707,51.43484708272558,15.797686202307702,35.78895624400987,14.89054910793716,16.75099999998929
312432.4717,53.56872784643488,16.731112559144158,33.87838930380412,14.028906494918685,16.75199999997858
312432.4727,54.74369239863749,17.562032871804885,31.307511429108835,12.896699179666747,16.75299999996787
312432.4737,54.837966991015826,18.28646365901873,28.12007946680773,11.547901799856904,16.75399999995716
312432.4747,53.77413782886827,18.913180758929034,24.382480950435372,10.054477377603222,16.755000000004657
312432.4757,51.519984312912364,19.460607351956813,20.179952642393037,8.501167517585822,16.755999999993946
312432.4767,48.08675231651897,19.952320616913237,15.611568143151782,6.97880136412987,16.756999999983236
312432.4777,43.52533401187513,20.41170054520503,10.784488937494805,5.576728819667892,16.757999999972526
312432.4787,37.92095830265842,20.856348382006278,5.808046175748901,4.3750862252365845,16.758999999961816
312432.4797,31.3870630957734,21.292940571124475,0.7882333448965219,3.4376365308205337,16.760000000009313
312432.4807,24.059013733878523,21.713152481892966,-4.176859246982006,2.8058868205580962,16.760999999998603
312432.4817,16.088254868019646,22.091187212314086,-9.00024402271999,2.4950770025172733,16.761999999987893
312432.4827,7.637346952306649,22.383287866716877,-13.607599187228914,2.4924645682532662,16.762999999977183
312432.4837,-1.1238396732854457,22.529412298447614,-17.937109398775327,2.758117601788093,16.763999999966472
312432.4847,-10.020699521717347,22.45702718874059,-21.937694609505755,3.22819212524897,16.764999999955762
312432.4857,-18.875359699647984,22.086755729873513,-25.565925055826167,3.820433286963462,16.76600000000326
312432.4867,-27.50733878413338,21.33941253070712,-28.782078712114608,4.441425881280518,16.76699999999255
312432.4877,-35.733825710390434,20.14380107033462,-31.545909409523862,4.994949199553354,16.76799999998184
312432.4887,-43.37008043913809,18.44454942641222,-33.81274648128497,5.39068105428053,16.76899999997113
312432.4897,-50.230464785089886,16.209229734986373,-35.53053334202557,5.552456986616037,16.76999999996042
312432.4907,-56.130550706783616,13.434049769643236,-36.63833259542076,5.425327254251197,16.771000000007916
312432.4917,-60.89063031222588,10.147517865924168,-37.06668556563335,4.980762979003282,16.771999999997206
312432.4927,-64.3407791352108,6.411655003248727,-36.74002717966198,4.219533567724819,16.772999999986496
312432.4937,-66.32741957871342,2.3205441353554,-35.58114047662293,3.171993920643814,16.773999999975786
312432.4947,-66.72111616627005,-2.003753576457116,-33.517409587339706,1.8957612501682912,16.774999999965075
312432.4957,-65.42513133094906,-6.41764591107722,-30.4884180393607,0.4710043351342215,16.776000000012573
312432.4967,-62.384102156151265,-10.764332787269131,-26.454262106165267,-1.0062106757755482,16.777000000001863
312432.4977,-57.592084086812605,-14.88334388978302,-21.40382512627765,-2.431895521236813,16.777999999991152
312432.4987,-51.09916156082807,-18.62051485706772,-15.362201995325199,-3.7026955835639153,16.778999999980442
312432.4997,-43.01585572747573,-21.83758295594406,-8.396480934440781,-4.724238717623546,16.779999999969732
312432.5007,-33.514666526436244,-24.42061512272225,-0.6191827205979483,-5.418518380532008,16.780999999959022
312432.5017,-22.828263474272198,-26.286585278051156,7.811180741972319,-5.729653294286829,16.78200000000652
312432.5027,-11.244072683360661,-27.38758394191646,16.69274945536559,-5.62752901910465,16.78299999999581
312432.5037,0.9047225840573236,-27.712355523942474,25.786226729616647,-5.10903590164882,16.7839999999851
312432.5047,13.251467434298977,-27.285097083538943,34.823856604171006,-4.196852325904378,16.78499999997439
312432.5057,25.411034981209703,-26.16169437188481,43.52100451845982,-2.9359591523803337,16.78599999996368
312432.5067,36.99673216681454,-24.42379397724709,51.589649689081874,-1.3882877282327446,16.787000000011176
312432.5077,47.63812441425674,-22.17129381559863,58.75292074511505,0.37392091655518445,16.788000000000466
312432.5087,56.99868499247739,-19.513961411760015,64.7596968039077,2.275350768836999,16.788999999989755
312432.5097,64.79215056883433,-16.562949246791906,69.39826412109505,4.244696101725675,16.789999999979045
312432.5107,70.79652501171047,-13.422964200909474,72.5080668302845,6.2208787425868195,16.790999999968335
312432.5117,74.86481448825688,-10.185765904604374,73.98871535205112,8.157773905411585,16.791999999957625
312432.5127,76.93178702206637,-6.925525261880283,73.80560760519539,10.026977159608606,16.793000000005122
312432.5137,77.016312121895,-3.696383814383438,71.99176050889304,11.818346683297813,16.793999999994412
312432.5147,75.21913007788737,-0.5323355095185491,68.6457226397061,13.538282489457291,16.794999999983702
312432.5157,71.7162031434837,2.550674174494474,63.9257211396678,15.205935780462864,16.79599999997299
312432.5167,66.74808903487211,5.550749426295262,58.04046440355066,16.847754604782757,16.79699999996228
312432.5177,60.606029701073915,8.474642022385098,51.23725544910954,18.490945961568524,16.79800000000978
312432.5187,53.61564728917643,11.331570658982876,43.7882510882862,20.156552550817896,16.79899999999907
312432.5197,46.11927152349025,14.12695265545753,35.97581557574566,21.852892940469758,16.79999999998836
312432.5207,38.457980788504166,16.856737665874714,28.077956484759625,23.57009186568289,16.80099999997765
312432.5217,30.954421446161767,19.502965003393896,20.35479355100416,25.276334432167197,16.801999999966938
312432.5227,23.897380523389746,22.031038662925074,13.036902797659844,26.916322638165123,16.802999999956228
312432.5237,17.52893528319474,24.389039923906484,6.316208842923901,28.412209263134137,16.804000000003725
312432.5247,12.034802989268488,26.509193638702452,0.33988311588906617,29.667051769981985,16.804999999993015
312432.5257,7.538282022325512,28.31139070735813,-4.792536588307843,30.570589182716887,16.805999999982305
312432.5267,4.097929601905039,29.708466274977223,-9.028838771355145,31.006920404307944,16.806999999971595
312432.5277,1.7088800017962078,30.61276010153202,-12.360911901572598,30.863474202277573,16.807999999960884
312432.5287,0.30748731386929873,30.943358539049843,-14.819070614326606,30.040526800646305,16.809000000008382
312432.5297,-0.22120701141124746,30.633348257469965,-16.464560730289566,28.460455324337705,16.80999999999767
312432.5307,-0.033818450480599484,29.636406344893068,-17.380965214224293,26.075920679205748,16.81099999998696
312432.5317,0.6825048831530492,27.932109628479513,-17.66526450912939,22.876251454017886,16.81199999997625
312432.5327,1.7219287012933548,25.529461953353934,-17.419271606838663,18.89144400256406,16.81299999996554
312432.5337,2.8717820374153535,22.468300269758387,-16.74207049657588,14.193389870124701,16.81400000001304
312432.5347,3.923765694555142,18.818433018748372,-15.723946993186763,8.894172258408288,16.81500000000233
312432.5357,4.683988614308234,14.676569055807965,-14.442128047057443,3.1415172919783565,16.815999999991618
312432.5367,4.981439773088717,10.161292829745104,-12.958456677153553,-2.8882786241311367,16.816999999980908
312432.5377,4.67465353152763,5.406513233882515,-11.31894276426163,-8.999418194109477,16.817999999970198
312432.5387,3.656474246185054,0.5539435708043213,-9.554962425299406,-14.986984177018723,16.818999999959487
312432.5397,1.8569583809711114,-4.254753386789942,-7.6857454783987595,-20.64785010445319,16.820000000006985
312432.5407,-0.7554413436177747,-8.885504829546711,-5.721702704178339,-25.791311611703538,16.820999999996275
312432.5417,-4.174192338720178,-13.2184459755083,-3.668108469563541,-30.24867236392389,16.821999999985565
312432.5427,-8.356245367896241,-17.153111451908472,-1.5286706759816495,-33.88112696701564,16.822999999974854
312432.5437,-13.224590042946035,-20.611840936405414,0.6914155938498275,-36.585445695279994,16.823999999964144
312432.5447,-18.671577272364093,-23.541217317884975,2.9832312738301408,-38.29716623910715,16.82500000001164
312432.5457,-24.562833860293402,-25.911546449594812,5.3328852634196355,-38.991216574339305,16.82600000000093
312432.5467,-30.741655117538834,-27.714573069255284,7.721288273091902,-38.68010966870357,16.82699999999022
312432.5477,-37.033820103666514,-28.959789438278527,10.124848878184897,-37.41004486868082,16.82799999997951
312432.5487,-43.25281958672748,-29.669815871085387,12.516880104918277,-35.25540482296241,16.8289999999688
312432.5497,-49.2055097925928,-29.87540370949502,14.869425890335972,-32.3122373481329,16.82999999995809
312432.5507,-54.69819980117781,-29.61062473935663,17.15517886787877,-28.69135094664042,16.831000000005588
312432.5517,-59.54314565311157,-28.908765724405974,19.349167281628624,-24.511629256111057,16.831999999994878
312432.5527,-63.565363137686425,-27.799347839451173,21.42993733477756,-19.894088425780357,16.832999999984168
312432.5537,-66.60959149163033,-26.306549048128247,23.380040899002143,-14.957072957990652,16.833999999973457
312432.5547,-68.54715298933571,-24.449138081631393,25.185746146719424,-9.812825205580213,16.834999999962747
312432.5557,-69.28237190697735,-22.24184973538511,26.836006486684887,-4.565489699416115,16.836000000010245
312432.5567,-68.75815427430362,-19.697961833002758,28.320836288069387,0.6895550291762192,16.836999999999534
312432.5577,-66.9602994863155,-16.83269253463503,29.629336079675124,5.865289399185341,16.837999999988824
312432.5587,-63.9201254784749,-13.666937885785162,30.747673397106134,10.881929083846867,16.838999999978114
312432.5597,-59.715045648019945,-10.23082425936183,31.65735014908012,15.665500479347642,16.839999999967404
312432.5607,-54.466837732367615,-6.5665636024100715,32.33406984860829,20.146534461546924,16.840999999956694
312432.5617,-48.33748677389427,-2.730169920243102,32.74745984218071,24.25924813294928,16.84200000000419
312432.5627,-41.52265552015996,1.2082840879342795,32.86181103759887,27.941489079133945,16.84299999999348
312432.5637,-34.243021598865106,5.166033474956864,32.63788080977565,31.135587614955572,16.84399999998277
312432.5647,-26.733904507844773,9.050595135736286,32.03567676934161,33.79011510464578,16.84499999997206
312432.5657,-19.233768965835573,12.764153416547096,31.018014267623478,35.86239809020371,16.84599999996135
312432.5667,-11.972317505491421,16.208997526795592,29.55453303446552,37.32150611260486,16.847000000008848
312432.5677,-5.158960024637538,19.293522008843468,27.62578065817962,38.151331423599274,16.847999999998137
312432.5687,1.027538852949497,21.93822110083093,25.226932187438887,38.35332348795141,16.848999999987427
312432.5697,6.447487241461064,24.081085193821888,22.370721461142903,37.94843775740641,16.849999999976717
312432.5707,11.006139974790191,25.681846099975864,19.089211791800928,36.97790858966211,16.850999999966007
312432.5717,14.656568242935823,26.724614672442943,15.43412756421983,35.50255649068706,16.851999999955297
312432.5727,17.39929690160776,27.218600629508177,11.475595966750298,33.60048066667177,16.853000000002794
312432.5737,19.27873201919323,27.196786243694383,7.29929754641262,31.36315513866813,16.853999999992084
312432.5747,20.37665826372693,26.712625025507283,3.0021810561232662,28.890123087035374,16.854999999981374
312432.5757,20.803326527227366,25.83503370794337,-1.312953615725137,26.282650805945828,16.855999999970663
312432.5767,20.68685452291256,24.64212062021118,-5.543576231009933,23.63684120765561,16.856999999959953
312432.5777,20.16180744456075,23.21422770531612,-9.59373557336298,21.03680110852525,16.85800000000745
312432.5787,19.357897322967695,21.62694253071718,-13.380003070633348,18.548494535951356,16.85899999999674
312432.5797,18.38972998948135,19.944751526491572,-16.836510568445448,16.214889475748585,16.85999999998603
312432.5807,17.34843655420366,18.21595358690263,-19.91861026216097,14.052917616523205,16.86099999997532
312432.5817,16.29585885564524,16.46933809185537,-22.60480167664192,12.052622060989654,16.86199999996461
312432.5827,15.261729687138887,14.712963843647136,-24.896725948801073,10.178679052075166,16.863000000012107
312432.5837,14.244019210241825,12.93517140031893,-26.817206941772383,8.374263843134015,16.864000000001397
312432.5847,13.212333589604478,11.107740811062731,-28.406504452867726,6.567008552377382,16.864999999990687
312432.5857,12.113977185065213,9.190891765321325,-29.717118418244198,4.676593048215672,16.865999999979977
312432.5867,10.882051505031646,7.139635309650136,-30.807626848073507,2.623339506801884,16.866999999969266
312432.5877,9.444785063457353,4.910844697477242,-31.736139250491064,0.3370650340083075,16.867999999958556
312432.5887,7.735185125316084,2.4703322473167804,-32.55399086137267,-2.2346025584538047,16.869000000006054
312432.5897,5.700084549948035,-0.20079208957658498,-33.300285928183975,-5.119216638439395,16.869999999995343
312432.5907,3.3077257557181152,-3.1011446970691714,-33.99782150913549,-8.314485238295072,16.870999999984633
312432.5917,0.5531721201520615,-6.206013120646616,-34.65079365233364,-11.785738110502221,16.871999999973923
312432.5927,-2.5389497417228255,-9.466580170961992,-35.24451762204458,-15.466186350562081,16.872999999963213
312432.5937,-5.914616048216975,-12.81156904100838,-35.747199311870276,-19.260028745531834,16.87400000001071
312432.5947,-9.493442526153636,-16.151218521790458,-36.113594834048435,-23.04820469561912,16.875
312432.5957,-13.174283421432339,-19.383271138312843,-36.29020880523314,-26.696353283402903,16.87599999998929
312432.5967,-16.842845659625,-22.40045889242307,-36.22152711062377,-30.064334237090605,16.87699999997858
312432.5977,-20.38058558775175,-25.098820333214867,-35.85667201629578,-33.016518340707236,16.87799999996787
312432.5987,-23.67404062075148,-27.386093431937205,-35.15581716646031,-35.43197645511482,16.87899999995716
312432.5997,-26.623713404621128,-29.189409933879052,-34.095712677473486,-37.21369554597898,16.880000000004657
312432.6007,-29.15167445981493,-30.461570587526857,-32.67374582839764,-38.29602768535568,16.880999999993946
312432.6017,-31.20717572887371,-31.18530220906241,-30.910094533041903,-38.64972742326593,16.881999999983236
312432.6027,-32.76975994090369,-31.375075882474327,-28.84770732843642,-38.28414109830127,16.882999999972526
312432.6037,-33.849591126769795,-31.07628436231044,-26.550049146414473,-37.246359984697854,16.883999999961816
312432.6047,-34.484997493496664,-30.36181577356242,-24.09676777269644,-35.61741526977035,16.885000000009313
312432.6057,-34.73748434880075,-29.326297880422548,-21.577641426469125,-33.505852561670984,16.885999999998603
312432.6067,-34.684716881590305,-28.078500503213522,-19.08534358044433,-31.039253223577095,16.886999999987893
312432.6077,-34.41216751726056,-26.732553211772398,-16.70768958017746,-28.354448228272286,16.887999999977183
312432.6087,-34.00425169616548,-25.398745312599875,-14.520097433996423,-25.58728094508222,16.888999999966472
312432.6097,-33.5358267067656,-24.174714967436426,-12.57899437915792,-22.86280800847203,16.889999999955762
312432.6107,-33.06489534700105,-23.137800127202297,-10.916829898978843,-20.286779073217563,16.89100000000326
312432.6117,-32.62724226057529,-22.339218848836268,-9.53921990581933,-17.9391112892939,16.89199999999255
312432.6127,-32.233546100661194,-21.800580176014133,-8.424557376832485,-15.869884383337372,16.89299999998184
312432.6137,-31.869272354014686,-21.513014604553423,-7.526198857602407,-14.09814511207583,16.89399999997113
312432.6147,-31.497382118764794,-21.438975072735968,-6.777094866461098,-12.613547843460054,16.89499999996042
312432.6157,-31.063616916131753,-21.516517740197393,-6.096498180897518,-11.380595785927017,16.896000000007916
312432.6167,-30.503864963221094,-21.665649199917773,-5.398179776053178,-10.345009603237349,16.896999999997206
312432.6177,-29.75290462290684,-21.796144002697456,-4.5994277500175835,-9.441559141155015,16.897999999986496
312432.6187,-28.75367615031546,-21.81611039188041,-3.6300152765315166,-8.602567563983996,16.898999999975786
312432.6197,-27.46616739687041,-21.640524379705987,-2.4403087227617277,-7.76624694451452,16.899999999965075
312432.6207,-25.875019354629757,-21.198967591108584,-1.0077487618959908,-6.884054535381422,16.901000000012573
312432.6217,-23.995061787019477,-20.441890477252745,0.6589294741807739,-5.92636611962429,16.902000000001863
312432.6227,-21.87416825560056,-19.34487060930175,2.5181782792326093,-4.885936176399317,16.902999999991152
312432.6237,-19.593057199770072,-17.91053099687356,4.497027340275874,-3.7788369911770667,16.903999999980442
312432.6247,-17.26193954360851,-16.16800655847635,6.49533212938142,-2.6428185540794384,16.904999999969732
312432.6257,-15.014198450739993,-14.170076359027721,8.39257808444438,-1.5332838902922878,16.905999999959022
312432.6267,-12.9975572185177,-11.988293042415918,10.056710810773417,-0.5173059762502573,16.90700000000652
312432.6277,-11.36342225634609,-9.706618852792417,11.354281898609115,0.3336995376541803,16.90799999999581
312432.6287,-10.25525872312402,-7.414203334238952,12.161082079286087,0.9519047424551564,16.9089999999851
312432.6297,-9.796951433959611,-5.198000099282066,12.372388724914392,1.2808080949570522,16.90999999997439
312432.6307,-10.082114809686502,-3.1359141401855526,11.911986722744912,1.2820099826304647,16.91099999996368
312432.6317,-11.165242354847877,-1.2910988786305237,10.73922704588063,0.9403521886865113,16.912000000011176
312432.6327,-13.055435517795102,0.292108236511527,8.853555749293609,0.26691085570589723,16.913000000000466
312432.6337,-15.713237888848882,1.5902975058603652,6.29616185204957,-0.7004567053069527,16.913999999989755
312432.6347,-19.05084322922512,2.601033269459562,3.1486357204295854,-1.8990729714683452,16.914999999979045
312432.6357,-22.93566825573797,3.340929364110992,-0.4712219796759422,-3.2457284857364805,16.915999999968335
312432.6367,-27.1970084526864,3.842041689267554,-4.416069212292069,-4.642894413467752,16.916999999957625
312432.6377,-31.635251673362692,4.14702600626258,-8.517603697530301,-5.986274578808668,16.918000000005122
312432.6387,-36.03293110409626,4.303620776416865,-12.596350371324107,-7.172988500040263,16.918999999994412
312432.6397,-40.16677244226025,4.359067576409775,-16.47187446918398,-8.109622770651493,16.919999999983702
312432.6407,-43.819839533595065,4.355070915505765,-19.97263515829997,-8.719408034055913,16.92099999997299
312432.6417,-46.7929105433528,4.323826972943524,-22.94475929657963,-8.94787007820845,16.92199999996228
312432.6427,-48.91431790220548,4.285524860805918,-25.2591407498488,-8.76645660644869,16.92300000000978
312432.6437,-50.04764790969834,4.247557786659566,-26.816444416198905,-8.173840482574139,16.92399999999907
312432.6447,-50.09690269200703,4.205492179231355,-27.5497982086037,-7.19482583663574,16.92499999998836
312432.6457,-49.008957293980366,4.145649895993731,-27.425170838853617,-5.877013161846888,16.92599999997765
312432.6467,-46.77337569160922,4.048981758108775,-26.439637945268036,-4.285591113563523,16.926999999966938
312432.6477,-43.41985988810792,3.8957678543222833,-24.617914972495505,-2.496795870143743,16.927999999956228
312432.6487,-39.01377733375025,3.6705858336493145,-22.007666494538462,-0.5906973563532065,16.929000000003725
312432.6497,-33.650329627000644,3.3669523705184723,-18.674177229548757,1.3559754001789164,16.929999999993015
312432.6507,-27.447981579176435,2.9910688997967716,-14.694984252709947,3.2762742978419848,16.930999999982305
312432.6517,-20.541762447955985,2.5641881567639455,-10.155023296268665,5.118126132098674,16.931999999971595
312432.6527,-13.07698502452847,2.123254658747366,-5.142740827700802,6.847611385142598,16.932999999960884
312432.6537,-5.20381353217295,1.7196465719036285,0.25252068970599295,8.450144836391265,16.934000000008382
312432.6547,2.9270373578033793,1.4160411894319385,5.941728785727232,9.92948641229566,16.93499999999767
312432.6557,11.16735518359757,1.281622198441775,11.83600397920627,11.304726673876178,16.93599999998696
312432.6567,19.373279961868473,1.3860245347862772,17.845317537253138,12.605590959744479,16.93699999997625
312432.6577,27.40614181895186,1.792554138213959,23.87640668832765,13.866570342929814,16.93799999996554
312432.6587,35.13258560507584,2.5513110004171873,29.83037293402278,15.120500714519451,16.93900000001304
312432.6597,42.424347633406285,3.6928750855780144,35.60047945195741,16.392263020332074,16.94000000000233
312432.6607,49.15806560184422,5.223182338537771,41.070656043978055,17.693263490133685,16.940999999991618
312432.6617,55.21546934090433,7.120124602019999,46.115155259146874,19.017274519535952,16.941999999980908
312432.6627,60.48422288334614,9.332261323189458,50.599687636527044,20.33808272827116,16.942999999970198
312432.6637,64.85957763811378,11.779846079918897,54.38420908820248,21.609213972676898,16.943999999959487
312432.6647,68.24686570796905,14.358164684377954,57.32735493102675,22.765803079326933,16.945000000006985
312432.6657,70.56472700800065,16.942973566647698,59.29233108985658,23.728468442739825,16.945999999996275
312432.6667,71.74883940920563,19.397637187003614,60.15390228203146,24.408858449468575,16.946999999985565
312432.6677,71.75582179974066,21.58140955112205,59.80597703491471,24.71637647872614,16.947999999974854
312432.6687,70.56691699631219,23.358202193409163,58.169194633285066,24.56547919639448,16.948999999964144
312432.6697,68.19104211699454,24.605138989503516,55.19787949621746,23.88288944230069,16.95000000001164
312432.6707,64.66682091649822,25.220220684150217,50.885748510909586,22.61407488432954,16.95100000000093
312432.6717,60.06328335447606,25.128506600467983,45.26983505317098,20.72841526334491,16.95199999999022
312432.6727,54.47902536979338,24.286359102651762,38.432222608973426,18.222606959908514,16.95299999997951
312432.6737,48.03975564858192,22.683474287807588,30.499348903279056,15.122021021590786,16.9539999999688
312432.6747,40.89430252453013,20.342622533802963,21.63883233856433,11.47992298799404,16.95499999995809
312432.6757,33.209298077653365,17.317225320745077,12.053968333973163,7.37466083850881,16.956000000005588
312432.6767,25.1628831595092,13.68708047595975,1.9762255253211853,2.9051117544946874,16.956999999994878
312432.6777,16.93787321805737,9.552698847970598,-8.343776060337046,-1.815168775328123,16.957999999984168
312432.6787,8.714880089359383,5.028817226312251,-18.646214450029298,-6.664545318887488,16.958999999973457
312432.6797,0.6658929974072111,0.23769596698516715,-28.672297152714886,-11.520047624688639,16.959999999962747
312432.6807,-7.051218861308063,-4.697207944270007,-38.174130675703104,-16.263671709444594,16.961000000010245
312432.6817,-14.296906393402347,-9.65667775729644,-46.92364128547,-20.78771468945995,16.961999999999534
312432.6827,-20.95259210006041,-14.529894726995108,-54.720065526943124,-24.99874071654909,16.962999999988824
312432.6837,-26.921672263923647,-19.2170890854544,-61.3956711334512,-28.8199331863595,16.963999999978114
312432.6847,-32.12893085670466,-23.630636233411963,-66.8195329589006,-32.191767800779445,16.964999999967404
312432.6857,-36.51858287426266,-27.694729204756044,-70.89935777490915,-35.07112329430099,16.965999999956694
312432.6867,-40.05130026037687,-31.34391791917166,-73.58150944237144,-37.429112610394355,16.96700000000419
312432.6877,-42.70067342663591,-34.52092883359839,-74.84951694410096,-39.248049638444016,16.96799999999348
312432.6887,-44.449614537899215,-37.17425235925863,-74.72144003882512,-40.51805134823831,16.96899999998277
312432.6897,-45.28720866433895,-39.25600199902965,-73.24651317075298,-41.23380324254772,16.96999999997206
312432.6907,-45.20646436848779,-40.72050670522628,-70.5014850950705,-41.391984303693555,16.97099999996135
312432.6917,-44.20331062588795,-41.524000746556204,-66.58702205617368,-40.98975907760972,16.972000000008848
312432.6927,-42.27704173451857,-41.62563343601778,-61.624453774684426,-40.02460821858501,16.972999999998137
312432.6937,-39.43223998325144,-40.989849188584635,-55.75302548810779,-38.49559879506777,16.973999999987427
312432.6947,-35.68202429719332,-39.59000460211177,-49.12769013838275,-36.40600970763186,16.974999999976717
312432.6957,-31.052300224248654,-37.41291310736481,-41.91734801810616,-33.76704538338021,16.975999999966007
312432.6967,-25.586540425482994,-34.463858241504234,-34.303331858178254,-30.60221210445538,16.976999999955297
312432.6977,-19.35052104027691,-30.77151038131841,-26.4778565344173,-26.951813454677637,16.978000000002794
312432.6987,-12.436389898292544,-26.392131346446302,-18.642113993690806,-22.876958110183317,16.978999999992084
312432.6997,-4.965454520765126,-21.412463774935866,-11.003700991488728,-18.462472933886993,16.979999999981374
312432.7007,2.910847597558171,-15.95077854677929,-3.7731202222279916,-13.818179209492325,16.980999999970663
312432.7017,11.012201590831756,-10.155688412941394,2.840810121303324,-9.078115481607325,16.981999999959953
312432.7027,19.133116175416994,-4.202518113990199,8.63667645704059,-4.3974662671637565,16.98300000000745
312432.7037,27.049086594978146,1.7127654904051424,13.427211110872559,0.05283396101327104,16.98399999999674
312432.7047,34.52500793083625,7.381834914592455,17.04679514357285,4.093627232521208,16.98499999998603
312432.7057,41.32540890915912,12.594051373297031,19.359323333769517,7.546776529004435,16.98599999997532
312432.7067,47.22588549627608,17.147652708528597,20.265919144167363,10.245525605592151,16.98699999996461
312432.7077,52.02496852034363,20.861313336760137,19.71191494463794,12.045228398560734,16.988000000012107
312432.7087,55.55557494026011,23.585234318045774,17.692490331222768,12.83362094734995,16.989000000001397
312432.7097,57.69517768558006,25.21091676503203,14.25639445304312,12.53979863294815,16.989999999990687
312432.7107,58.37388756629338,25.678839412511035,9.507267111873128,11.141125323164019,16.990999999979977
312432.7117,57.57976940567873,24.98339673023991,3.6022130177477996,8.667434640424027,16.991999999969266
312432.7127,55.360903733819804,23.174646765121356,-3.252536014316354,5.202076458947431,16.992999999958556
312432.7137,51.82393996991533,20.356651996464254,-10.808829117438247,0.8795977816636379,16.994000000006054
312432.7147,47.12914762866168,16.68245214763466,-18.78641635349283,-4.1198938476702915,16.994999999995343
312432.7157,41.48223677396569,12.345963390546583,-26.884914881974733,-9.57937669767408,16.995999999984633
312432.7167,35.12346520064297,7.5713319482177885,-34.79727560205139,-15.256025788668508,16.996999999973923
312432.7177,28.314756599867454,2.6004619179589072,-42.22396841760798,-20.894048540478906,16.997999999963213
312432.7187,21.325703571493936,-2.3204289203902286,-48.887024888331766,-26.23837027444345,16.99900000001071
312432.7197,14.419409064199089,-6.954306479337338,-54.54306257207018,-31.0482310858704,17.0
312432.7207,7.839123034502671,-11.085960824984733,-58.9944684840213,-35.10976858529259,17.00099999998929
312432.7217,1.7965578830002107,-14.532960633620501,-62.09803661678512,-38.246749046140565,17.00199999997858
312432.7227,-3.537376731651954,-17.154238032259137,-63.77052760582691,-40.32876438943051,17.00299999996787
312432.7237,-8.038879044598522,-18.855816858444022,-63.990833753713964,-41.276420109536275,17.00399999995716
312432.7247,-11.634298988430176,-19.59342761155527,-62.798672424753235,-41.06328107047777,17.005000000004657
312432.7257,-14.299877237747301,-19.37199595812874,-60.2899757835945,-39.71459662095037,17.005999999993946
312432.7267,-16.058390341838724,-18.242227533619555,-56.609374972406485,-37.303071375539496,17.006999999983236
312432.7277,-16.97314181918555,-16.294719954261915,-51.94037332722374,-33.94216216312062,17.007999999972526
312432.7287,-17.13992383109274,-13.65219626467187,-46.49395020282753,-29.77754703144976,17.008999999961816
312432.7297,-16.677699666492675,-10.460559711854613,-40.49642271525824,-24.977515527276246,17.010000000009313
312432.7307,-15.718814392226276,-6.8795104410592,-34.1774107822971,-19.72306335575863,17.010999999998603
312432.7317,-14.399526543081166,-3.073439221386412,-27.758700638283745,-14.198438100558244,17.011999999987893
312432.7327,-12.851570988664886,0.7967734793650307,-21.444688831811593,-8.582781635128283,17.012999999977183
312432.7337,-11.195321537971415,4.580562356765558,-15.414923384733575,-3.0433607922616157,17.013999999966472
312432.7347,-9.53493599427176,8.142768762195574,-9.819056670723842,2.2693128253421064,17.014999999955762
312432.7357,-7.955654590757691,11.366892672680404,-4.774304257196201,7.224380760453001,17.01600000000326
312432.7367,-6.523205425187327,14.156568570687888,-0.3652855968625751,11.711664214512906,17.01699999999255
312432.7377,-5.285068258458991,16.435498007103078,3.3540740862926524,15.641110247317144,17.01799999998184
312432.7387,-4.273179727171445,18.146204501414147,6.357058390597968,18.941087843663215,17.01899999997113
312432.7397,-3.5075440710072328,19.248060673983865,8.639672121898597,21.556049035382433,17.01999999996042
312432.7407,-3.000154429338828,19.715066126486143,10.215774393028594,23.444093852578902,17.021000000007916
312432.7417,-2.7586352673984718,19.533826452417443,11.112432387984333,24.574939016178146,17.021999999997206
312432.7427,-2.7890848579365892,18.70210363534684,11.366012013742582,24.928694340163315,17.022999999986496
312432.7437,-3.097720080066025,17.22818610921556,11.019387041828573,24.49570898765938,17.023999999975786
312432.7447,-3.691090764940667,15.131177334220904,10.120477753076386,23.27757792485349,17.024999999965075
312432.7457,-4.574819923357767,12.442142089008444,8.72214202732338,21.289216141223662,17.026000000012573
312432.7467,-5.751019499874738,9.205897996997207,6.88325642370227,18.561734624685453,17.027000000001863
312432.7477,-7.214708417619679,5.483113403895675,4.670661840968871,15.145706982200716,17.027999999991152
312432.7487,-8.949701795364199,1.3522862331697114,2.1615251685097085,11.114315401708987,17.028999999980442
312432.7497,-10.924532004473056,-3.088857709634459,-0.5544019346934743,6.565821213119196,17.029999999969732
312432.7507,-13.088993411350954,-7.722989208376935,-3.3731557953030222,1.6248246562069961,17.030999999959022
312432.7517,-15.37186907504921,-12.414191073376104,-6.1760417740802165,-3.5581398594788975,17.03200000000652
312432.7527,-17.680301800217055,-17.010610519521794,-8.830592004587475,-8.808989682931863,17.03299999999581
312432.7537,-19.901122667450444,-21.348835816090993,-11.19321458456302,-13.934598157675406,17.0339999999851
312432.7547,-21.90426195393109,-25.259905256853045,-13.113566060596474,-18.729349640398578,17.03499999997439
312432.7557,-23.548158877947053,-28.5766748474008,-14.44048597597549,-22.983468370959795,17.03599999996368
312432.7567,-24.6868788405224,-31.142105993164996,-15.029149336590033,-26.49265125635484,17.037000000011176
312432.7577,-25.178460995085015,-32.81790352843557,-14.74893943984273,-29.068377887104134,17.038000000000466
312432.7587,-24.893874295456474,-33.492852205710484,-13.49143596874145,-30.548167163716826,17.038999999989755
312432.7597,-23.72587195431524,-33.09017622725365,-11.177863234153989,-30.805010302468293,17.039999999979045
312432.7607,-21.597012248424612,-31.57328585824338,-7.765356689424967,-29.755240042042722,17.040999999968335
312432.7617,-18.466161013073705,-28.949375775020616,-3.251481585621993,-27.364194149763314,17.041999999957625
312432.7627,-14.332904208198867,-25.270493697236468,2.3234312463835876,-23.649189744055203,17.043000000005122
312432.7637,-9.239467240387194,-20.63189183005837,8.876393711791332,-18.67952955508237,17.043999999994412
312432.7647,-3.269945334554944,-15.167690421267642,16.284374534775306,-12.573493572631596,17.044999999983702
312432.7657,3.453123771436606,-9.0441026008793,24.38927477502487,-5.4925083948015345,17.04599999997299
312432.7667,10.774589097379275,-2.450672349288003,33.00492773176585,2.3670898639663145,17.04699999996228
312432.7677,18.51446170945125,4.409855945065724,41.92562492212431,10.784095454171016,17.04800000000978
312432.7687,26.47702325845475,11.332303004382918,50.93555478696071,19.523537034664294,17.04899999999907
312432.7697,34.46055639099053,18.119669759114764,59.81848199219758,28.348037181280827,17.04999999998836
312432.7707,42.266954146976474,24.592832263205185,68.36699701187158,37.028619488905825,17.05099999997765
312432.7717,49.710503125115274,30.598629187597645,76.39072649448967,45.35422646137136,17.051999999966938
312432.7727,56.62523714939471,36.01579661302701,83.7230074606099,53.13934548016738,17.052999999956228
312432.7737,62.87041310134334,40.75839332311029,90.22568058477289,60.229324204392455,17.054000000003725
312432.7747,68.33385202509513,44.77657750455981,95.79183410582628,66.50317311087595,17.054999999993015
312432.7757,72.93309670383705,48.05482264592949,100.3465128235269,71.87388094373722,17.055999999982305
312432.7767,76.61454049774936,50.60787558376414,103.8455785718361,76.28648705214096,17.056999999971595
312432.7777,79.35086108741653,52.474943297125336,106.27305347453698,79.71434248618048,17.057999999960884
312432.7787,81.13722961338311,53.71273043537468,107.63738222793467,82.15413186433253,17.059000000008382
312432.7797,81.9868479437308,54.3880245388822,107.9671059108754,83.62030769786548,17.05999999999767
312432.7807,81.92638769596847,54.57053412855991,107.30644367935858,84.1396012643711,17.06099999998696
312432.7817,80.99186386902889,54.32662635796748,105.71123169348428,83.74621906470195,17.06199999997625
312432.7827,79.2253795207321,53.71449221493531,103.24557728073061,82.47821780413958,17.06299999996554
312432.7837,76.67303748534277,52.78110060005568,99.97946147884697,80.3753861621854,17.06400000001304
312432.7847,73.38414664744742,51.561104885181365,95.98737871223328,77.47876563605301,17.06500000000233
312432.7857,69.41167243483572,50.07765662998367,91.34795419098045,73.83173588701206,17.065999999991618
312432.7867,64.813713387548,48.34488190137259,86.14434363548412,69.4823938465504,17.066999999980908
312432.7877,59.65564610551321,46.37160595452705,80.46511069843946,64.48679089352923,17.067999999970198
312432.7887,54.01248470146757,44.16578872986243,74.40520673700988,58.91247613821198,17.068999999959487
312432.7897,47.970958593800496,41.73906881046527,68.06665314380682,52.841738790488634,17.070000000006985
312432.7907,41.63082885647375,39.110813321300164,61.55855124960956,46.37395506757992,17.070999999996275
312432.7917,35.10503696034647,36.311135283287015,54.996116711878216,39.626524493844606,17.071999999985565
312432.7927,28.518403040737855,33.38246113915243,48.49854718856958,32.73401920306573,17.072999999974854
312432.7937,22.004750901980763,30.379396662462458,42.18567255424882,25.845354186150285,17.073999999964144
312432.7947,15.702516879089064,27.366831832628847,36.17349133772286,19.11899769353066,17.07500000001164
312432.7957,9.749080200164563,24.41642436122833,30.56884909190403,12.716457594319877,17.07600000000093
312432.7967,4.274214140799248,21.601786594575294,25.463647589878153,6.794479048463784,17.07699999999022
312432.7977,-0.6068176844873653,18.992852195209593,20.92907319498532,1.4965505349406707,17.07799999997951
312432.7987,-4.799921173008008,16.650001493574884,17.010386709683733,-3.0555780588582775,17.0789999999688
312432.7997,-8.237974273009227,14.618566949448825,13.72281805325417,-6.769621676851553,17.07999999995809
312432.8007,-10.885206553688395,12.924318166124872,11.04905500346555,-9.589019022768982,17.081000000005588
312432.8017,-12.73969694818065,11.570441336168297,8.938709184907154,-11.49711436656372,17.081999999994878
312432.8027,-13.83368699101829,10.536389189771336,7.309992954886017,-12.518815169764606,17.082999999984168
312432.8037,-14.23159764439617,9.778798265334366,6.053660764828761,-12.7194871793799,17.083999999973457
312432.8047,-14.025844676683809,9.234468493656045,5.039074179323027,-12.201083795159207,17.084999999962747
312432.8057,-13.330750141333494,8.82519581593841,4.122058988652467,-11.095745978389703,17.086000000010245
312432.8067,-12.27502556198286,8.464062235823173,3.1540537782410483,-9.55733012959099,17.086999999999534
312432.8077,-10.993437876810525,8.062637975380147,1.9919182811530594,-7.7515033136972775,17.087999999988824
312432.8087,-9.618347936145392,7.538452317417975,0.5076899678060642,-5.845170762533071,17.088999999978114
312432.8097,-8.27182473260205,6.822053268985863,-1.4024427601761411,-3.9960578927697608,17.089999999967404
312432.8107,-7.058984315300454,5.863005341850741,-3.810639474249004,-2.343252770638186,17.090999999956694
312432.8117,-6.0630849637258954,4.634267068467457,-6.751964017989071,-0.9994266321883993,17.09200000000419
312432.8127,-5.342740526111524,3.1345367309639816,-10.221427798552599,-0.04529813757651341,17.09299999999348
312432.8137,-4.931408123425857,1.38834220593896,-14.173754830185757,0.47329409967992536,17.09399999998277
312432.8147,-4.839084805219935,-0.5561391424260999,-18.525886292875473,0.5455775083249103,17.09499999997206
312432.8157,-5.055932230379165,-2.6313321672883916,-23.162022487835717,0.1933966476278748,17.09599999996135
312432.8167,-5.557360738197459,-4.756194578839102,-27.940797087128157,-0.5335383005130375,17.097000000008848
312432.8177,-6.309963463042411,-6.8432764581350956,-32.7040109062137,-1.5641825733884556,17.097999999998137
312432.8187,-7.277612121986678,-8.806253367037247,-37.28623535487166,-2.8138060542555814,17.098999999987427
312432.8197,-8.427017412938351,-10.56723498250771,-41.524539878768316,-4.192025818576032,17.099999999976717
312432.8207,-9.73212024160728,-12.063175027310896,-45.26760800598197,-5.610484362198727,17.100999999966007
312432.8217,-11.176809635643574,-13.25079651354909,-48.383581725828115,-6.989502942358872,17.101999999955297
312432.8227,-12.755646821438768,-14.10959047991506,-50.7661063515364,-8.26316871414802,17.103000000002794
312432.8237,-14.4724945601668,-14.642632580915404,-52.33822478759033,-9.382492156808052,17.103999999992084
312432.8247,-16.33718465203933,-14.875172091199813,-53.05397405757666,-10.316479435712564,17.104999999981374
312432.8257,-18.360581017349613,-14.851161804926006,-52.89774834028124,-11.051181837733399,17.105999999970663
312432.8267,-20.54858807897121,-14.628094268921439,-51.88169131413647,-11.586989554079798,17.106999999959953
312432.8277,-22.89579433259344,-14.270670774051387,-50.04154743948238,-11.934609614475102,17.10800000000745
312432.8287,-25.37951390883549,-13.843939025427145,-47.43152129648427,-12.110290879060363,17.10899999999674
312432.8297,-27.954985903142905,-13.40658290122763,-44.11875540906768,-12.130920915556139,17.10999999998603
312432.8307,-30.552410847968307,-13.005028683496546,-40.178035103870265,-12.009614769910188,17.11099999997532
312432.8317,-33.076351970010535,-12.66894853017122,-35.68726513129153,-11.752345230863936,17.11199999996461
312432.8327,-35.40781881692206,-12.408601927008451,-30.72414437745348,-11.356035914518216,17.113000000012107
312432.8337,-37.40910125813615,-12.214273035416815,-25.364304745136543,-10.808365866246753,17.114000000001397
312432.8347,-38.931155668813744,-12.057854005913217,-19.68099499782003,-10.089335355215116,17.114999999990687
312432.8357,-39.823087208659466,-11.896411665571474,-13.746199303030396,-9.174437755578584,17.115999999979977
312432.8367,-39.94304713319429,-11.677378220462817,-7.632903186104337,-8.03909313254888,17.116999999969266
312432.8377,-39.16969405588235,-11.344844954608948,-1.4180750142883394,-6.6638451574058095,17.117999999958556
312432.8387,-37.41327035355989,-10.846327209197126,4.814165861271802,-5.039720561833074,17.119000000006054
312432.8397,-34.625330417163546,-10.139320127027192,10.969762172749121,-3.173110663938048,17.119999999995343
312432.8407,-30.806229603712268,-9.196982673367934,16.94285731760723,-1.0895623970336845,17.120999999984633
312432.8417,-26.00963696664485,-8.012370690455157,22.61531942883289,1.1640402751144094,17.121999999973923
312432.8427,-20.34355885678066,-6.600780187968536,27.85797380615701,3.519273414516421,17.122999999963213
312432.8437,-13.96763534890977,-4.999946029682188,32.53369017088737,5.8881250789932995,17.12400000001071
312432.8447,-7.086773214790495,-3.2680506161245164,36.502273083407786,8.167063185788727,17.125
312432.8457,0.05851892729549287,-1.4797114771015374,39.62690400162,10.242963398326927,17.12599999998929
312432.8467,7.204452685104834,0.27968526389427795,41.78170220333951,12.00044494149737,17.12699999997858
312432.8477,14.078075392939946,1.9207763679473338,42.85982779136791,13.33000677095135,17.12799999996787
312432.8487,20.412164050335928,3.3574983274875483,42.78145829802979,14.136257941408562,17.12899999995716
312432.8497,25.95981716077599,4.514162299302556,41.500940934167815,14.34550486446127,17.130000000004657
312432.8507,30.507689804466974,5.3316594048136166,39.01245908797645,13.911998230647182,17.130999999993946
