TimeStamp,ECR,FCR,ECU,FCU,time_index
312471.7197,-48.67342415706726,47.32068956671772,-35.528575925620615,44.031746298605114,56.0
312471.7207,-75.7370720390852,15.547707118706438,-51.71601985262223,-9.929134204679759,56.00099999998929
312471.7217,-103.91714830494305,-18.738613751631238,-69.34659767052956,-67.07391121403278,56.00199999997858
312471.7227,-133.17507001604753,-55.642711613866766,-88.6325149841923,-127.37409133254411,56.00299999996787
312471.7237,-163.41507236157526,-95.18519349870324,-109.72191526254032,-190.67482404178358,56.00399999995716
312471.7247,-194.47510543594402,-137.28268109485208,-132.6818210953651,-256.6699322167408,56.00500000000466
312471.7257,-226.12028421417023,-181.73105092453105,-157.4834770547683,-324.8827343956208,56.005999999993946
312471.7267,-258.0390171074455,-228.19284288575133,-183.99063747919536,-394.65377781916374,56.006999999983236
312471.7277,-289.8418936275435,-276.1895189710152,-211.95131875449124,-465.13638950636596,56.007999999972526
312471.7287,-321.0634011428806,-325.09915618761113,-240.9935147181116,-535.3007178204767,56.008999999961816
312471.7297,-351.16655221755525,-374.1600464479836,-270.62534327837585,-603.9466752082747,56.01000000000931
312471.7307,-379.5505211789265,-422.4805416706061,-300.24003822358543,-669.7258999724861,56.0109999999986
312471.7317,-405.56139326372613,-469.0553152485789,-329.12610913814564,-731.1725287885012,56.01199999998789
312471.7327,-428.5061048657358,-512.788004745276,-356.48285393226234,-786.7422136786918,56.01299999997718
312471.7337,-447.66958559173037,-552.5199530199948,-381.4412173289915,-834.8584340783443,56.01399999996647
312471.7347,-462.33499439965664,-587.0644797579521,-403.0897459105965,-873.9647594247645,56.01499999995576
312471.7357,-471.8067727874183,-615.2458030214249,-420.50510458835254,-902.5813295963029,56.01600000000326
312471.7367,-475.4360256148371,-635.941407956201,-432.78630659645063,-919.3634641584214,56.01699999999255
312471.7377,-472.6475002297571,-648.1263497780619,-439.0914917500437,-923.1600150486998,56.01799999998184
312471.7387,-462.96718918950415,-650.9177070366295,-438.6757928511394,-913.0688705198157,56.01899999997113
312471.7397,-446.0493574522223,-643.6171966769219,-430.9285870531307,-888.4869284416976,56.01999999996042
312471.7407,-421.701619465964,-625.7498508409217,-415.408266192739,-849.1519068876842,56.021000000007916
312471.7417,-389.9065915171506,-597.0966584008197,-391.8726021251666,-795.1735635261481,56.021999999997206
312471.7427,-350.83864163698695,-557.7192063223938,-360.30284762522314,-727.052256211258,56.022999999986496
312471.7437,-304.87436730848333,-507.97462203428915,-320.91990879925254,-645.6832864912701,56.023999999975786
312471.7447,-252.59565443113578,-448.5195120525437,-274.1912486362584,-552.3461039645778,56.024999999965075
312471.7457,-194.78450286943473,-380.3020969949208,-220.82761931218684,-448.6781790962532,56.02600000001257
312471.7467,-132.40922694467469,-304.5423312263638,-161.76924832371415,-336.6341321605333,56.02700000000186
312471.7477,-66.60212622939801,-222.70043059199955,-98.16168656198784,-218.43148686103416,56.02799999999115
312471.7487,1.3707617181060363,-136.43487216554854,-31.322124766323164,-96.48514692323624,56.02899999998044
312471.7497,70.14670863431562,-47.55153148550752,37.302444823565914,26.666677546452576,56.02999999996973
312471.7507,138.30856835090069,42.05385745905283,106.18334483983463,148.44188392024446,56.03099999995902
312471.7517,204.4303315053538,130.45733407355243,173.76233884527718,266.29571751544324,56.03200000000652
312471.7527,267.12376804391727,215.7695986554908,238.50524574944737,377.80022300076723,56.03299999999581
312471.7537,325.08385384191325,296.19723723112446,298.9544266086762,480.7183984273858,56.0339999999851
312471.7547,377.1307205988468,370.09945908002794,353.77759928668314,573.0698537047404,56.03499999997439
312471.7557,422.24606293199145,436.03778638514115,401.8106691657095,653.1852678465847,56.03599999996368
312471.7567,459.6022709971245,492.8165525559441,442.0926412072958,719.7475816752533,56.037000000011176
312471.7577,488.58300790367736,539.5126078725348,473.89117279551107,771.8186127420421,56.038000000000466
312471.7587,508.7944866103979,575.4932616698743,496.71790240061466,808.8505882075774,56.038999999989755
312471.7597,520.06728237324,600.4221669799765,510.3333053022573,830.6829071900809,56.039999999979045
312471.7607,522.4491020874468,614.2535311790484,514.7414413320449,837.5252145347724,56.040999999968335
312471.7617,516.1894784470375,617.2156697858953,510.1755286880651,829.9285443433087,56.041999999957625
312471.7627,501.71782474303177,609.7854684313289,497.07576404766877,808.746831647179,56.04300000000512
312471.7637,479.61664082222353,592.6557445548249,476.0611805934958,775.0914612651025,56.04399999999441
312471.7647,450.59187577893977,566.6977785319585,447.8975688314229,730.281702651086,56.0449999999837
312471.7657,415.4425120876323,532.9213971909995,413.4635669569574,675.7938601775538,56.04599999997299
312471.7667,375.03133454773564,492.4349364516113,373.71695577774886,613.2117557808518,56.04699999996228
312471.7677,330.2585935305783,446.4071920443312,329.66297687041794,544.1807754436838,56.04800000000978
312471.7687,282.03988589645746,396.0331081213795,282.3261516102093,470.36718605107995,56.04899999999907
312471.7697,231.28909019577404,342.5044842390635,232.726642427019,393.4238092994171,56.04999999998836
312471.7707,178.90664621674523,286.9864417119808,181.86170317528536,314.9624770738216,56.05099999997765
312471.7717,125.77290964997066,230.59982655191587,130.69225482361264,236.53304444141918,56.05199999996694
312471.7727,72.74579011694594,174.40918607364753,80.13413938081446,159.6081577830675,56.05299999995623
312471.7737,20.661442770196086,119.41548580324955,31.053190733379644,85.57251664480005,56.054000000003725
312471.7747,-29.6635283259578,66.5523725851923,-15.737048058066783,15.715068469643168,56.054999999993015
312471.7757,-77.43005143649022,16.6845690865193,-59.47630832396687,-48.7775387716344,56.055999999982305
312471.7767,-121.85642882138187,-29.393078037509323,-99.45865660327195,-106.82784095051106,56.056999999971595
312471.7777,-162.18151669944373,-70.95727594296335,-135.03488816727085,-157.47610886931693,56.057999999960884
312471.7787,-197.67236047765596,-107.35982152057908,-165.61724942282754,-199.89147228447573,56.05900000000838
312471.7797,-227.63690835058748,-138.03375652527396,-190.6871125121137,-233.38598358079375,56.05999999999767
312471.7807,-251.44184288458504,-162.50244586564287,-209.8057748322916,-257.43138650987646,56.06099999998696
312471.7817,-268.5349499969022,-180.39138574705473,-222.62807160841768,-271.6777534460631,56.06199999997625
312471.7827,-278.47084555862,-191.44206095540528,-228.91801870727002,-275.97261437850653,56.06299999996554
312471.7837,-280.9383589251114,-195.52674231710233,-228.565292654442,-270.3787799859214,56.06400000001304
312471.7847,-275.78748137995194,-192.66279016387645,-221.60104733295645,-255.18880687562782,56.06500000000233
312471.7857,-263.05356634926414,-183.02484171038662,-208.21139500373636,-230.93399751022667,56.06599999999162
312471.7867,-242.9764432061069,-166.95323089680772,-188.74686366351088,-198.38598408711306,56.06699999998091
312471.7877,-216.01228621634993,-144.95712471048307,-163.7262895190712,-158.5493081596715,56.0679999999702
312471.7887,-182.83645519456195,-117.71115090378633,-133.83390361137972,-112.64394980350292,56.06899999995949
312471.7897,-144.3360678504194,-86.044714274106,-99.90880216018459,-62.0774378521899,56.070000000006985
312471.7907,-101.59173368022866,-50.923715779017506,-62.926515618834195,-8.406928890087762,56.070999999996275
312471.7917,-55.848622356286334,-13.424955351999081,-23.97296740516263,46.707588094022945,56.071999999985565
312471.7927,-8.477796094334995,25.295934565570786,15.788309345366542,101.55708956359292,56.072999999974854
312471.7937,39.0705556070276,64.04166180664836,55.154299326924566,154.44184828616378,56.073999999964144
312471.7947,85.31973608779954,101.61376978016933,92.92414318076494,203.73139987536376,56.07500000001164
312471.7957,128.8223217994873,136.85438179459157,127.94214659750503,247.92302736056203,56.07600000000093
312471.7967,168.2161433535186,168.6869862076859,159.1398705201146,285.6956523238943,56.07699999999022
312471.7977,202.27744964150955,196.1540843501168,185.57502951359834,315.95625318972725,56.07799999997951
312471.7987,229.96838739103907,218.4497134207483,206.46510682624375,337.8763690996008,56.0789999999688
312471.7997,250.47627238506092,234.94518849355762,221.21392408008393,350.9168544464025,56.07999999995809
312471.8007,263.2426368142487,245.20685147002825,229.42985242046637,354.83977447003883,56.08100000000559
312471.8017,267.9806686617655,249.00513194140498,230.93488286039033,349.70711806117254,56.08199999999488
312471.8027,264.6803645986862,246.3147725716135,225.764343633629,335.86678907320226,56.08299999998417
312471.8037,253.6014450525504,237.30660623706748,214.15761731710157,313.92706364118084,56.08399999997346
312471.8047,235.2547772178539,222.3317534249491,196.54072834608516,284.7213173422997,56.08499999996275
312471.8057,210.37367197740542,201.89950245644553,173.50210610769392,249.2652929064217,56.086000000010245
312471.8067,179.87692535186295,176.65041715380025,145.7631522550989,208.7094709235043,56.086999999999534
312471.8077,144.82583617938465,147.326372420392,114.14543565807456,164.28921210574197,56.087999999988824
312471.8087,106.37763332708492,114.73924487186665,79.53639799748875,117.2752647300767,56.088999999978114
312471.8097,65.73778445391852,79.73989096945546,42.85538191234628,68.92699321982965,56.089999999967404
312471.8107,24.113542759100234,43.18884638821679,5.021606316031178,20.450313061029696,56.09099999995669
312471.8117,-17.32916261170945,5.929902369562644,-33.07456721961955,-27.038148808995192,56.09200000000419
312471.8127,-57.503745241480786,-31.23261283237547,-70.59607855122792,-72.5396680209911,56.09299999999348
312471.8137,-95.434574744554,-67.55236504879355,-106.77870328403876,-115.194339955951,56.09399999998277
312471.8147,-130.2813414370563,-102.35520878482006,-140.94543580225658,-154.2943272905134,56.09499999997206
312471.8157,-161.35580294700716,-135.04919027913724,-172.51582881207486,-189.2898987734223,56.09599999996135
312471.8167,-188.13098713868504,-165.130737899083,-201.01069212076402,-219.7890629984178,56.09700000000885
312471.8177,-210.24331229604002,-192.18757912050293,-226.05277565383952,-245.5518369880855,56.09799999999814
312471.8187,-227.48839486725785,-215.89900516966532,-247.36420110269762,-266.48031304058287,56.09899999998743
312471.8197,-239.8115354545492,-236.0341108125792,-264.7614612557204,-282.6057031115787,56.09999999997672
312471.8207,-247.2940017717332,-252.44857817698323,-278.1487821525686,-294.0734615236134,56.10099999996601
312471.8217,-250.13626739872763,-265.08046595772805,-287.5105537021016,-301.1274344927708,56.1019999999553
312471.8227,-248.63932823438137,-273.94532851728036,-292.9033973568001,-304.0937838151517,56.103000000002794
312471.8237,-243.18512018164967,-279.1308440901933,-294.4482757336961,-303.3652088330499,56.103999999992084
312471.8247,-234.21692002614512,-280.7909972662953,-292.32288010047614,-299.3857713918204,56.10499999998137
312471.8257,-222.22044548445908,-279.1397547462967,-286.7543770161167,-292.6364355285306,56.10599999997066
312471.8267,-207.70619748021502,-274.4441069120513,-278.0124710240959,-283.6212845881442,56.10699999995995
312471.8277,-191.19342252776852,-267.01632725773743,-266.4026569130274,-272.85428446584496,56.10800000000745
312471.8287,-173.1959265561405,-257.205327493126,-252.25949757179913,-260.8464269864643,56.10899999999674
312471.8297,-154.20985027070614,-245.3870529230641,-235.93977082218157,-248.09310965951062,56.10999999998603
312471.8307,-134.70342280799753,-231.95396070328877,-217.81537442901637,-235.06167896807688,56.11099999997532
312471.8317,-115.1086440286107,-217.30373972358169,-198.26595221823075,-222.17917121585447,56.11199999996461
312471.8327,-95.81480269782396,-201.8275505223708,-177.67129271952018,-209.82041210827023,56.11300000001211
312471.8337,-77.16371281478837,-185.89817221513093,-156.4036409835024,-198.29676683247513,56.1140000000014
312471.8347,-59.446537756592704,-169.85852798039596,-134.82014108390692,-187.84595005334515,56.11499999999069
312471.8357,-42.90206645307847,-154.01111116358206,-113.25568061521611,-178.62339551101059,56.11599999997998
312471.8367,-27.716303441326673,-138.60884429125323,-92.01643213844177,-170.6957363881226,56.116999999969266
312471.8377,-14.02323290209318,-123.84787118953838,-71.37437716964612,-164.0369526827107,56.117999999958556
312471.8387,-1.9066148474565197,-109.86271003062639,-51.563057456599594,-158.52769693603784,56.119000000006054
312471.8397,8.597329906697736,-96.72408813856553,-32.77473135140256,-153.95821532346002,56.11999999999534
312471.8407,17.49648902941487,-84.43964615033211,-15.159028423459965,-150.03514151310065,56.12099999998463
312471.8417,24.83882141044998,-72.95754971419628,1.1768968740947912,-146.39226318515674,56.12199999997392
312471.8427,30.707843866600466,-62.17289197544891,16.166801321948178,-142.60515557648162,56.12299999996321
312471.8437,35.217758550308446,-51.93661992773587,29.78254534606217,-138.20935467992715,56.12400000001071
312471.8447,38.50831975405129,-42.066581431025476,42.03026677649109,-132.72151793066092,56.125
312471.8457,40.73951859853616,-32.36017482060032,52.94579613049097,-125.66280629311379,56.12599999998929
312471.8467,42.08614469713252,-22.607995225302734,62.589584138400404,-116.58353281896855,56.12699999997858
312471.8477,42.73226866180866,-12.60781483004731,71.04139999424767,-105.08797282718756,56.12799999996787
312471.8487,42.865681367326786,-2.178210552842474,78.39502804720982,-90.85813263644562,56.12899999995716
312471.8497,42.67232746430129,8.828837293492905,84.75314728522089,-73.67523808940496,56.13000000000466
312471.8507,42.33078261338049,20.5170083483637,90.22252873177275,-53.43773885043391,56.130999999993946
312471.8517,42.006845550055566,32.93692548959326,94.90963744306212,-30.174733606416446,56.131999999983236
312471.8527,41.84834496941717,46.0801121878071,98.91668396838473,-4.053904016569192,56.132999999972526
312471.8537,41.980293500976785,59.87594964349415,102.33813927538387,24.616704697674674,56.133999999961816
312471.8547,42.500551901353255,74.19181181856257,105.25770972992656,55.39341304836063,56.13500000000931
312471.8557,43.47619080847585,88.83639640707001,107.74576519070499,87.70815881037164,56.1359999999986
312471.8567,44.940750003144394,103.56610515139994,109.85722204023087,120.88592147860813,56.13699999998789
312471.8577,46.892591995332076,118.09416646464048,111.62990064552069,154.1676150027604,56.13799999997718
312471.8587,49.29452513526338,132.10204622817977,113.08339856833602,186.7374196748099,56.13899999996647
312471.8597,52.07483029951251,145.25256783755847,114.21854127125303,217.75325369827576,56.13999999995576
312471.8607,55.12976538330592,157.20406810541476,115.01748543358076,246.37888868962318,56.14100000000326
312471.8617,58.32754614363552,167.62485795953978,115.44455130499439,271.8161060420393,56.14199999999255
312471.8627,61.513715007677995,176.20724032406022,115.4478462137258,293.3352813106853,56.14299999998184
312471.8637,64.51771747782657,182.68036395384806,114.96170992075494,310.30287318334024,56.14399999997113
312471.8647,67.16041609259084,186.82126043342484,113.90996500869136,322.2044767959505,56.14499999996042
312471.8657,69.26219255111958,188.4635185411972,112.20989561315592,328.6623662617813,56.146000000007916
312471.8667,70.65122757944586,187.50318980399396,109.77681167167519,329.44678092302524,56.146999999997206
312471.8677,71.17151265565988,183.90168338902262,106.52899142042057,324.4805824433492,56.147999999986496
312471.8687,70.69014352910887,177.68558802162835,102.3927409294133,313.83730123382355,56.148999999975786
312471.8697,69.10347599710042,168.94354289407292,97.30727457294931,297.7329756174727,56.149999999965075
312471.8707,66.3417901818003,157.8204576146273,91.22911152617456,276.51254095091264,56.15100000001257
312471.8717,62.372207829802115,144.50954232057586,84.13570507520828,250.63182609091388,56.15200000000186
312471.8727,57.199731783568296,129.2427429743741,76.02807463804609,220.6364420100144,56.15299999999115
312471.8737,50.86641841673656,112.28027457081973,66.93229184213267,187.13898748112754,56.15399999998044
312471.8747,43.44884056624918,93.89999914743248,56.89977474108641,150.79604045951365,56.15499999996973
312471.8757,35.05413677335635,74.38740087696213,46.00645779475126,112.28634803025065,56.15599999995902
312471.8767,25.815058508616143,54.02686447216231,34.351016723688865,72.29147585364886,56.15700000000652
312471.8777,15.884507606434433,33.09486597550718,22.052423012156222,31.479939564442393,56.15799999999581
312471.8787,5.43009104178935,11.85554037489306,9.247169707308185,-9.504468825937435,56.1589999999851
312471.8797,-5.370796936965078,-9.441094506772945,-3.9134621742550513,-50.04980596898256,56.15999999997439
312471.8807,-16.3349258250441,-30.558193223623235,-17.26574522104902,-89.57858475683523,56.16099999996368
312471.8817,-27.2758932640068,-51.26858346037729,-30.635168437608794,-127.54627785143146,56.162000000011176
312471.8827,-38.00534231900723,-71.3491101273427,-43.83724157569348,-163.4364823684527,56.163000000000466
312471.8837,-48.332755443496595,-90.57343498814238,-56.67740089059075,-196.75380536549423,56.163999999989755
312471.8847,-58.06404047352932,-108.70408415235556,-68.95013423886475,-227.01574357484893,56.164999999979045
312471.8857,-66.99930324915276,-125.48466580170845,-80.43760270358315,-253.7449461284511,56.165999999968335
312471.8867,-74.93034939177714,-140.6332474506682,-90.90817826551178,-276.4632551028312,56.166999999957625
312471.8877,-81.63855777392364,-153.83787696664206,-100.11542517062303,-294.68881294689055,56.16800000000512
312471.8887,-86.89380790985719,-164.7551505982252,-107.7981121238854,-307.9373140930076,56.16899999999441
312471.8897,-90.45511598899543,-173.0125759912921,-113.68184318405352,-315.7281742058551,56.1699999999837
312471.8907,-92.07353890950456,-178.21525575697524,-117.48283261514472,-317.5960154719686,56.17099999997299
312471.8917,-91.4977480977985,-179.95713986429283,-118.91422431936334,-313.10744624558833,56.17199999996228
312471.8927,-88.48246655994052,-177.83677956750722,-117.6951771124663,-301.88267763142943,56.17300000000978
312471.8937,-82.79971968125088,-171.47718157981583,-113.56271560685086,-283.62109854924074,56.17399999999907
312471.8947,-74.25259222580448,-160.5490305161363,-106.28609967649544,-258.1295535399753,56.17499999998836
312471.8957,-62.690931786492186,-144.79624244884644,-95.68321300025445,-225.35175973419115,56.17599999997765
312471.8967,-48.02821329167898,-124.06255390602323,-81.63823368895295,-185.3970816254093,56.17699999996694
312471.8977,-30.258598673157646,-98.31765744702555,-64.1196474346308,-138.56676883974393,56.17799999995623
312471.8987,-9.473105338227109,-67.6812819218465,-43.19751345494666,-85.37576014145452,56.179000000003725
312471.8997,14.126253344622603,-32.443592635238865,-19.058809278775453,-26.568266369336428,56.179999999993015
312471.9007,40.215468384868444,6.919641718278402,7.980329366707301,36.87444110920255,56.180999999982305
312471.9017,68.34169227264302,49.73850381242358,37.46658977993966,103.73530446053918,56.181999999971595
312471.9027,97.92140576406547,95.14814216183062,68.80665880620708,172.57270475699778,56.182999999960884
312471.9037,128.24422944337553,142.09655953443385,101.27036034891192,241.74209508949642,56.18400000000838
312471.9047,158.48275705467026,189.3614090079098,134.0002569452877,309.4280345821573,56.18499999999767
312471.9057,187.7085054932166,235.57581375651813,166.02791718219245,373.68614444568055,56.18599999998696
312471.9067,214.91378678203318,279.2627932145333,196.29672794035164,432.4940472318576,56.18699999997625
312471.9077,239.03902581275057,318.87745057919443,223.69080377845017,483.8099210682106,56.18799999996554
312471.9087,259.00478747530144,352.8556753484693,247.06923200983624,525.6369176178035,56.18900000001304
312471.9097,273.7475486241611,379.6677584562169,265.30460623795074,556.0913686587892,56.19000000000233
312471.9107,282.25806162361073,397.87502258067803,277.32455591952396,573.472451574568,56.19099999999162
312471.9117,283.6210114438743,406.1873491561052,282.1547847111142,576.330806321203,56.19199999998091
312471.9127,277.0545692472649,403.5193458239907,278.96199278776356,563.5335012074947,56.1929999999702
312471.9137,261.94839185973154,389.0428492931541,267.0949820742873,534.3227360617228,56.19399999995949
312471.9147,237.89860692124185,362.2335011815382,246.12223001892826,488.36575168404545,56.195000000006985
312471.9157,204.738355801507,322.9092675331573,215.86426680419876,425.7935852696927,56.195999999996275
312471.9167,162.562538742922,271.25899259161395,176.41930091543722,347.22657279945975,56.196999999985565
312471.9177,111.74551812970306,207.85937774739244,128.18070599540738,253.7848497170004,56.197999999974854
312471.9187,52.950686334539135,133.67914877258687,71.84520452232142,147.08253699898003,56.198999999964144
312471.9197,-12.869004681151948,50.06960789776449,8.410857226684465,29.204814775548513,56.20000000001164
312471.9207,-84.48022233650006,-41.258750523701714,-60.83571308414046,-97.33232959179945,56.20100000000093
312471.9217,-160.38853568971118,-138.2733653928226,-134.34307382500194,-229.6392512819582,56.20199999999022
312471.9227,-238.8678770535919,-238.669744989062,-210.32952659328674,-364.5255894910827,56.20299999997951
312471.9237,-317.99990000755383,-339.93334829153764,-286.82783820771334,-498.5872017855565,56.2039999999688
312471.9247,-395.7225579094389,-439.4114300856425,-361.739120924672,-628.3046140148558,56.20499999995809
312471.9257,-469.88681133671923,-534.3925932158777,-432.8943926385888,-750.1498769912632,56.20600000000559
312471.9267,-538.3199507809828,-622.1913790144839,-498.1219371840862,-860.6981726104933,56.20699999999488
312471.9277,-598.8936136309305,-700.2348999721128,-555.3182162761101,-956.740083620153,56.20799999998417
312471.9287,-649.5942072980978,-766.1482986574197,-602.5197815971883,-1035.3901686073273,56.20899999997346
312471.9297,-688.5931509957072,-817.8357228895136,-637.9734219442151,-1094.1873983789908,56.20999999996275
312471.9307,-714.3141451382832,-853.553554326196,-660.2016785256517,-1131.183135577459,56.211000000010245
312471.9317,-725.4945951677932,-871.9728252759327,-668.0608900342199,-1145.0126892403546,56.211999999999534
312471.9327,-721.2383762518447,-872.2281085974042,-660.7891005440789,-1134.9470498679839,56.212999999988824
312471.9337,-701.0573393686991,-853.9506612549868,-638.0414820184722,-1100.9221930309423,56.213999999978114
312471.9347,-664.899330443645,-817.2842272540344,-599.9113840026387,-1043.5442994637879,56.214999999967404
312471.9357,-613.1610136553041,-762.8826346215313,-546.9357101339252,-964.0703307212054,56.21599999995669
312471.9367,-546.6844370940615,-691.8891194911439,-480.0840082055762,-864.3645627870463,56.21700000000419
312471.9377,-466.7370216230193,-605.8981368486694,-400.7314121163577,-746.8328473415258,56.21799999999348
312471.9387,-374.9754504879185,-506.90122617767713,-310.6163473371152,-614.3374692019531,56.21899999998277
312471.9397,-273.39473957589706,-397.21924370089624,-211.78465947769726,-470.0964275076468,56.21999999997206
312471.9407,-164.26452467481198,-279.42390567531504,-106.52250041890994,-317.5717233327248,56.22099999996135
312471.9417,-50.055262001762834,-156.252069271743,2.719136246680292,-160.3517359130013,56.22200000000885
312471.9427,66.64244382542557,-30.516477687704207,113.40493661975955,-2.032978964667631,56.22299999999814
312471.9437,183.20183070006544,94.98320553988665,222.99733132960475,153.89356670845734,56.22399999998743
312471.9447,297.0435981407136,217.54535812045975,329.03656804828137,304.1467406277881,56.22499999997672
312471.9457,405.71553900724643,334.64395254931867,429.2154315431114,445.7459674384476,56.22599999996601
312471.9467,506.9648495707439,443.99578827696484,521.4456112926306,576.085238273346,56.2269999999553
312471.9477,598.8002505247783,543.6151259699416,603.9132350323692,692.9880873447456,56.228000000002794
312471.9487,679.5416698506348,631.8541870112488,675.121725977874,794.7424662823913,56.228999999992084
312471.9497,747.8559639731369,707.4287742768882,733.9208571284912,880.1155493831567,56.22999999998137
312471.9507,802.7779355506582,769.4290640573805,779.5216193118549,948.3495646827487,56.23099999997066
312471.9517,843.7166914424048,817.3163630194047,811.49724186428,999.1406707399525,56.23199999995995
312471.9527,870.4481218426334,850.907272971436,829.7713613243769,1032.6036323293026,56.23300000000745
312471.9537,883.0949262312155,870.3472233041775,834.5948867579694,1049.2255518046404,56.23399999999674
312471.9547,882.096127887331,876.0756909672692,826.5135326539304,1049.8121678165785,56.23499999998603
312471.9557,868.1683819781289,868.7856180541041,806.3282654222796,1035.4302401569182,56.23599999997532
312471.9567,842.261580992281,849.3795578045504,775.0510328817317,1007.349318127719,56.23699999996461
312471.9577,805.5112963696678,818.9249435344856,733.8581243776795,966.9857751834991,56.23800000001211
312471.9587,759.1904787577045,778.6106043969752,684.0433584763899,915.8514317593481,56.2390000000014
312471.9597,704.6625929126683,729.7062774572062,626.9730388862721,855.5084354746168,56.23999999999069
312471.9607,643.3380151454248,673.5264225787023,564.0442852074789,787.5313798679039,56.24099999997998
312471.9617,576.6351036509113,611.3991720236415,496.6479629121025,713.4769736338818,56.241999999969266
312471.9627,505.94689858275973,544.6407762287386,426.1370355106284,634.8609696988883,56.242999999958556
312471.9637,432.61395170140867,474.5354730475847,353.8007673954726,553.1415655478839,56.244000000006054
312471.9647,357.9033540772863,402.32033643695877,280.8448405646646,469.7081196338757,56.24499999999534
312471.9657,282.9936493453129,329.17437191158564,208.37712972778667,385.87380772356613,56.24599999998463
312471.9667,208.96500855145698,256.2109324867424,137.39862058060928,302.87076974314374,56.24699999997392
312471.9677,136.7938138724245,184.4724351676456,68.79876285795977,221.84636306223993,56.24799999996321
312471.9687,67.35065946242287,114.92636212664608,3.3544262583116264,143.8593238034028,56.24900000001071
312471.9697,1.4007294612881585,48.4616239961623,-58.26842729693016,69.87491812888666,56.25
312471.9707,-60.39444869799286,-14.115468637175898,-115.5112314618722,0.7585102397410791,56.25099999998929
312471.9717,-117.47476256719217,-72.08615332612608,-167.91827170362825,-62.73264952257407,56.25199999997858
312471.9727,-169.37949324462673,-124.8253482738479,-215.13180169657096,-119.95923697772055,56.25299999996787
312471.9737,-215.74599851577187,-171.8089562916944,-256.8873573372456,-170.41074193398063,56.25399999995716
312471.9747,-256.30933356702053,-212.62205659623146,-293.0096264634571,-213.71661813360643,56.25500000000466
312471.9757,-290.902784623148,-246.9674581148483,-323.40904124783816,-249.65667094330897,56.255999999993946
312471.9767,-319.45904749585327,-274.67389151523616,-348.0790711870714,-278.16953938360103,56.256999999983236
312471.9777,-342.0115734364049,-295.7029819662728,-367.094021217938,-299.35810951619203,56.257999999972526
312471.9787,-358.6954460075746,-310.15408147835933,-380.60699446722566,-313.49077672043444,56.258999999961816
312471.9797,-369.747058585649,-318.26605459588876,-388.8475735537683,-320.99764902774876,56.26000000000931
312471.9807,-375.5018417149292,-320.4152051303275,-392.1187168721441,-322.461040531183,56.2609999999986
312471.9817,-376.3893466791986,-317.1087001932667,-390.79236243670084,-318.5999259604193,56.26199999998789
312471.9827,-372.9251242974037,-308.97308158843975,-385.30328346386193,-310.24839383410585,56.26299999997718
312471.9837,-365.69903808129754,-296.73773956652997,-376.14084460986646,-298.3285224203918,56.26399999996647
312471.9847,-355.3599048114732,-281.2135420112261,-363.8384591026608,-283.8184848390056,56.26499999995576
312471.9857,-342.5966446685258,-263.26714232918357,-348.96073430500974,-267.71704171982645,56.26600000000326
312471.9867,-328.11642495563945,-243.79180895651785,-332.0885024188511,-251.00587790384907,56.26699999999255
312471.9877,-312.62057171686325,-223.6759054727371,-313.80214739034676,-234.61146246176008,56.26799999998184
312471.9887,-296.7792775343995,-203.77038109904967,-294.66384051795603,-219.36824161646462,56.26899999997113
312471.9897,-281.20632866607525,-184.8567879865358,-275.19946777689324,-205.9850001029869,56.26999999996042
312471.9907,-266.4351915148544,-167.61740969103798,-255.8811550425031,-195.0161425296436,56.271000000007916
312471.9917,-252.89782392078658,-152.60905580059966,-237.11135995474535,-186.83945389814303,56.271999999997206
312471.9927,-240.90750468478575,-140.2419486987654,-219.20949232926552,-181.64160637670207,56.272999999986496
312471.9937,-230.6468066596941,-130.7649049309906,-202.40194547942454,-179.41230352451421,56.273999999975786
312471.9947,-222.1615842024153,-124.25770768541979,-186.81627127099165,-179.9475154848975,56.274999999965075
312471.9957,-215.3615216028419,-120.63119699509997,-172.48002088352465,-182.86178607835205,56.27600000001257
312471.9967,-210.02741808955648,-119.63519403858007,-159.32451519538304,-187.60911506530252,56.27700000000186
312471.9977,-205.82499398797353,-120.87395233733258,-147.19352179834289,-193.51146664793023,56.27799999999115
312471.9987,-202.32462007701704,-123.82841991664557,-135.85652090958098,-199.79355737652702,56.27899999998044
312471.9997,-199.026025791699,-127.88422972133664,-125.02596169477532,-205.62225781483505,56.27999999996973
312472.0007,-195.38675595886414,-132.36403454350247,-114.37766435411831,-210.14872134075864,56.28099999995902
312472.0017,-190.8529390971876,-136.56258594307388,-103.57332928745424,-212.5512415284346,56.28200000000652
312472.0027,-184.8908148495941,-139.7828359341221,-92.28398567086981,-212.07683962176915,56.28299999999581
312472.0037,-177.01744797605528,-141.37131989926843,-80.2131551421611,-208.07969042122002,56.2839999999851
312472.0047,-166.8291279302321,-140.75115608997663,-67.11852328923877,-200.0546959034263,56.28499999997439
312472.0057,-154.02610591517663,-137.4511611507702,-52.830997806197225,-187.6647927688106,56.28599999996368
312472.0067,-138.4325396431973,-131.12981683436647,-37.270178198656396,-170.76091085801244,56.287000000011176
312472.0077,-120.01078060380154,-121.5931111629523,-20.455454899472116,-149.39386055060916,56.288000000000466
312472.0087,-98.86942902281399,-108.80559667650441,-2.5121807108798304,-123.81779617585043,56.288999999989755
312472.0097,-75.26487824418307,-92.89433821650171,16.327400704765537,-94.48525907569025,56.289999999979045
312472.0107,-49.596355886526155,-74.14574395124646,35.7285403873038,-62.03413220974916,56.290999999968335
312472.0117,-22.394730457756214,-52.995570303244016,55.26352063639658,-27.26712676041069,56.291999999957625
312472.0127,5.694419870401008,-30.01265236642256,74.42596510869714,8.875336388215043,56.29300000000512
312472.0137,33.93278959809937,-5.877128901851209,92.64935722330182,45.347793237091814,56.29399999999441
312472.0147,61.51554141125758,18.645898187035762,109.32904458583678,81.036746871423,56.2949999999837
312472.0157,87.60076244279705,42.736205578314305,123.84688252044708,114.80071243025571,56.29599999997299
312472.0167,111.34114707927493,65.55064610827527,135.5975775325633,145.51192173369594,56.29699999996228
312472.0177,131.91681840587768,86.25651454467581,144.01573038427117,172.09827950681225,56.29800000000978
312472.0187,148.56817047824035,104.06488499055477,148.6025467276369,193.58415979298292,56.29899999999907
312472.0197,160.6276045124724,118.2627428641278,148.9511792791512,209.12865542324099,56.29999999998836
312472.0207,167.54904265208737,128.2427784729064,144.769688237716,218.05994534181823,56.30099999997765
312472.0217,168.93413412987306,133.52977560188188,135.90065575518992,219.90452611820845,56.30199999996694
312472.0227,164.5541232331382,133.80261683223387,122.33656630550507,214.4101684281897,56.30299999995623
312472.0237,154.36643073282386,128.91103866516065,104.23016894627558,201.56161055067787,56.304000000003725
312472.0247,138.52511515498946,118.88640616760838,81.89917112086532,181.58819242573367,56.304999999993015
312472.0257,117.38453182247734,103.94594124078405,55.82477782430243,154.96286739776482,56.305999999982305
312472.0267,91.49569882571548,84.49003245404008,26.64378460454511,122.39230366636697,56.306999999971595
312472.0277,61.59511033452401,61.09247767319821,-4.865843792179827,84.79809950407895,56.307999999960884
312472.0287,28.586005982425633,34.48376086007801,-37.80572937046217,43.28947739244331,56.30900000000838
312472.0297,-6.487596278561326,5.527735706764309,-71.18372581572135,-0.8718196858568305,56.30999999999767
312472.0307,-42.473478021162585,-24.80762787262672,-103.9457324936526,-46.31334716666757,56.31099999998696
312472.0317,-78.14945899585632,-55.484495157865844,-135.01168686508393,-91.59906825498965,56.31199999997625
312472.0327,-112.26603406816787,-85.43320844456687,-163.31449155842003,-135.28002433961365,56.31299999996554
312472.0337,-143.5918636550208,-113.59267492049086,-187.840412321701,-175.94659079549493,56.31400000001304
312472.0347,-170.9603406292272,-138.95146779885224,-207.66931200917634,-212.2801740442691,56.31500000000233
312472.0357,-193.31529333365606,-160.5878840555007,-222.0129788287439,-243.10213199782538,56.31599999999162
312472.0367,-209.75380660988458,-177.70715685467647,-230.2497775675266,-267.4177335561088,56.31699999998091
312472.0377,-219.5641635526534,-189.67406456375295,-231.9539105415929,-284.4531206144839,56.3179999999702
312472.0387,-222.25703791385595,-196.03931692560428,-226.9177263385015,-293.6834982897473,56.31899999995949
312472.0397,-217.58830233822457,-196.55833260393675,-215.16575940296832,-294.8511486475983,56.320000000006985
312472.0407,-205.57215555770736,-191.20134482732925,-196.9595163928787,-287.9723254188118,56.320999999996275
312472.0417,-186.48369962951472,-180.15417070984603,-172.79243378178742,-273.33262021273083,56.321999999985565
312472.0427,-160.8505965198948,-163.8094364022295,-143.37489689064125,-251.4709666431038,56.322999999974854
312472.0437,-129.4339758008624,-142.748540622286,-109.60970931391026,-223.15303508338246,56.323999999964144
312472.0447,-93.19932108130075,-117.71513541581727,-72.5589051966797,-189.33533244269282,56.32500000001164
312472.0457,-53.27859825987916,-89.58137499163864,-33.403274152003966,-151.12182318761597,56.32600000000093
312472.0467,-10.925369397178352,-59.3086006364375,6.6036114187413935,-109.71529692086935,56.32699999999022
312472.0477,32.53497045265731,-27.904463407734497,46.18474338490429,-66.36599600571797,56.32799999997951
312472.0487,75.75741763803902,3.621288048013566,84.09005392277052,-22.320162773821288,56.3289999999688
312472.0497,117.42948739813117,34.3000281004315,119.14538242980561,21.228842754730223,56.32999999995809
312472.0507,156.3206925313544,63.24419493059757,150.29764202139918,63.184369660092806,56.33100000000559
312472.0517,191.32697861277092,89.681840760032,176.65398138641956,102.58307812034707,56.33199999999488
312472.0527,221.50802165559475,112.98399009027007,197.51305633710368,138.62259512731052,56.33299999998417
312472.0537,246.1157201422784,132.68342919853342,212.3869575675065,170.67905581074933,56.33399999997346
312472.0547,264.6127383727856,148.48406538695266,221.01286115173056,198.3139873696837,56.33499999996275
312472.0557,276.68054863588543,160.26056884568413,223.3540442400502,221.2706504765872,56.336000000010245
312472.0567,282.217037720331,168.04860727091776,219.5905043650427,239.46060204343192,56.336999999999534
312472.0577,281.3243486518251,172.02656500838555,210.09999934846354,252.94184182294774,56.337999999988824
312472.0587,274.28818188293235,172.49016605968137,195.4308495759651,261.8904145118789,56.338999999978114
312472.0597,261.5502454464441,169.821858102461,176.26828232295176,266.5677250052336,56.339999999967404
312472.0607,243.67589055151424,164.4571322178192,153.39642133632717,267.2860607596108,56.34099999995669
312472.0617,221.31917533108572,156.85012713610988,127.65821379548376,264.3748846128938,56.34200000000419
312472.0627,195.18765193338064,147.4408835246323,99.91562957051919,258.1503572310641,56.34299999999348
312472.0637,166.0090683289491,136.62646962450458,71.01236237656606,248.89027537840258,56.34399999998277
312472.0647,134.5019243457702,124.73790198754465,41.741016800987815,236.8161867576227,56.34499999997206
312472.0657,101.35144032637096,112.02435277887456,12.816396519128503,222.08389150509132,56.34599999996135
312472.0667,67.19201465851454,98.64559684193055,-15.143956948237994,204.78290133943844,56.34700000000885
312472.0677,32.59669917761069,84.67304463779942,-41.631356230583776,184.94474394417767,56.34799999999814
312472.0687,-1.9263497785737915,70.09907439230459,-66.24963013533787,162.55932089570945,56.34899999998743
312472.0697,-35.93103865845159,54.853764298418966,-88.71134080338808,137.59790173142613,56.34999999997672
312472.0707,-69.02520630077188,38.82757879170826,-108.82753592562268,110.04081117817958,56.35099999996601
312472.0717,-100.85867007468006,21.898122883850785,-126.49242459379084,79.90748120046995,56.3519999999553
312472.0727,-131.10918295541856,3.958778834541391,-141.66465890592795,47.2863246051592,56.353000000002794
312472.0737,-159.46814594399083,-15.05309687134481,-154.34706164858997,12.361860202168842,56.353999999992084
312472.0747,-185.6278720772457,-35.130700643437365,-164.5666533291792,-24.56331543213537,56.35499999998137
312472.0757,-209.27199692533526,-56.17710880504835,-172.35670088636456,-63.053768788505955,56.35599999997066
312472.0767,-230.070293677083,-77.99111713243242,-177.74224820055304,-102.53524066874849,56.35699999995995
312472.0777,-247.67870782625124,-100.26081630291976,-180.73021807007873,-142.29836585015366,56.35800000000745
312472.0787,-261.74491529665346,-122.56554973667976,-181.30472821585346,-181.51234743834732,56.35899999999674
312472.0797,-271.9191726367369,-144.38628082340128,-179.427777797179,-219.2481205738902,56.35999999998603
312472.0807,-277.86971483331695,-165.12378253248792,-175.04497652783542,-254.50986223898065,56.36099999997532
312472.0817,-279.30150963201214,-184.12350107909106,-168.09554606736955,-286.27311042674705,56.36199999996461
312472.0827,-275.97683559362054,-200.70547906962437,-158.52545947189014,-313.5272908177996,56.36300000001211
312472.0837,-267.7359439629293,-214.197386625504,-146.3023288082599,-335.3201459941027,56.3640000000014
312472.0847,-254.5160095835,-223.96852474640104,-131.43052381954195,-350.8014418069682,56.36499999999069
312472.0857,-236.3666780470576,-229.46264429470173,-113.96501478683079,-359.26339395169606,56.36599999997998
312472.0867,-213.46076572313058,-230.2275636775548,-94.02257735185614,-360.1755062350272,56.366999999969266
312472.0877,-186.09904393587354,-225.93985268809382,-71.78926098461335,-353.2119173651821,56.367999999958556
312472.0887,-154.70850487304506,-216.4232515089717,-47.523380229345626,-338.2698799546738,56.369000000006054
312472.0897,-119.83402316309619,-201.65997583619992,-21.55370460025192,-315.4785990779892,56.36999999999534
312472.0907,-82.12384729188466,-181.7945787454317,5.727040606283317,-285.19828791289,56.37099999998463
312472.0917,-42.30983268662861,-157.13055242729453,33.872835626960395,-248.0099032661178,56.37199999997392
312472.0927,-1.1837208466334328,-128.12031525765548,62.39830891607695,-204.69655602472028,56.37299999996321
312472.0937,40.42895828458381,-95.34960460843668,90.79482072336666,-156.21801031773057,56.37400000001071
312472.0947,81.69565389401266,-59.51755530451574,118.54740536520508,-103.67996131422692,56.375
312472.0957,121.80254859368742,-21.413871441775495,145.15127841569566,-48.299900092937925,56.37599999998929
312472.0967,159.9777884891281,18.105507576579548,170.1267326835318,8.628664654379078,56.37699999997858
312472.0977,195.51098035356486,58.14297697518221,193.0314796150305,65.77203836378871,56.37799999996787
312472.0987,227.7681483128193,97.78303518780999,213.46981475470275,121.79092798709677,56.37899999995716
312472.0997,256.2018015558368,136.1145151271322,231.09836189429316,175.3728510536513,56.38000000000466
312472.1007,280.3562353611404,172.25087359934355,245.62853962315546,225.2618220081067,56.380999999993946
312472.1017,299.8686227553003,205.34845488637103,256.82625374773465,270.285139507708,56.381999999983236
312472.1027,314.46680968966024,234.6229157561176,264.50961004225616,309.3774018392215,56.382999999972526
312472.1037,323.9649671854339,259.3641892365536,268.54563177530997,341.6020823106517,56.383999999961816
312472.1047,328.25835573653876,278.9504517362904,268.84703385571265,366.17108095657454,56.38500000000931
312472.1057,327.31841099533017,292.8615334258011,265.3700417634087,382.4626268642341,56.3859999999986
312472.1067,321.1891714127755,300.6920797264221,258.1140542980204,390.03774637039453,56.38699999998789
312472.1077,309.9857589339434,302.16454992374213,247.1236538641152,388.655260463018,56.38799999997718
312472.1087,293.8952267077999,297.1418561367214,232.4930975339207,378.2849660236249,56.38899999996647
312472.1097,273.1796460522211,285.63913893035436,214.37301607039007,359.1183339617006,56.38999999995576
312472.1107,248.18086656515266,267.8338854758326,192.97865052292968,331.57576959955446,56.39100000000326
312472.1117,219.32599628336865,244.0733624906279,168.5986109093853,296.30927130155015,56.39199999999255
312472.1127,187.13235632574066,214.87819441200088,141.60288822859175,254.19922947258883,56.39299999998184
312472.1137,152.21050051695175,180.94089372983137,112.44872029652896,206.3441554619301,56.39399999997113
312472.1147,115.26387654028356,143.11825977208883,81.68292256384447,154.04233011573004,56.39499999996042
312472.1157,77.08384808228448,102.41680576586228,49.93945235982114,98.76471056608942,56.396000000007916
312472.1167,38.539088851719534,59.97073928013534,17.93126990983391,42.11891165501349,56.396999999997206
312472.1177,0.5587765396257629,17.012483157063627,-13.564030372830935,-14.195348353533763,56.397999999986496
312472.1187,-35.89047722016156,-25.16375265894808,-43.724853020775754,-68.43832384056822,56.398999999975786
312472.1197,-69.83346995147711,-65.24429597456101,-71.71200205716717,-118.88820181623761,56.399999999965075
312472.1207,-100.31998067282436,-101.9426666867458,-96.6998263481558,-163.9027381596094,56.40100000001257
312472.1217,-126.46152620604333,-134.0485510563045,-117.91061391263585,-201.98189820165493,56.40200000000186
312472.1227,-147.46935184599374,-160.47675685666616,-134.65036072566778,-231.82851554130986,56.40299999999115
312472.1237,-162.69143738338744,-180.31362577658768,-146.34379024742555,-252.40385245883735,56.40399999998044
312472.1247,-171.64619180477192,-192.85836077398366,-152.5664039820793,-262.9750181196541,56.40499999996973
312472.1257,-174.05057746003712,-197.65688118517693,-153.07141224321967,-263.1514808145615,56.40599999995902
312472.1267,-169.84064597351517,-194.52614141168877,-147.80962581971514,-252.90838527123785,56.40700000000652
312472.1277,-159.18286813858967,-183.567320679733,-136.94076790494515,-232.59502759297735,56.40799999999581
312472.1287,-142.4751698293442,-165.16688059352157,-120.83516401412881,-202.92760727562282,56.4089999999851
312472.1297,-120.33720625932324,-139.98515355657156,-100.0653486228502,-164.9662166160506,56.40999999997439
312472.1307,-93.59007104512055,-108.93282216823805,-75.38774745438569,-120.0768853721452,56.41099999996368
312472.1317,-63.22629442872536,-73.1363287455158,-47.71520753783977,-69.88031427486122,56.412000000011176
312472.1327,-30.3715874551574,-33.89386824322416,-18.081708321058418,-16.189649977050184,56.413000000000466
312472.1337,3.759708362025774,7.375874364890378,12.39894390298283,39.05977077865399,56.413999999989755
312472.1347,37.913138961670136,49.18971238077349,42.57829125824865,93.88538408374905,56.414999999979045
312472.1357,70.84408846177102,90.05793315665453,71.31992323624775,146.33355005767834,56.415999999968335
312472.1367,101.36659060829895,128.54148421905427,97.54530959521196,194.5533854190962,56.416999999957625
312472.1377,128.3985594377062,163.30571922286177,120.2764862237903,236.8649808378834,56.41800000000512
312472.1387,151.00128048441763,193.16832964067743,138.67355998050277,271.8190929615599,56.41899999999441
312472.1397,168.41141229780945,217.13948861234098,152.0653597940112,298.24593062855485,56.4199999999837
312472.1407,180.0642471204318,234.45272495009442,159.97200574531712,315.29128689717163,56.42099999997299
312472.1417,185.60752948791782,244.58559066840783,162.11866020020477,322.4389586361457,56.42199999996228
312472.1427,184.9056911168928,247.26974638985143,158.44022910471776,319.51909886119284,56.42300000000978
312472.1437,178.03489080153307,242.49062950022832,149.07726313433514,306.7028222241448,56.42399999999907
312472.1447,165.26971538175337,230.47735865439253,134.36373796991796,284.48399536439507,56.42499999998836
312472.1457,147.06277591372654,211.68394051880608,114.80774762021099,253.64966323525655,56.42599999997765
312472.1467,124.018704651149,186.7631636755493,91.06640926737026,215.24097076582635,56.42699999996694
312472.1477,96.86421549577338,156.5347818044749,63.91644560808103,170.50672592963375,56.42799999995623
312472.1487,66.41593448799426,121.94970280688328,34.22198194534439,120.85191334808891,56.429000000003725
312472.1497,33.54764698893275,84.05191841351055,2.9010779936187694,67.78351192330499,56.429999999993015
312472.1507,-0.8415399087993135,43.9398413143533,-29.10757860266487,12.855906166619594,56.430999999982305
312472.1517,-35.85683758220566,2.7285788343076804,-60.87654232638608,-42.381976788083094,56.431999999971595
312472.1527,-70.63419909219763,-38.485519611284566,-91.51896245409115,-96.43590742387724,56.432999999960884
312472.1537,-104.36279235692056,-78.65693260217485,-120.2145549489239,-147.9103689326302,56.43400000000838
312472.1547,-136.30308016727443,-116.81879495941278,-146.23155574148745,-195.54608170040632,56.43499999999767
312472.1557,-165.80033956954583,-152.10588065642614,-168.94423795919218,-238.25013413586228,56.43599999998696
312472.1567,-192.29370050067627,-183.77238753809732,-187.84578113647513,-275.11818873945066,56.43699999997625
312472.1577,-215.32099267121393,-211.20440697015684,-202.55646458157878,-305.4485987862482,56.43799999996554
312472.1587,-234.51985448757839,-233.92717568051867,-212.82731652213138,-328.7486178540183,56.43900000001304
312472.1597,-249.62567571626462,-251.6073940684428,-218.53948443436195,-344.7331984398252,56.44000000000233
312472.1607,-260.467016933828,-264.05105138567075,-219.6997007474303,-353.3171449893827,56.44099999999162
312472.1617,-266.9591761258057,-271.19732089600194,-216.43230345494308,-354.6016003495817,56.44199999998091
312472.1627,-269.09656026525965,-273.1091759004848,-208.96833486908145,-348.8559947770374,56.4429999999702
312472.1637,-266.94447261027057,-269.9614298832015,-197.63228546629907,-336.49666808700255,56.44399999995949
312472.1647,-260.63085085724646,-262.02692156496147,-182.82707478550932,-318.0633869684234,56.445000000006985
312472.1657,-250.33839372384668,-249.66155010298291,-165.01786857801372,-294.19492382901745,56.445999999996275
312472.1667,-236.29740088931715,-233.28882005713507,-144.71532157995887,-265.6047480356431,56.446999999985565
312472.1677,-218.7795305507241,-213.38448433226299,-122.45880908131949,-233.05771637878016,56.447999999974854
312472.1687,-198.09255724878946,-190.46178152759882,-98.80016881661194,-197.34845157472768,56.448999999964144
312472.1697,-174.57609700581168,-165.05765832985963,-74.28841893149257,-159.28188229694632,56.45000000001164
312472.1707,-148.59816374099626,-137.72025472968053,-49.4558497666799,-119.65620298447021,56.45100000000093
312472.1717,-120.55233626638783,-108.99781708361911,-24.805809440936052,-79.24831311394443,56.45199999999022
312472.1727,-90.8552538377959,-79.42909832478679,-0.8024187956816812,-38.80162813042602,56.45299999997951
312472.1737,-59.944123876038624,-49.535212215833475,22.137636245821398,0.983971242039304,56.4539999999688
312472.1747,-28.273920129688673,-19.812834614625654,43.65117360073362,39.46036143554222,56.45499999995809
312472.1757,3.6860265852782566,9.271407016914885,63.43246605245218,76.03790677189092,56.45600000000559
312472.1767,35.456291681197484,37.28554226861288,81.23516914294768,110.19101410186111,56.45699999999488
312472.1777,66.55264594595286,63.836054586569446,96.87238349195546,141.46276607530592,56.45799999998417
312472.1787,96.49244970381972,88.5710377401137,110.21505864947376,169.46879790196363,56.45899999997346
312472.1797,124.80212777633687,111.18284677284734,121.18898076997417,193.9004768750608,56.45999999996275
312472.1807,151.0255949429302,131.41032863090314,129.77060711318617,214.5273367738503,56.461000000010245
312472.1817,174.73340098790308,149.04066133722242,135.9820174284916,231.19862412232126,56.461999999999534
312472.1827,195.53227690824008,163.91077415423084,139.88524716614774,243.84374183164394,56.462999999988824
312472.1837,213.07469585675844,175.90827096880975,141.5762521223633,252.47133667572737,56.463999999978114
312472.1847,227.06801860981292,184.9717406184338,141.17873071504496,257.16677533657935,56.464999999967404
312472.1857,237.2827765058804,191.09031523974903,138.83800077554756,258.0877904507615,56.46599999995669
312472.1867,243.55965563370808,194.30233357434105,134.71509463244237,255.4581504438984,56.46700000000419
312472.1877,245.8147834891613,194.69298145611467,128.981201380195,249.55930895042812,56.46799999999348
312472.1887,244.04298084547455,192.39081577029444,121.81255055507879,240.72011279742588,56.46899999998277
312472.1897,238.31872361895628,187.56312893092468,113.38579897514236,229.30478183564023,56.46999999997206
312472.1907,228.79465781688518,180.41017510780003,103.87395423259711,215.69950862796995,56.47099999996135
312472.1917,215.69762059617503,171.15835286077862,93.4428461518697,200.2981506248515,56.47200000000885
312472.1927,199.32223718279366,160.0525166467998,82.24814305082872,183.4875922753455,56.47299999999814
312472.1937,180.0222818569647,147.34766652789222,70.43290391143942,165.6334311937766,56.47399999998743
312472.1947,158.20010612838675,133.30033574572806,58.12566077012309,147.06668438351258,56.47499999997672
312472.1957,134.29454307578956,118.16005402531549,45.43903687067921,128.072212940964,56.47599999996601
312472.1967,108.76778783835213,102.16130514865021,32.46892326064,108.87952412532823,56.4769999999553
312472.1977,82.09182457906047,85.51641568601579,19.294256278004568,89.6565280180669,56.478000000002794
312472.1987,54.73501428799876,68.40980392484175,5.9774566046754645,70.50670449475462,56.478999999992084
312472.1997,27.149470653647448,50.993981483867735,-7.434397342861044,51.46997966039194,56.47999999998137
312472.2007,-0.24017074550075646,33.387634061511854,-20.907587404954366,32.52742642357006,56.48099999997066
312472.2017,-27.046043314865678,15.676013470388813,-34.41890351850123,13.609700808745547,56.48199999995995
312472.2027,-52.9239485919626,-2.0862460675367482,-47.951889198982975,-5.391085082118803,56.48300000000745
312472.2037,-77.57753979311656,-19.86991296642249,-61.49219891256767,-24.60655881264031,56.48399999999674
312472.2047,-100.75962111343208,-37.663720888259526,-75.02214370593826,-44.17504695511998,56.48499999998603
312472.2057,-122.27056841213388,-55.46503901292083,-88.51457578873635,-64.22315401811126,56.48599999997532
312472.2067,-141.95405993225197,-73.26912744411253,-101.926344063296,-84.8469392310731,56.48699999996461
312472.2077,-159.6904857709907,-91.05758610557336,-115.1916342575182,-106.09374465164532,56.48800000001211
312472.2087,-175.38856966051023,-108.78671014564155,-128.21558187021736,-127.94575039517005,56.4890000000014
312472.2097,-188.97587423679167,-126.37653453860426,-140.86860583829971,-150.3062992743023,56.48999999999069
312472.2107,-200.38896049123764,-143.70137794022213,-152.98194825788548,-172.98994359797445,56.49099999997998
312472.2117,-209.56402455896819,-160.58267557613925,-164.34491411914456,-195.7170238023814,56.491999999969266
312472.2127,-216.42883405361337,-176.7848200591196,-174.7042797830275,-218.11339689828773,56.492999999958556
312472.2137,-220.89672863617912,-192.0146073423965,-183.76627671987924,-239.7156995240636,56.494000000006054
312472.2147,-222.86333580396087,-205.92471536184945,-191.20145709325712,-259.9822647426191,56.49499999999534
312472.2157,-222.20648719504177,-218.12143136245857,-196.65261204030102,-278.3095244177658,56.49599999998463
312472.2167,-218.78961101689492,-228.1765997663928,-199.7457467813524,-294.0534324482925,56.49699999997392
312472.2177,-212.46863409581115,-235.64349814380674,-200.10392669790428,-306.55515213059516,56.49799999996321
312472.2187,-203.10216718598207,-240.07607951965824,-197.3636056945426,-315.16997839914745,56.49900000001071
312472.2197,-190.56448662634358,-241.05076205141845,-191.1928452876624,-319.2982282835715,56.5
312472.2207,-174.76058263046795,-238.1897202820845,-181.31064440789322,-318.41664626553893,56.50099999998929
312472.2217,-155.6423380514289,-231.18445380290984,-167.50644111178224,-312.1087500571727,56.50199999997858
312472.2227,-133.22474876786382,-219.8182957637966,-149.6587331601733,-300.09249933579895,56.50299999996787
312472.2237,-107.60101256771566,-203.98648864033058,-127.75170795068692,-282.2437144811928,56.50399999995716
312472.2247,-78.95530807169489,-183.71250677832168,-101.88878374129406,-258.61380903125297,56.50500000000466
312472.2257,-47.57216389828813,-159.15944735312763,-72.30204923997685,-229.44062726642625,56.505999999993946
312472.2267,-13.841479596989032,-130.635539563185,-39.356747770971765,-195.15148936290822,56.506999999983236
312472.2277,21.74150428496833,-98.593125052625,-3.550179553918561,-156.35792646223734,56.507999999972526
312472.2287,58.581694062439304,-63.620822869322474,34.49532085923541,-113.84201602722548,56.508999999961816
312472.2297,95.99516096188827,-26.428986144070446,74.04535287919454,-68.53467810719339,56.51000000000931
312472.2307,133.22541228761625,12.171042400487025,114.2720461575378,-21.48673647067362,56.5109999999986
312472.2317,169.4643014786604,51.29299222014639,154.27763638228978,26.166045057495673,56.51199999998789
312472.2327,203.87666413228885,90.00583469640426,193.12207407497132,73.24239957598596,56.51299999997718
312472.2337,235.62753007665538,127.36660214960934,229.85347708522974,118.55766392703725,56.51399999996647
312472.2347,263.9106041720225,162.4542426628226,263.54006814094276,160.96660629984189,56.51499999995576
312472.2357,287.9766414191528,194.40284806882784,293.3021548910584,199.40499542630025,56.51600000000326
312472.2367,307.1603676597344,222.43265090333054,318.342715986747,232.92801751515918,56.51699999999255
312472.2377,320.9047098468901,245.87734540455133,337.9752498214646,260.74383908438233,56.51799999998184
312472.2387,328.78128621351823,264.20653282108685,351.64771238404893,282.24089601418945,56.51899999997113
312472.2397,330.50634746615884,277.0424009532316,358.9616011988743,297.0078390127221,56.51999999996042
312472.2407,325.95163253391445,284.1700962758454,359.68551344689286,304.8454572085852,56.521000000007916
312472.2417,315.1498824567034,285.5416066827088,353.7627961472693,305.77030757655285,56.521999999997206
312472.2427,298.29502118767056,281.2733171660176,341.31319316285277,300.01017242366663,56.522999999986496
312472.2437,275.73724355239733,271.6377060603786,322.62865857509644,287.9918275255749,56.523999999975786
312472.2447,247.9734348356531,257.04989734118004,298.1637334179738,270.3219117557883,56.524999999965075
312472.2457,215.6334762630904,238.049962713116,268.52106263669776,247.7619328504016,56.52600000001257
312472.2467,179.46306536596765,215.28197065198432,234.43275666854754,221.1986168302792,56.52700000000186
312472.2477,140.30370525052888,189.4708098565886,196.73837776063297,191.61090970116584,56.52799999999115
312472.2487,99.07050241468231,161.3977796046259,156.36036021920913,160.03497341999594,56.52899999998044
312472.2497,56.72837250114639,131.8758521307109,114.27766497884565,127.52849171471185,56.52999999996973
312472.2507,14.267202148937995,101.7253885518497,71.49843317158665,95.1355258671015,56.53099999995902
312472.2517,-27.323532799850646,71.75094776014149,29.032352512761452,63.85304818079143,56.53200000000652
312472.2527,-67.08022519703579,42.71968440030494,-12.136604642879105,34.60014396828002,56.53299999999581
312472.2537,-104.09021263460181,15.341702700914812,-51.07646271975355,8.190723020855192,56.5339999999851
312472.2547,-137.51599714451726,-9.747370979306059,-86.93197395417708,-14.689571651475188,56.53499999997439
312472.2557,-166.61809376381086,-32.00140574714104,-118.9472548208644,-33.501719385126876,56.53599999996368
312472.2567,-190.7759366817185,-50.976220844830706,-146.48579749415,-47.86654469499833,56.537000000011176
312472.2577,-209.50621088535706,-66.33933257278623,-169.047333336696,-57.57254260465712,56.538000000000466
312472.2587,-222.47792698507052,-77.87683552909206,-186.28103452567788,-62.57816642848204,56.538999999989755
312472.2597,-229.52353328438363,-85.49723773320054,-197.9945609950219,-63.008558765289216,56.539999999979045
312472.2607,-230.6453773777032,-89.23205124364588,-204.15850358950445,-59.14682810187797,56.540999999968335
312472.2617,-226.0169019513413,-89.23294049773695,-204.90585033894797,-51.42010064685457,56.541999999957625
312472.2627,-215.97809367282778,-85.76526205609726,-200.52621811457277,-40.38071340509893,56.54300000000512
312472.2637,-201.02490163493218,-79.19790047104138,-191.45474972180082,-26.68306142915603,56.54399999999441
312472.2647,-181.79259745890684,-69.98941945867861,-178.25577489292485,-11.056768008175121,56.5449999999837
312472.2657,-159.0333506100775,-58.67070353128897,-161.60156548530324,5.72299376170515,56.54599999997299
312472.2667,-133.5886212616345,-45.82445487931738,-142.24676809432523,22.867044405223645,56.54699999996228
312472.2677,-106.35730586625563,-32.062120274837746,-120.99935450875277,39.604483328289994,56.54800000000978
312472.2687,-78.26088134648352,-17.999035516185756,-98.689172240913,55.21448169998221,56.54899999999907
312472.2697,-50.20705593637251,-4.2287702975342025,-76.13538287939761,69.05627947276345,56.54999999998836
312472.2707,-23.05362370504866,8.702186280925087,-54.11422528334146,80.59606771756201,56.55099999997765
312472.2717,2.425684392546369,20.31815901417853,-33.32861669706665,89.4294856012779,56.55199999996694
312472.2727,25.571571103682427,30.235170064728916,-14.381095544844118,95.29857864526797,56.55299999995623
312472.2737,45.864106935162546,38.177757943934246,2.248491040558914,98.10225223127323,56.554000000003725
312472.2747,62.94080315996198,43.990656663659394,16.2193430866453,97.89950725343991,56.554999999993015
312472.2757,76.60673180658192,47.644480609733314,27.33916892262379,94.90505372244493,56.555999999982305
312472.2767,86.83601344377314,49.23485249204775,35.56615539634097,89.47724870950252,56.556999999971595
312472.2777,93.76446174971392,48.97475772763466,41.003241363789044,82.098679266347,56.557999999960884
312472.2787,97.67366836919378,47.180287379904236,43.88490399621643,73.35008843005974,56.55900000000838
312472.2797,98.96730132811165,44.250318882285555,44.557082243607915,63.87870168982542,56.55999999999767
312472.2807,98.14084445750343,40.641053723585884,43.451250411814186,54.362331423941306,56.56099999998696
312472.2817,95.74639545927293,36.83665945386854,41.053993313736605,45.47089876655724,56.56199999997625
312472.2827,92.35444229229978,33.317527859195366,37.8737021513022,37.8272001794939,56.56299999996554
312472.2837,88.51473309644823,30.527844235396753,34.40619097639518,31.968847749540625,56.56400000001304
312472.2847,84.71843227166772,28.84425199622603,31.101116429133157,28.313320614993994,56.56500000000233
312472.2857,81.36371018549978,28.547386056009707,28.331063465482142,27.127977609007576,56.56599999999162
312472.2867,78.72674912099515,29.797937493980474,26.365037914496668,28.50670081317231,56.56699999998091
312472.2877,76.93987312773106,32.618706989834365,25.347889613130963,32.35457356034923,56.5679999999702
312472.2887,75.97814004514734,36.88381697367117,25.286889402842974,38.38165603494501,56.56899999995949
312472.2897,75.65529071424187,42.31589850776932,26.046315694824962,46.106522053413485,56.570000000006985
312472.2907,75.62945752578435,48.49166820682922,27.35049131343181,54.86977967224537,56.570999999996275
312472.2917,75.4185184672057,54.85588475138668,28.795270924798924,63.85733563948248,56.571999999985565
312472.2927,74.42447101099405,60.743246304033285,29.8675366824772,72.1327000208224,56.572999999974854
312472.2937,71.96571916074073,65.40738144705907,29.971837792177805,78.67718331250506,56.573999999964144
312472.2947,67.31574133931716,68.05571748647051,28.462930210869445,82.4364339560715,56.57500000001164
312472.2957,59.7462579233593,67.88869879301845,24.682654906242032,82.37141781722053,56.57600000000093
312472.2967,48.57276218257703,64.14158850817779,17.99935283954827,77.51166909089669,56.57699999999022
312472.2977,33.2001291960257,56.12692969831704,7.847863708285529,67.00845765661539,56.57799999997951
312472.2987,13.16598045026304,43.27567293503033,-6.231899666247866,50.18543125384906,56.5789999999688
312472.2997,-11.820442026472143,25.17499811898475,-24.55976680479537,26.584308423208725,56.57999999995809
312472.3007,-41.8459539133713,1.6009669322604565,-47.285343223747155,-3.996677549711252,56.58100000000559
312472.3017,-76.76943897246154,-27.455667230558152,-74.36486679031603,-41.47365409525272,56.58199999999488
312472.3027,-116.20760574123321,-61.77190152925158,-105.54619274046175,-85.4590460555574,56.58299999998417
312472.3037,-159.53147384643052,-100.88426264315964,-140.36285512121074,-135.25589761559922,56.58399999997346
312472.3047,-205.8740973975446,-144.0906331066979,-178.13775179326524,-189.86541029226754,56.58499999996275
312472.3057,-254.14953365117177,-190.46242738440003,-217.9965753669259,-248.00797681580082,56.586000000010245
312472.3067,-303.0825640382215,-238.8669920702595,-258.89068190993567,-308.15740269269526,56.586999999999534
312472.3077,-351.24819242315033,-287.99967197820365,-299.6286705877432,-368.587405598735,56.587999999988824
312472.3087,-397.1195012465138,-336.4245617430609,-338.9155568949748,-427.42889306891135,56.588999999978114
312472.3097,-439.12205709758473,-382.62256596373913,-375.3980745117831,-482.7359681401226,56.589999999967404
312472.3107,-475.69273814227904,-425.0450349545957,-407.71434905214755,-532.5581280464567,56.59099999995669
312472.3117,-505.34061924607596,-462.1709428066034,-434.5459623489196,-575.0157295410222,56.59200000000419
312472.3127,-526.707406772583,-492.5653443858797,-454.6702780537431,-608.3755207880178,56.59299999999348
312472.3137,-538.6248716133792,-514.93670205751,-467.0108360583986,-631.1229054661313,56.59399999998277
312472.3147,-540.1667909630509,-528.1906237622917,-470.68365033321817,-642.02762605533,56.59499999997206
312472.3157,-530.6930784272854,-531.477611492197,-465.03736538538413,-640.1997396735289,56.59599999996135
312472.3167,-509.8840561481538,-524.2325892994882,-449.6854404910649,-625.1331122112439,56.59700000000885
312472.3177,-477.76319516679024,-506.20426369189084,-424.52883384703745,-596.7341660129731,56.59799999999814
312472.3187,-434.7071095752695,-477.4727612387573,-389.7680416838508,-555.3342636179547,56.59899999998743
312472.3197,-381.44211911980113,-438.4544759004462,-345.9037958023565,-501.6848653764183,56.59999999997672
312472.3207,-319.0272715344947,-389.8936220267681,-293.7262173709639,-436.9354231044722,56.60099999996601
312472.3217,-248.82431315320912,-332.8406012329264,-234.29274105834853,-362.59481918656263,56.6019999999553
312472.3227,-172.4556841066523,-268.61791988371397,-168.8956343551793,-280.4779804516955,56.603000000002794
312472.3237,-91.75216104767,-198.77500255637162,-99.02041358244419,-192.64003820423153,56.603999999992084
312472.3247,-8.692245064984485,-125.03379859450672,-26.29687282489709,-101.30102326360985,56.60499999998137
312472.3257,74.66423225698215,-49.22753887527482,47.555229598698936,-8.76453887437927,56.60599999997066
312472.3267,156.24555762892447,26.76466140665112,120.7835594519644,82.66588272843602,56.60699999995995
312472.3277,234.03779409022346,101.08446245230415,191.66129592194025,170.76897639825717,56.60800000000745
312472.3287,306.1518247648599,171.9592896704236,258.5435624961769,253.48287532977818,56.60899999999674
312472.3297,370.8851174835192,237.76283591948066,319.9199694586625,328.97389511932624,56.60999999998603
312472.3307,426.7758276874721,297.0685189559461,374.46127021153063,395.69418437301886,56.61099999997532
312472.3317,472.6472424775478,348.6937234759105,421.0584494351888,452.42607524025885,56.61199999996461
312472.3327,507.64103148519564,391.73314281784207,458.85293772848985,498.3116671404734,56.61300000001211
312472.3337,531.2382817251073,425.580088181506,487.2570603885527,532.8669121093612,56.6140000000014
312472.3347,543.2678247231706,449.93521920100386,505.9642537263115,555.9801978127077,56.61499999999069
312472.3357,543.9018879817609,464.80273581973,514.9489998124641,567.8961069614655,56.61599999997998
312472.3367,533.639596033909,470.4746277703695,514.4568228890051,569.1856398497155,56.616999999969266
312472.3377,513.2792906673316,467.50407955560104,504.98504555223496,560.7046989856639,56.617999999958556
312472.3387,483.8810224123642,456.66955645313095,487.2553123430735,543.543038923514,56.619000000006054
312472.3397,446.7208781752864,438.9314375464152,462.1791483640806,518.9661757280928,56.61999999999534
312472.3407,403.23904930159966,415.3833075550279,430.81802928065036,488.35293032482514,56.62099999998463
312472.3417,354.98370986196164,387.2001675943765,394.33959609276786,453.13135367491776,56.62199999997392
312472.3427,303.55286802903913,355.58587709001193,353.9717530393385,414.7157568005811,56.62299999996321
312472.3437,250.53637645584348,321.72209896678913,310.9564389474347,374.44745331050353,56.62400000001071
312472.3447,197.46024317309866,286.7208940817764,266.5048594093023,333.54162399001297,56.625
312472.3457,145.73527513514364,251.58290635104422,221.755906878903,293.0424391937543,56.62599999998929
312472.3467,96.61191447515134,217.16280602282617,177.73937570133688,253.78823160755226,56.62699999997858
312472.3477,51.14289532808126,184.14332507154361,135.34539780754497,216.388105918671,56.62799999996787
312472.3487,10.15506010203213,153.01883687971008,95.30128295319024,181.21091057317793,56.62899999995716
312472.3497,-25.768666833935526,124.0890146376009,58.1566485548574,148.38698967466544,56.63000000000466
312472.3507,-56.296535964247184,97.46266293944203,24.27737561019247,117.8225926824141,56.630999999993946
312472.3517,-81.34426914614474,73.07136989094819,-6.151459963204036,89.22626188946981,56.631999999983236
312472.3527,-101.06064925109607,50.69218878082154,-33.113942015261244,62.14596234243201,56.632999999972526
312472.3537,-115.80310814100045,29.97814590081689,-56.743632504092226,36.01518885958959,56.633999999961816
312472.3547,-126.1044596480445,10.49500159754302,-77.29693209993685,10.205805547579402,56.63500000000931
312472.3557,-132.63233547789136,-8.237618087521941,-95.12092565616592,-15.915028665613185,56.6359999999986
312472.3567,-136.14324210917275,-26.702836101601502,-110.6174605470115,-42.92679331840811,56.63699999998789
312472.3577,-137.4334450724098,-45.34314738856024,-124.2054327090918,-71.29951442091942,56.63799999997718
312472.3587,-137.2890842210611,-64.51935724491405,-136.2833866396167,-101.34278747280928,56.63899999996647
312472.3597,-136.4380134872908,-84.47407980596522,-147.19455916951685,-133.16292051240916,56.63999999995576
312472.3607,-135.50582929115362,-105.30186920874367,-157.19640567897545,-166.63090231614675,56.64100000000326
312472.3617,-134.9783971096369,-126.9277761357086,-166.43644108880554,-201.36344075942299,56.64199999999255
312472.3627,-135.17290632587043,-149.09574293914906,-174.93591284156983,-236.71871054675896,56.64299999998184
312472.3637,-136.21908736457365,-171.36778506028656,-182.58241248293373,-271.80772267827666,56.64399999997113
312472.3647,-138.05172779402693,-193.1343742418189,-189.1320461484206,-305.52141423248196,56.64499999996042
312472.3657,-140.41504816609262,-213.63586437149627,-194.2212476243841,-336.5726983488941,56.646000000007916
312472.3667,-142.8788726482681,-231.9942120525142,-197.38776031414068,-363.55185845678056,56.646999999997206
312472.3677,-144.86588741013145,-247.25367227380553,-198.09976858431122,-384.99286848733055,56.647999999986496
312472.3687,-145.68865743579573,-258.42862698668864,-195.79165735049511,-399.4475223191771,56.648999999975786
312472.3697,-144.59450662661035,-264.5562622006423,-189.90445259368536,-405.56370745652356,56.649999999965075
312472.3707,-140.81589153146717,-264.751475598409,-179.9286723201389,-402.16379899488203,56.65100000001257
312472.3717,-133.6235463240509,-258.2611947763537,-165.4471192090038,-388.31900886118393,56.65200000000186
312472.3727,-122.37946979620808,-244.51523224192377,-146.17508750015728,-363.4156176289281,56.65299999999115
312472.3737,-106.58677989067732,-223.1709050163352,-121.9955437822233,-327.20934262819486,56.65399999998044
312472.3747,-85.93358370915037,-194.14890245954862,-92.98707138583356,-279.86464186352424,56.65499999996973
312472.3757,-60.328296631796704,-157.6582843763786,-59.44272909579257,-221.97648874478665,56.65599999995902
312472.3767,-29.92427833806053,-114.20901184191577,-21.878446395646463,-154.57303494218922,56.65700000000652
312472.3777,4.867788448646035,-64.61102654314652,18.969868277716444,-79.09855458950679,56.65799999999581
312472.3787,43.380701587647316,-9.959565430662819,62.16072592963123,2.62292709583275,56.6589999999851
312472.3797,84.70494937950086,48.39291317619738,106.57256457856005,88.44193556292412,56.65999999997439
312472.3807,127.7158393323582,108.87714856202146,150.93937501728283,175.95349821494088,56.66099999996368
312472.3817,171.11237977147707,169.75819133998746,193.89491867889583,262.57970677135626,56.662000000011176
312472.3827,213.46614132216118,229.1950488289725,234.02356496434086,345.6612728492238,56.663000000000466
312472.3837,253.27782368535182,285.3063066156335,269.915440716987,422.55408402702886,56.663999999989755
312472.3847,289.03888198553614,336.2389161524555,300.22337680149735,490.7266082447523,56.664999999979045
312472.3857,319.29534171208076,380.2372286533879,323.7190620388898,547.8540462900077,56.665999999968335
312472.3867,342.7108570711259,415.7093887507212,339.34587036495316,591.9053776899444,56.666999999957625
312472.3877,358.12613991616143,441.28836647555,346.266002556595,621.2198563244541,56.66800000000512
312472.3887,364.6120926076101,455.8851854934236,343.8998626846219,634.5700532595012,56.66899999999441
312472.3897,361.5142992808117,458.732277122553,331.9559510962238,631.2091773243287,56.6699999999837
312472.3907,348.48694336493764,449.4153294362036,310.44997789481033,610.9010909973802,56.67099999997299
312472.3917,325.5147004985976,427.8924848272281,279.7123614096987,573.9321458502865,56.67199999996228
312472.3927,292.92168121959264,394.5002457529937,240.38375452177405,521.1046591460298,56.67300000000978
312472.3937,251.3670445191709,349.94595777999746,193.39871995306572,453.7125184291316,56.67399999999907
312472.3947,201.82745129063414,295.287235433425,139.95813852726312,373.5000172924367,56.67499999998836
312472.3957,145.56705783413403,231.89916645689019,81.49136919625165,282.60558106322935,56.67599999997765
312472.3967,84.09624767639447,161.43056268537535,19.60957526074541,183.49252732659153,56.67699999996694
312472.3977,19.12074997657183,85.75091073786653,-43.948022504694514,78.86941596975815,56.67799999995623
312472.3987,-47.51681974298094,6.8900033295859,-107.37291830756237,-28.39713015875304,56.679000000003725
312472.3997,-113.90065006903792,-73.02750788311467,-168.84885504378408,-135.37401762647994,56.679999999993015
312472.4007,-178.1080886940859,-151.85021475032602,-226.613718947827,-239.15443620869854,56.680999999982305
312472.4017,-238.2759783221233,-227.46819294477555,-279.01935031617404,-336.9484963882325,56.681999999971595
312472.4027,-292.6642867516308,-297.8788654052979,-324.5868814187807,-426.1685641703462,56.682999999960884
312472.4037,-339.71446195009327,-361.24808003818174,-362.0553753848122,-504.50632084526,56.68400000000838
312472.4047,-378.10018264003156,-415.96420388548967,-390.4218106195311,-569.9989124107854,56.68499999999767
312472.4057,-406.7685314339525,-460.6833485619192,-408.97082926307615,-621.0820069827649,56.68599999998696
312472.4067,-424.9700776491243,-494.36424539268495,-417.29313292928805,-656.6281339720138,56.68699999997625
312472.4077,-432.27689914899946,-516.2917656686598,-415.29194410581715,-675.9693127775427,56.68799999996554
312472.4087,-428.58816780064086,-526.0886072712021,-403.1775293053419,-678.9036599523772,56.68900000001304
312472.4097,-414.1235362223679,-523.7152135795169,-381.4503664353762,-665.6863547667906,56.69000000000233
312472.4107,-389.40515561679763,-509.4585206249613,-350.87409633498436,-637.0060029554551,56.69099999999162
312472.4117,-355.2296863864921,-483.91060983729625,-312.4398888830174,-593.9480264536443,56.69199999998091
312472.4127,-312.63209876036564,-447.93874488270285,-267.32424234179996,-537.9471863551471,56.6929999999702
312472.4137,-262.84337028974386,-402.64856610467064,-216.84249197082278,-470.7316881049817,56.69399999995949
312472.4147,-207.2443509507895,-349.34238739555576,-162.40041132146476,-394.26150377654017,56.695000000006985
312472.4157,-147.31807672660332,-289.4745807297955,-105.4462397748844,-310.663570648932,56.695999999996275
312472.4167,-84.60267383413093,-224.60594711235873,-47.42526861151865,-222.16639610401037,56.696999999985565
312472.4177,-20.646725681360067,-156.35877434153699,10.261216124351435,-131.03633664684625,56.697999999974854
312472.4187,43.03139839130691,-86.37399624348107,66.29127243632486,-39.5174546097752,56.698999999964144
312472.4197,104.97919293108659,-16.271526349848237,119.45106208860628,50.22357204418504,56.70000000001164
312472.4207,163.8400497381785,52.38552353603193,168.65669152367656,136.14646221782948,56.70100000000093
312472.4217,218.37752801158277,118.12237770188584,212.96929118292118,216.37967529056073,56.70199999999022
312472.4227,267.49410827682107,179.57982413937413,251.60392206743873,289.25587574746254,56.70299999997951
312472.4237,310.2449853780363,235.5373077212259,283.93323100705794,353.3406109761548,56.7039999999688
312472.4247,345.84765745681466,284.93220705526136,309.4869863713193,407.45450187276697,56.70499999995809
312472.4257,373.68815319527386,326.87566739761047,327.9487028741699,450.68935429056023,56.70600000000559
312472.4267,393.3247110018874,360.66532989721696,339.15050978295795,482.41861555413647,56.70699999999488
312472.4277,404.489594834404,385.7951936097473,343.06724579062325,502.30254091062295,56.70799999998417
312472.4287,407.08952499519665,401.96269339176536,339.8105012506957,510.28832392347647,56.70899999997346
312472.4297,401.20494832165,409.072901126411,329.6230074966455,506.60531081350393,56.70999999996275
312472.4307,387.08810419244077,407.2395887773434,312.87343112700904,491.755291060983,56.711000000010245
312472.4317,365.1595944040325,396.7827572891125,290.05130674623814,466.4977624896893,56.711999999999534
312472.4327,336.00296694204695,378.22215892917393,261.7615701192736,431.8300308198075,56.712999999988824
312472.4337,300.3567007683953,352.26633925532275,228.71796427097766,388.96203627289947,56.713999999978114
312472.4347,259.1029475889538,319.7968070987347,191.73450421938196,339.28590943582765,56.714999999967404
312472.4357,213.2524541750137,281.8471061606399,151.7142117603304,284.34044207549545,56.71599999995669
312472.4367,163.92525208216392,239.57680023335433,109.6344687850001,225.77090374548553,56.71700000000419
312472.4377,112.32694775198739,194.24067763225688,66.52857386117202,165.28492181903533,56.71799999999348
312472.4387,59.72075383011687,147.15380459807545,23.46340046733048,104.60544513249995,56.71899999998277
312472.4397,7.395744604258102,99.65338343586635,-18.486582940690617,45.42210048413546,56.71999999997206
312472.4407,-43.36783645658217,53.05866874573328,-58.26829494599562,-10.657502974049654,56.72099999996135
312472.4417,-91.33507305970872,8.630435356892255,-94.88103479399219,-62.154791326337815,56.72200000000885
312472.4427,-135.35327538441163,-32.46835038060814,-127.40819827738332,-107.76375339373998,56.72299999999814
312472.4437,-174.38770873176426,-69.20894699268996,-155.04821253105567,-146.38919248889837,56.72399999998743
312472.4447,-207.5545079499289,-100.72868688344504,-177.1430793069334,-177.17805798754878,56.72499999997672
312472.4457,-234.14917642630527,-126.35676919059443,-193.20292898099476,-199.54246517273734,56.72599999996601
312472.4467,-253.66922350698718,-145.63277845053224,-202.92512244968472,-213.17336374902322,56.7269999999553
312472.4477,-265.8297528965634,-158.31706923972956,-206.20668707507133,-218.0442451918552,56.728000000002794
312472.4487,-270.5711592310564,-164.3925783518263,-203.14921794890236,-214.40475856717723,56.728999999992084
312472.4497,-268.05849588497244,-164.05808088465554,-194.05579073099176,-202.76460091597207,56.72999999998137
312472.4507,-258.6725145776618,-157.7133621413152,-179.4198850687617,-183.86852719658486,56.73099999997066
312472.4517,-242.99281460360743,-145.9372006034227,-159.9067730536575,-158.6637526536652,56.73199999995995
312472.4527,-221.77394511997855,-129.45941812843145,-136.32825046721044,-128.26136780468406,56.73300000000745
312472.4537,-195.915649632862,-109.12852683674872,-109.61194821486018,-93.89362987468787,56.73399999999674
312472.4547,-166.4287048777177,-85.87667001911524,-80.76673194951448,-56.86911961283383,56.73499999998603
312472.4557,-134.39797120836207,-60.68360760486337,-50.84586227597681,-18.52775350130525,56.73599999997532
312472.4567,-100.94433122832275,-34.541435355453956,-20.90963838705565,19.802477482149822,56.73699999996461
312472.4577,-67.18714910830612,-8.421560086988679,8.010813471883049,56.84539710913528,56.73800000001211
312472.4587,-34.20874421618898,16.7548020279708,34.94710761966931,91.41182768763451,56.7390000000014
312472.4597,-3.0221554624107805,40.14165730983266,59.02326811573637,122.42910691669557,56.73999999999069
312472.4607,25.456801780956326,60.988207666090894,79.48054781885673,148.96437879765912,56.74099999997998
312472.4617,50.43249222455457,78.65354237728931,95.69677986914196,170.2415020833408,56.741999999969266
312472.4627,71.2470532547909,92.6161725652355,107.19998245348087,185.6517932385068,56.742999999958556
312472.4637,87.39254796641629,102.47883377323457,113.6762548388108,194.75913980388648,56.744000000006054
312472.4647,98.51786973598543,107.96921796780404,114.9722772147494,197.30026395079483,56.74499999999534
312472.4657,104.43080508876606,108.937452303855,111.09294284388767,193.18107078088826,56.74599999998463
312472.4667,105.0958155266326,105.35121084524309,102.19479850987939,182.47007458341278,56.74699999997392
312472.4677,100.62818622244396,97.28932695790913,88.5760448443822,165.3898592781187,56.74799999996321
312472.4687,91.28521086559411,84.9346750846466,70.66385454911511,142.30740446191422,56.74900000001071
312472.4697,77.45504367584114,68.56692409004178,48.9997120673208,113.7239104831017,56.75
312472.4707,59.64376258355508,48.555548501671225,24.223375675198174,80.26450531439046,56.75099999998929
312472.4717,38.46106637312557,25.353240695399275,-2.94407168843767,42.66793773983283,56.75199999997858
312472.4727,14.604890188762486,-0.5103795763536926,-31.717765330302516,1.7760833549760888,56.75299999996787
312472.4737,-11.15491382370363,-28.43508757245771,-61.26702255570802,-41.47715932728568,56.75399999995716
312472.4747,-37.99380339922748,-57.75691898673712,-90.73367766460626,-86.07819875025105,56.75500000000466
312472.4757,-65.05073910903688,-87.75620816619268,-119.25082592151905,-130.94803665170127,56.755999999993946
312472.4767,-91.44744238247345,-117.6674699064502,-145.96205480206885,-174.9592596726098,56.756999999983236
312472.4777,-116.30880527674434,-146.6917509842845,-170.04122862132093,-216.95639803223412,56.757999999972526
312472.4787,-138.78447165043994,-174.01194653145012,-190.71282707832268,-255.78012056660918,56.758999999961816
312472.4797,-158.07149136916925,-198.8113656589996,-207.27272427726444,-290.295446881292,56.76000000000931
312472.4807,-173.43778934684246,-220.2955545047117,-219.1091426496114,-319.4237915112315,56.7609999999986
312472.4817,-184.2460036324875,-237.71706361135375,-225.72334064823653,-342.1782387045255,56.76199999998789
312472.4827,-189.9770491322031,-250.40250572401956,-226.74941218330042,-357.7010129138147,56.76299999997718
312472.4837,-190.25257589848835,-257.7809182342373,-221.97240940820203,-365.30169621288917,56.76399999996647
312472.4847,-184.8553337534432,-259.4121509036965,-211.343868627892,-364.49438741751396,56.76499999995576
312472.4857,-173.74634758934292,-255.01377187090534,-194.99374006827142,-355.0317341604255,56.76600000000326
312472.4867,-157.0777662049442,-244.4848470108044,-173.23771083456631,-336.9336286985643,56.76699999999255
312472.4877,-135.20028354161022,-227.9249171226441,-146.57897642405038,-310.508362892292,56.76799999998184
312472.4887,-108.664150350738,-205.6465840386127,-115.70366330227266,-276.36419942607114,56.76899999997113
312472.4897,-78.21299568605346,-178.1803216132327,-81.46933012617703,-235.40963514257095,56.76999999996042
312472.4907,-44.76995339975857,-146.27044255241566,-44.886268140183596,-188.84109646677967,56.771000000007916
312472.4917,-9.415924925395819,-110.86156037620619,-7.0916657448177265,-138.11739293175512,56.771999999997206
312472.4927,26.639813301663487,-73.07536327061398,30.68292312582898,-84.92092948184809,56.772999999986496
312472.4937,62.09605441136738,-34.178033473445886,67.14998700892886,-31.106400732870902,56.773999999975786
312472.4947,95.60216602531438,4.460830629675297,101.00916155677662,21.361584478247007,56.774999999965075
312472.4957,125.80530681069838,41.41643559978797,130.9935360759013,70.4798182670977,56.77600000001257
312472.4967,151.40070205119363,75.2623639477943,155.91741867548012,114.28402409245783,56.77700000000186
312472.4977,171.183093083929,104.62734705559934,174.723651274302,150.92940843187458,56.77799999999115
312472.4987,184.09732722903115,128.2528423475329,186.52849384468882,178.77072517126578,56.77899999998044
312472.4997,189.28599817117185,145.04888566106868,190.66212285991264,196.4382039313216,56.77999999996973
312472.5007,186.13208313622576,154.1456822317544,186.70290930217357,202.9057365130603,56.78099999995902
312472.5017,174.29464894547036,154.93851416078977,174.50384836074528,197.54793966332562,56.78200000000652
312472.5027,153.73590623308732,147.12377028482993,154.20979317747697,180.18310540569638,56.78299999999581
312472.5037,124.73816895541287,130.72423242527674,126.26448281261293,151.0995918659062,56.7839999999851
312472.5047,87.90961237390341,106.10216282516325,91.4067328511506,111.06387107570917,56.78499999997439
312472.5057,44.178104111872415,73.95921187734272,50.65555880648462,61.30920461627395,56.78599999996368
312472.5067,-5.22720273101269,35.3226829959128,5.284412139107941,3.5047297984727406,56.787000000011176
312472.5077,-58.806389596085324,-8.481767011142317,-43.2148872030909,-60.294425664051886,56.788000000000466
312472.5087,-114.83083422760302,-55.87036723223766,-93.17755055691775,-127.71455735103143,56.788999999989755
312472.5097,-171.3957957868176,-105.05325303014325,-142.81922035390235,-196.14610013469064,56.789999999979045
312472.5107,-226.4820681909626,-154.09660473792545,-190.2957107814092,-262.8387101532829,56.790999999968335
312472.5117,-278.0248319990765,-200.99278351936408,-233.76714499265861,-325.0051672182878,56.791999999957625
312472.5127,-323.9874566393737,-243.73594676268903,-271.4643092015693,-379.93007004322095,56.79300000000512
312472.5137,-362.43767840343554,-280.40030692407277,-301.75486726297106,-425.07896510554207,56.79399999999441
312472.5147,-391.62332370054236,-309.21797331428746,-323.20697117736415,-458.2033887428762,56.7949999999837
312472.5157,-410.0445812270042,-328.6532012518097,-334.6477740451244,-477.4373265367578,56.79599999997299
312472.5167,-416.5197705933383,-337.4698809216783,-335.2144128543,-481.38081348428864,56.79699999996228
312472.5177,-410.2416262409874,-334.7892397403537,-324.39518817566085,-469.1668147341905,56.79800000000978
312472.5187,-390.8213276063223,-320.1350129081525,-302.0589323291656,-440.508132642351,56.79899999999907
312472.5197,-358.3178662988792,-293.46375670354536,-268.4709280744109,-395.7218643762568,56.79999999998836
312472.5207,-313.2508467015589,-255.1785298186303,-224.2942112850813,-335.7298574656664,56.80099999997765
312472.5217,-256.59545578579264,-206.12483294239644,-170.57565097989186,-262.03464047200134,56.80199999996694
312472.5227,-189.75908805832512,-147.5684503658501,-108.71682835238799,-176.67139523130217,56.80299999995623
312472.5237,-114.53993886699642,-81.15564596068592,-40.43040559718642,-82.13763205376188,56.804000000003725
312472.5247,-33.06874121138042,-8.856989211522503,32.31664816104549,18.6967276618265,56.804999999993015
312472.5257,52.264331270759776,67.10311944122519,107.37096020229842,122.69522309177866,56.805999999982305
312472.5267,138.89479126396634,144.32843659533694,182.4691958923918,226.57227018889083,56.806999999971595
312472.5277,224.177526704419,220.3409908277005,255.319976710737,327.0171487080738,56.807999999960884
312472.5287,305.48508213824454,292.67549622681616,323.6878801258568,420.8192632916106,56.80900000000838
312472.5297,380.30626011333396,358.9739806430244,385.47595773427395,504.9893190308927,56.80999999999767
312472.5307,446.34068977058774,417.07649402298557,438.8032174913815,576.8712530669738,56.81099999998696
312472.5317,501.58516090850634,465.10392191701624,482.07370773094226,634.2402168812766,56.81199999997625
312472.5327,544.4078981477417,501.5292920909407,514.0342073659256,675.3825822497193,56.81299999996554
312472.5337,573.6075301687295,525.2345082499381,533.8180494647272,699.1548081254584,56.81400000001304
312472.5347,588.454258857922,535.5501432870783,540.9732558287112,705.0190071181379,56.81500000000233
312472.5357,588.7116076120657,532.276735571267,535.4739020677213,693.0541337540976,56.81599999999162
312472.5367,574.638075015213,515.6869100442666,517.7144245843965,663.942824830971,56.81699999998091
312472.5377,546.9689843951224,486.5085429329591,488.48737899941005,618.9349984221649,56.8179999999702
312472.5387,506.87974676344004,445.89005659393194,448.9459203936873,559.7903100813458,56.81899999995949
312472.5397,455.93259387233996,395.3497244257684,400.5529588120355,488.7024269207013,56.820000000006985
312472.5407,396.00954626889865,336.71154557039483,345.019513579278,408.20877557244165,56.820999999996275
312472.5417,329.23492448767666,272.030783549291,284.23521915919315,321.0899217019507,56.821999999985565
312472.5427,257.89106714763403,203.5126293427699,220.1942042109099,230.26303057036728,56.822999999974854
312472.5437,184.33107680498293,133.42763488564498,154.91966436115047,138.67393488700523,56.823999999964144
312472.5447,110.89237389696774,64.02756482145864,90.39037805629609,49.1922031749792,56.82500000001164
312472.5457,39.81461308388065,-2.534860191260411,28.472183342812446,-35.486725703876644,56.82600000000093
312472.5467,-26.834873295621026,-64.2791899776225,-29.142939957441648,-112.92877434097572,56.82699999999022
312472.5477,-87.22546308604207,-119.46077297387752,-80.98802740839704,-181.03489456433317,56.82799999997951
312472.5487,-139.81544270113565,-166.6224933734176,-125.86094431230683,-238.09897987897983,56.8289999999688
312472.5497,-183.39067420812307,-204.63327003116146,-162.85189648229652,-282.8486308065931,56.82999999995809
312472.5507,-217.0890859459433,-232.71254715511296,-191.35830909697853,-314.4681985007957,56.83100000000559
312472.5517,-240.41101676222434,-250.44067786701535,-211.08735242942413,-332.60432412225083,56.83199999999488
312472.5527,-253.21606231694216,-257.755730271144,-222.04694180528065,-337.35491873538814,56.83299999998417
312472.5537,-255.70760351236683,-254.93779955062433,-224.5265010252617,-329.24315620991905,56.83399999997346
312472.5547,-248.406619287809,-242.582362668715,-219.06913242327545,-309.17855222946946,56.83499999996275
312472.5557,-232.1166843732144,-221.5645459821833,-206.43706954822406,-278.4075573982952,56.836000000010245
312472.5567,-207.88222159150305,-192.9963807200386,-187.57239574430403,-238.45629307271045,56.836999999999534
312472.5577,-176.94212123081473,-158.1791963348701,-163.55499806924522,-191.06810698871257,56.837999999988824
312472.5587,-140.6807683753371,-118.55325572897031,-135.55960366475517,-138.13853431498094,56.838999999978114
312472.5597,-100.57835138829168,-75.64658593572184,-104.81353451490085,-81.65003977659377,56.839999999967404
312472.5607,-58.16208476867256,-31.024726134613513,-72.55654136516137,-23.608616361772857,56.84099999995669
312472.5617,-14.959694318266513,13.75717065195794,-40.00376633825113,34.01604135091736,56.84200000000419
312472.5627,27.543790233715267,57.198755972250005,-8.312564996066639,89.34545182561651,56.84299999999348
312472.5637,67.94518400356783,97.8946047113461,21.44638105907856,140.6413830304093,56.84399999998277
312472.5647,104.95774860843127,134.56949238367915,48.31348789901061,186.3483786926132,56.84499999997206
312472.5657,137.44097237914613,166.10851935408223,71.46025578020142,225.12941835424567,56.84599999996135
312472.5667,164.42541029101318,191.58194094983872,90.20497686704314,255.89456096390626,56.84700000000885
312472.5677,185.1325587240633,210.2646693997582,104.02438531786177,277.8225542520679,56.84799999999814
312472.5687,198.98977712475534,221.65046105506178,112.56147060714834,290.3754576374463,56.84899999998743
312472.5697,205.64025976963666,225.46080178225304,115.62962470413687,293.30633909141784,56.84999999997672
312472.5707,204.9480225226845,221.6484718413254,113.21321184697878,286.66008648286703,56.85099999996601
312472.5717,196.99782147487494,210.39572963012364,105.4645577678432,270.767345192854,56.8519999999553
312472.5727,182.08988352015925,192.10702314644783,92.69727585620657,246.23158061326873,56.853000000002794
312472.5737,160.72932286332124,167.39613914385941,75.37580180146074,213.90928857609083,56.853999999992084
312472.5747,133.6101582132897,137.06774899201463,54.10101262323796,174.88345575710963,56.85499999998137
312472.5757,101.59394344388302,102.09341735331722,29.591871493766725,130.4305152589611,56.85599999997066
312472.5767,65.6831831439799,63.582307502889726,2.6631696182566107,81.98125061697326,56.85699999995995
312472.5777,26.98991911305597,22.747039662975816,-25.800374433209743,31.076365615797844,56.85800000000745
312472.5787,-13.299868130437815,-19.134577857652182,-54.873162484745414,-20.682260270900443,56.85899999999674
312472.5797,-53.96511716094088,-60.76094167370266,-83.6201556877082,-71.6832957146154,56.85999999998603
312472.5807,-93.79059722634219,-100.84989054605263,-111.12968873704882,-120.35902798588516,56.86099999997532
312472.5817,-131.60841832144706,-138.1822651120875,-136.5464126437254,-165.23790025904938,56.86199999996461
312472.5827,-166.33849363906356,-171.64409007807353,-159.10294604085053,-204.99447061008036,56.86300000001211
312472.5837,-197.02620226138214,-200.26558865994062,-178.14872425881367,-238.49469025300976,56.8640000000014
312472.5847,-222.8754989439534,-223.2552553986239,-193.17454591027013,-264.83446766401863,56.86499999999069
312472.5857,-243.27583381040716,-240.02734598549014,-203.83143850070667,-283.3696886088377,56.86599999997998
312472.5867,-257.8214797113421,-250.22139099269333,-209.9426974629076,-293.7361957907911,56.866999999969266
312472.5877,-266.3222101525774,-253.7126935314778,-211.50828619463692,-295.85868002424854,56.867999999958556
312472.5887,-268.80470687088246,-250.61320821725144,-208.70119735024647,-289.9479708553322,56.869000000006054
312472.5897,-265.5045750662914,-241.26269171156852,-201.85583869893094,-276.4868031772473,56.86999999999534
312472.5907,-256.84937097568707,-226.2105293231205,-191.4489855074728,-256.2047369523243,56.87099999998463
312472.5917,-243.4335621570676,-206.18914101294646,-178.07429830196864,-230.04347718259282,56.87199999997392
312472.5927,-225.98680652301846,-182.08031781596216,-162.41180360045638,-199.11434025751322,56.87299999996321
312472.5937,-205.3373159934972,-154.8762042808779,-145.1940436475357,-164.65000571674278,56.87400000001071
312472.5947,-182.3723352230483,-125.63689883380762,-127.17079438257905,-127.95295264227836,56.875
312472.5957,-157.9978948248801,-95.44677547025668,-109.0743133259176,-90.34309112159127,56.87599999998929
312472.5967,-133.09998233573162,-65.37163023591414,-91.58700604511803,-53.10705679909226,56.87699999997858
312472.5977,-108.50911499038368,-36.4186280923795,-75.31319779148481,-17.451447329861875,56.87799999996787
312472.5987,-84.97000983436793,-9.500783080115877,-60.75638273785033,15.538038877350878,56.87899999995716
312472.5997,-63.11765271730897,14.592631495708002,-48.30292297575324,44.9300223637908,56.88000000000466
312472.6007,-43.46060040580321,35.21874826998807,-38.21271573439783,69.97237217712693,56.880999999993946
312472.6017,-26.37184699153061,51.896288552591756,-30.616876718361986,90.10811991702269,56.881999999983236
312472.6027,-12.08708669462009,64.31314351302048,-25.522037266076676,104.98235086638111,56.882999999972526
312472.6037,-0.7097485889768667,72.32664453620164,-22.820457911176636,114.44054180810954,56.883999999961816
312472.6047,7.778201320264457,75.95716724185485,-22.304850059122828,118.51922039145855,56.88500000000931
312472.6057,13.500972326027481,75.3759904258391,-23.686592016600848,117.43013089032452,56.8859999999986
312472.6067,16.6706144445334,70.88851759165598,-26.615936863345397,111.53929129408245,56.88699999998789
312472.6077,17.567107484344227,62.91405992494301,-30.702838262775476,101.34241220100888,56.88799999997718
312472.6087,16.518255664615243,51.96337922553427,-35.53715628311041,87.43812425230469,56.88899999996647
312472.6097,13.88057728592056,38.61510902338445,-40.70722912570536,70.50034234721171,56.88999999995576
312472.6107,10.022107890115338,23.49202987269097,-45.81608126574665,51.250903643935814,56.89100000000326
312472.6117,5.30771718919941,7.23799303396054,-50.494852004861194,30.433379556047495,56.89199999999255
312472.6127,0.08720955996450452,-9.503910276601236,-54.41333728960411,8.788709039913817,56.89299999998184
312472.6137,-5.313830469840593,-26.111525590638774,-57.28781009599517,-12.966939987389294,56.89399999997113
312472.6147,-10.600741949842325,-42.00190943658027,-58.886493947659226,-34.16187757981878,56.89499999996042
312472.6157,-15.514513841005128,-56.64756932862898,-59.03319121153873,-54.186111538548275,56.896000000007916
312472.6167,-19.83509569312734,-69.59060298229515,-57.609603428639126,-72.50610745786739,56.896999999997206
312472.6177,-23.383848246244238,-80.45468411491193,-54.5568265247727,-88.67713382981913,56.897999999986496
312472.6187,-26.02559618211458,-88.95481207041442,-49.876371274238466,-102.35319741282234,56.898999999975786
312472.6197,-27.67058201744422,-94.9046822563567,-43.63087001459432,-113.29449396623775,56.899999999965075
312472.6207,-28.276412254749292,-98.22146238666166,-35.94441230313453,-121.37220082293123,56.90100000001257
312472.6217,-27.849864574062273,-98.92769623944466,-27.00223658156809,-126.57034525317141,56.90200000000186
312472.6227,-26.4482196616722,-97.15002185670974,-17.04932362822143,-128.98442021890207,56.90299999999115
312472.6237,-24.179622588090627,-93.11440131315852,-6.387318673657016,-128.81640726403396,56.90399999998044
312472.6247,-21.201890206765874,-87.13762529803893,4.6308262884200255,-126.36591890815544,56.90499999996973
312472.6257,-17.71917828042536,-79.6149816186569,15.609038456798546,-122.01729577841036,56.90599999995902
312472.6267,-13.976010368319857,-71.00415839127604,26.1195306253116,-116.22268355886513,56.90700000000652
312472.6277,-10.248344766168518,-61.8056786403903,35.7175778873525,-109.48135958779542,56.90799999999581
312472.6287,-6.831600875155873,-52.540415377459084,43.95950659480168,-102.3158589529973,56.9089999999851
312472.6297,-4.025858930972531,-43.72499251205496,50.42339273104175,-95.24574006243357,56.90999999997439
312472.6307,-2.1187579789323365,-35.846112468297655,54.7316192091625,-88.76010180244006,56.91099999996368
312472.6317,-1.3669146127504375,-29.335041741004172,56.57412707281942,-83.29019031858999,56.912000000011176
312472.6327,-1.976938153439458,-24.54360917376129,55.730948483992314,-79.18358757838901,56.913000000000466
312472.6337,-4.087299108156267,-21.723111671639767,52.09245902518408,-76.68153567194923,56.913999999989755
312472.6347,-7.7523955976187375,-21.007468013814762,45.675754631508056,-75.90090670627866,56.914999999979045
312472.6357,-12.930143746594988,-22.40181044880684,36.63565584115873,-76.82217278854175,56.915999999968335
312472.6367,-19.47428873537958,-25.77746058382112,25.269069340827556,-79.28446737275796,56.916999999957625
312472.6377,-27.132398666123436,-30.873912845766753,12.011783054663937,-82.98847019664154,56.91800000000512
312472.6387,-35.55017784534027,-37.308064136443406,-2.57278510408598,-87.50741308357735,56.91899999999441
312472.6397,-44.2823414473534,-44.590506086553866,-17.812853416434105,-92.30601956258042,56.9199999999837
312472.6407,-52.809857682277105,-52.14826398409522,-32.954984023031464,-96.76668899144526,56.92099999997299
312472.6417,-60.56291826178438,-59.35295320798255,-47.19712607041429,-100.22174990550545,56.92199999996228
312472.6427,-66.9485763243764,-65.55295879740389,-59.72640606947609,-101.99017241750512,56.92300000000978
312472.6437,-71.38162524526047,-70.10795333808545,-69.75968332199045,-101.41677848316621,56.92399999999907
312472.6447,-73.3170107004314,-72.42387514994398,-76.58461522187632,-97.91175014715644,56.92499999998836
312472.6457,-72.28189513653892,-71.98640934425751,-79.59884914620606,-90.98813122665591,56.92599999997765
312472.6467,-67.90544407552822,-68.3910577805347,-78.3449882979173,-80.29506034528679,56.92699999996694
312472.6477,-59.94448424235678,-61.368050951663875,-72.53917037640072,-65.64466575361304,56.92799999995623
312472.6487,-48.30339150783392,-50.80063713459493,-62.09144036786283,-47.03088702439281,56.929000000003725
312472.6497,-33.04688958477888,-36.73566486728185,-47.11657048588579,-24.638946687278615,56.929999999993015
312472.6507,-14.404856855282343,-19.38582930586621,-27.934549566220138,1.1552525866913173,56.930999999982305
312472.6517,7.231280290315143,0.8765495035702605,-5.060591290584847,29.795919431243064,56.931999999971595
312472.6527,31.32047792742063,23.53384263448536,20.81484923019319,60.56784261576412,56.932999999960884
312472.6537,57.19173456054286,47.944670636194715,48.85495394209911,92.62543011075903,56.93400000000838
312472.6547,84.0704248499255,73.3714360414699,78.11268885731943,125.02868825297595,56.93499999999767
312472.6557,111.10986639717852,99.01223704661359,107.57217817614226,156.784099166722,56.93599999998696
312472.6567,137.42639721748915,124.03535844183249,136.192993221814,186.88808407640533,56.93699999997625
312472.6577,162.13608139313249,147.61445182771263,162.95493414325895,214.37062952824405,56.93799999996554
312472.6587,184.39112976959325,168.96256253501758,186.9009376890988,238.336708574895,56.93900000001304
312472.6597,203.41421849109793,187.36332719910126,207.17595523228923,258.00334187165754,56.94000000000233
312472.6607,218.52909728634242,202.19793536704876,223.05998952667596,272.730493780834,56.94099999999162
312472.6617,229.18617934324402,212.9667944003723,233.99392397122304,282.04445455181747,56.94199999998091
312472.6627,234.98216640748436,219.3052273240833,239.59728488945612,285.6528822355363,56.9429999999702
312472.6637,235.6731539141917,220.99293390697963,239.67760270863062,283.4512240136986,56.94399999995949
312472.6647,231.18104882079743,217.95732299916332,234.2315400509629,275.520763004301,56.945000000006985
312472.6657,221.5934876994015,210.2711502141016,223.43839655826616,262.1190043576464,56.945999999996275
312472.6667,207.1577407366481,198.1451476628808,207.64695280136488,243.6634920760991,56.946999999985565
312472.6677,188.2693125612455,181.9164987077133,187.35686031963283,220.71041393366923,56.947999999974854
312472.6687,165.45609607943337,162.03408729168112,163.1959146237314,193.92949590272988,56.948999999964144
312472.6697,139.35900232486733,139.04144430193108,135.89456710637072,164.07671082009398,56.95000000001164
312472.6707,110.70998703505491,113.5582365765408,106.25895441285375,131.96624029024957,56.95100000000093
312472.6717,80.30833846860489,86.26101735785893,75.14357173604357,98.44295418413097,56.95199999999022
312472.6727,48.995999645662174,57.863803239650174,43.4245162488643,64.3564346206527,56.95299999997951
312472.6737,17.63259149548567,29.098885398792547,11.974006543183593,30.537300078914896,56.9539999999688
312472.6747,-12.929300354152428,0.6981433813471124,-18.36332995723028,-2.2236906274097215,56.95499999995809
312472.6757,-41.86809842813523,-26.6249752731856,-46.79209477073314,-33.19352898690502,56.95600000000559
312472.6767,-68.41604772819744,-52.19270598492133,-72.58551474141899,-61.711827603850736,56.95699999999488
312472.6777,-91.880480593232,-75.37935566210191,-95.10251722382444,-87.202810002754,56.95799999998417
312472.6787,-111.66313921497638,-95.62670046228956,-113.80243675932576,-109.18464657009218,56.95899999997346
312472.6797,-127.27713938336906,-112.45819275889671,-128.25729077821356,-127.27638800982102,56.95999999996275
312472.6807,-138.36112573200978,-125.49168394623292,-138.16151185292728,-141.20271601364647,56.961000000010245
312472.6817,-144.69014019308287,-134.45027274290442,-143.33895636538404,-150.79665763290848,56.961999999999534
312472.6827,-146.18271682430395,-139.17080730019634,-143.7469435294465,-156.0003138290001,56.962999999988824
312472.6837,-142.90374169811116,-139.60952195169068,-139.47703374186477,-156.8635547630191,56.963999999978114
312472.6847,-135.06268711575495,-135.8442909823372,-130.75224792770388,-153.54055514475147,56.964999999967404
312472.6857,-123.00695131908327,-128.07304249200783,-117.9204720528223,-146.2840002336905,56.96599999995669
312472.6867,-107.21020860867687,-116.60799905858958,-101.44388933905374,-135.43679980211976,56.96700000000419
312472.6877,-88.25589448719204,-101.86559513625677,-81.88443596223556,-121.42120991525171,56.96799999999348
312472.6887,-66.81620407920748,-84.3521534944976,-59.885475992286494,-104.72537966547164,56.96899999998277
312472.6897,-43.627252204738795,-64.64566766248433,-36.150123353826636,-85.88750336969852,56.96999999997206
312472.6907,-19.46130874397037,-43.37431249568035,-11.416882748301003,-65.47795278433131,56.97099999996135
312472.6917,4.902740028851209,-21.19256590134643,13.56648538546147,-44.079968010171356,56.97200000000885
312472.6927,28.709367763814974,1.2439538196297546,38.069772810264496,-22.269676378192976,56.97299999999814
312472.6937,51.25537185159917,23.303671920089002,61.40656104297791,-0.5963617849012789,56.97399999998743
312472.6947,71.91634864423874,44.402922398458855,82.95858149437905,20.435998921673093,56.97499999997672
312472.6957,90.16927536139953,64.02717161429729,102.19691671086596,40.38489756998485,56.97599999996601
312472.6967,105.60996447331733,81.74839351158298,118.69888141025113,58.882186679227196,56.9769999999553
312472.6977,117.9644196118708,97.23760040201351,132.1596339003068,75.6428887437477,56.978000000002794
312472.6987,127.09346364338441,110.27182620663548,142.39786081203764,90.46934413135118,56.978999999992084
312472.6997,132.9904078511839,120.73521388991996,149.3552319408719,103.25041764331701,56.97999999998137
312472.7007,135.77195900564615,128.6142491597027,153.08971219956143,113.95582383569435,56.98099999997066
312472.7017,135.66298766886095,133.9875780704843,153.76321486088688,122.6259845373816,56.98199999995995
312472.7027,132.97617449825398,137.01121539574552,151.6244532618704,129.35816799313343,56.98300000000745
312472.7037,128.0878811923097,137.9002634650259,146.98816673761152,134.28994744116227,56.98399999999674
312472.7047,121.41183276776975,136.90849172698816,140.21213414798677,137.58123075198188,56.98499999998603
312472.7057,113.37232820130772,134.30725629389335,131.67352440818036,139.39623105794502,56.98599999997532
312472.7067,104.3787055302947,130.36525520668985,121.74615542694416,139.88675829654596,56.98699999996461
312472.7077,94.80267321492751,125.33051763422199,110.7801376444297,139.17811002306263,56.98800000001211
312472.7087,84.95988977908279,119.41582184827804,99.08517265771937,137.3586334854911,56.9890000000014
312472.7097,75.09684581939266,112.78844475777498,86.91847741340835,134.47373608055432,56.98999999999069
312472.7107,65.3837019194018,105.56478968639725,74.47793450272188,130.52476228685305,56.99099999997998
312472.7117,55.913294404483935,97.8100488491104,61.90065966756531,125.47276220222676,56.991999999969266
312472.7127,46.706073129597264,89.54266507160972,49.26676251700337,119.24678311951475,56.992999999958556
312472.7137,37.72031674996662,80.742995720352,36.60768971299726,111.75595429139734,56.994000000006054
312472.7147,28.86661342135836,71.365279250683,23.918212660438154,102.90433612832686,56.99499999999534
312472.7157,20.025325075520897,61.35178403628542,11.170879416218435,92.60729262106989,56.99599999998463
312472.7167,11.065589728902184,50.64789520943404,-1.6683895188917877,80.80803587282931,56.99699999997392
312472.7177,1.864367615693288,39.216874197953544,-14.624911713830366,67.49299110435295,56.99799999996321
312472.7187,-7.675897794427994,27.053104452344474,-27.701331410205622,52.704736606002974,56.99900000001071
312472.7197,-17.61226420225303,14.192804048398697,-40.86628259457409,36.55147408990816,57.0
312472.7207,-27.949927295700284,0.7214230044081726,-54.04646963876369,19.212261365404427,57.00099999998929
312472.7217,-38.635203623307895,-13.222773048118453,-67.12270229629212,0.9375662608571503,57.00199999997858
312472.7227,-49.55320792850176,-27.44912655648717,-79.93009050545959,-17.954949864943792,57.00299999996787
312472.7237,-60.53022504812153,-41.71891312159952,-92.26227652919742,-37.089167506250554,57.00399999995716
312472.7247,-71.34045207488988,-55.75319068920762,-103.87928376332951,-56.04320157277224,57.00500000000466
312472.7257,-81.71650879082131,-69.24357190357868,-114.51831502959939,-74.3652347703503,57.005999999993946
312472.7267,-91.36290037857168,-81.86515610148572,-123.90665430713148,-91.5914930754395,57.006999999983236
312472.7277,-99.971476257529,-93.29076307918322,-131.77572364997954,-107.26526424963879,57.007999999972526
312472.7287,-107.23786562471447,-103.20558524664419,-137.87532327091606,-120.95584438413874,57.008999999961816
312472.7297,-112.87788032160302,-111.3214127463945,-141.98713243547007,-132.27636104108893,57.01000000000931
312472.7307,-116.64294983334494,-117.3896773423505,-143.9366611409122,-140.89955352166098,57.0109999999986
312472.7317,-118.33377831885367,-121.21269174976132,-143.60300251666732,-146.57077508298227,57.01199999998789
312472.7327,-117.81157399955116,-122.65261620688061,-140.92592592987313,-149.11769936816071,57.01299999997718
312472.7337,-115.0063808711295,-121.63784804572995,-135.91005270014531,-148.45644358876223,57.01399999996647
312472.7347,-109.9222264616527,-118.1666888331095,-128.62605298137433,-144.5940446468369,57.01499999995576
312472.7357,-102.63897448989223,-112.30828605088271,-119.20897916489123,-137.62742460024884,57.01600000000326
312472.7367,-93.31092823409362,-104.20096451911338,-107.85399714890275,-127.73914594518094,57.01699999999255
312472.7377,-82.16236327022511,-94.0481529835004,-94.80988533135587,-115.19037740744093,57.01799999998184
312472.7387,-69.48027461119597,-82.11217342920772,-80.37073996878028,-100.31156492747355,57.01899999997113
312472.7397,-55.60470391758237,-68.70619794561661,-64.86635645625357,-83.49133295929539,57.01999999996042
312472.7407,-40.9170704450545,-54.184695925971134,-48.651754353563526,-65.16413492324082,57.021000000007916
312472.7417,-25.826969216788235,-38.93269988109895,-32.096287187307794,-45.79713836688977,57.021999999997206
312472.7427,-10.757926392524023,-23.354218085085257,-15.57273492583388,-25.87678110569603,57.022999999986496
312472.7437,3.867380812880177,-7.860122510868435,0.553273784052463,-5.89538002286725,57.023999999975786
312472.7447,17.641921149646652,7.144155033492589,15.933213505197251,13.661876768392615,57.024999999965075
312472.7457,30.188598806398122,21.270775588862307,30.244737541753384,32.329264980362524,57.02600000001257
312472.7467,41.17351102725663,34.161137156778814,43.19966392061409,49.67192595950804,57.02700000000186
312472.7477,50.31765868841969,45.49663779349326,54.550687229558235,65.29609228064096,57.02799999999115
312472.7487,57.4066168946232,55.00817510337412,64.09665374594742,78.85790412416239,57.02899999998044
312472.7497,62.29771287567631,62.48400088428294,71.68625680000231,90.07059199816494,57.02999999996973
312472.7507,64.92432136656313,67.77556905994685,77.22003156348057,98.7098157362528,57.03099999995902
312472.7517,65.29697691861375,70.80105804531736,80.65055898842635,104.61697691910842,57.03200000000652
312472.7527,63.50112001442414,71.54631900208747,81.98083233280843,107.7003676187098,57.03299999999581
312472.7537,59.69143865268221,70.06310008204055,81.26079991821175,107.93408596654929,57.0339999999851
312472.7547,54.08293534093298,66.46452163863455,78.58217544239615,105.35473873656856,57.03499999997439
312472.7557,46.93903398053383,60.91792314512861,74.07170041122707,100.05605971873547,57.03599999996368
312472.7567,38.55723155576198,53.63536071622596,67.8831470615994,92.18169358594531,57.037000000011176
312472.7577,29.25298276460989,44.86219361751286,60.18845658684605,81.91651877477473,57.038000000000466
312472.7587,19.34266684543315,34.86434611308103,51.16850623657556,69.47699809358451,57.038999999989755
312472.7597,9.126609326479317,23.914953894377806,41.0040781803187,55.10113987847262,57.039999999979045
312472.7607,-1.1267974694668677,12.281189145213082,29.86765091659025,39.038713439480375,57.040999999968335
312472.7617,-11.194824949488986,0.21209387757988452,17.916639697845525,21.542379906608975,57.041999999957625
312472.7627,-20.91100638662351,-12.071770526606818,5.288667812431884,2.860366045416297,57.04300000000512
312472.7637,-30.17176248223221,-24.386132501152776,-7.900648515080243,-16.768779101922895,57.04399999999441
312472.7647,-38.938430939146066,-36.58769617591148,-21.557071520438658,-37.11894524262013,57.0449999999837
312472.7657,-47.234357477080536,-48.575318902547565,-35.60413941003884,-57.976526373663695,57.04599999997299
312472.7667,-55.13703481569141,-60.2875350323248,-49.976695078336505,-79.13779853561499,57.04699999996228
312472.7677,-62.765632128141824,-71.69654717404747,-64.61190509575518,-100.40385712955569,57.04800000000978
312472.7687,-70.26461486434465,-82.79908067743222,-79.43838039599218,-121.57360083379237,57.04899999999907
312472.7697,-77.7844860023745,-93.60475847809356,-94.36423860264479,-142.4354685067551,57.04999999998836
312472.7707,-85.46095708405896,-104.12288036722876,-109.26513034419284,-162.75881415059786,57.05099999997765
312472.7717,-93.39405556738011,-114.34866328182662,-123.97336802035508,-182.28592448424573,57.05199999996694
312472.7727,-101.62877343477555,-124.25010050191166,-138.26932912212968,-200.72572881118754,57.05299999995623
312472.7737,-110.1388465561447,-133.75661542431396,-151.87624690201403,-217.75021143720616,57.054000000003725
312472.7747,-118.81511903205845,-142.75061338954438,-164.45934546691333,-232.99440873653512,57.054999999993015
312472.7757,-127.45969468168494,-151.06287303676632,-175.63002851847023,-246.0606587843682,57.055999999982305
312472.7767,-135.7867213399544,-158.47247404032998,-184.9555032308381,-256.52748117293885,57.056999999971595
312472.7777,-143.43021389222102,-164.71164493061391,-191.97383285316954,-263.9631151347348,57.057999999960884
312472.7787,-149.95882788493628,-169.47555336139897,-196.21398965862923,-267.94335862656493,57.05900000000838
312472.7797,-154.89698182103803,-172.43667706113928,-197.22005464056846,-268.0729577868987,57.05999999999767
312472.7807,-157.75123100259972,-173.2630155995819,-194.57831520860233,-264.0094265191223,57.06099999998696
312472.7817,-158.0403577207708,-171.6390611472865,-187.9456803796979,-255.48786207705774,57.06199999997625
312472.7827,-155.32729794295162,-167.28816972534253,-177.07759518782714,-242.34509486057138,57.06299999996554
312472.7837,-149.25080413531958,-159.99478869372098,-161.85351744592748,-224.54139504504215,57.06400000001304
312472.7847,-139.5546699340556,-149.62492122847303,-142.29803794960154,-202.1779738134064,57.06500000000233
312472.7857,-126.11242693475003,-136.14325618062858,-118.5958872750685,-175.5086719074406,57.06599999999162
312472.7867,-108.94566668357277,-119.62556435902273,-91.09937494457687,-144.94452074982775,57.06699999998091
312472.7877,-88.2345290265181,-100.2652518761648,-60.32723476771357,-111.05027716068298,57.0679999999702
312472.7887,-64.31940590587526,-78.37334921664193,-26.9543773485625,-74.53254545709444,57.06899999995949
312472.7897,-37.69350116695582,-54.37167307189806,8.2073588425683,-36.219673781580845,57.070000000006985
312472.7907,-8.98651726711845,-28.779391060149862,44.23675591527108,2.96579966713498,57.070999999996275
312472.7917,21.059640593954537,-2.1937067592918114,80.13777898867765,42.040818897280936,57.071999999985565
312472.7927,51.62169371848973,24.734177675855427,114.87935734386613,79.99979463704778,57.072999999974854
312472.7937,81.83045197724175,51.326310670213125,147.43819596492486,115.85474488990835,57.073999999964144
312472.7947,110.80870226346143,76.90670700408835,176.84218717394893,148.67524388896973,57.07500000001164
312472.7957,137.7091824939562,100.8296916745152,202.21192385862153,177.6258194210967,57.07600000000093
312472.7967,161.75034847285792,122.50609063204855,222.79792962214208,201.9986097738781,57.07699999999022
312472.7977,182.247866390613,141.42569068964133,238.0115097508225,221.23943422726552,57.07799999997951
312472.7987,198.64014509582395,157.17472207073584,247.44756758497013,234.96591664534043,57.0789999999688
312472.7997,210.50672390182078,169.4475449629602,250.89828760167526,242.97688825168822,57.07999999995809
312472.8007,217.57890705332977,178.05220568537615,248.3572129208195,245.25293135807337,57.08100000000559
312472.8017,219.7426322445333,182.91002285717596,240.01388871955314,241.94855431544113,57.08199999999488
312472.8027,217.03412383282208,184.0498227184488,226.23985086689783,233.3770538968421,57.08299999998417
312472.8037,209.6293619932826,181.59782296853234,207.5672617018299,219.98957580182335,57.08399999997346
312472.8047,197.82875653208424,175.76443200068462,184.6618916995964,202.35018937188474,57.08499999996275
312472.8057,182.0386210053259,166.82936288780132,158.2923886458865,181.1089262016301,57.086000000010245
312472.8067,162.7510873055961,155.12645055176253,129.29785156092436,156.97468832470744,57.086999999999534
312472.8077,140.52398750431993,141.029412492941,98.5556374286186,130.68972144892615,57.087999999988824
312472.8087,115.96197852292838,124.93952825710265,66.95109228599817,103.00699941781201,57.088999999978114
312472.8097,89.69982928691819,107.27586187735344,35.350544788865236,74.67141745097662,57.089999999967404
312472.8107,62.38837190663636,88.46825422172725,4.5784698542988265,46.40519194751822,57.09099999995669
312472.8117,34.683185454740816,68.95291167369494,-24.600732468580123,18.897365378321748,57.09200000000419
312472.8127,7.235680303517692,49.17005640290737,-51.49634628859618,-7.203133968365042,57.09299999999348
312472.8137,-19.314074870864623,29.562819292848243,-75.50073327100162,-31.291782364602533,57.09399999998277
312472.8147,-44.343658994976586,10.576378521802459,-96.09520828678887,-52.81123378254606,57.09499999997206
312472.8157,-67.25470114425605,-7.343707184558845,-112.853283597361,-71.25378928332609,57.09599999996135
312472.8167,-87.480294577369,-23.754946181695473,-125.44223078413162,-86.16470525650342,57.09700000000885
312472.8177,-104.49415796661899,-38.22392069817505,-133.6238492289254,-97.14727045090693,57.09799999999814
312472.8187,-117.82199018262091,-50.33533141248423,-137.25516040443486,-103.87025083817993,57.09899999998743
312472.8197,-127.05509655790684,-59.70418566535641,-136.28949313099466,-106.07788685690625,57.09999999997672
312472.8207,-131.86595606024275,-65.99082552103124,-130.77811849441233,-103.60217189159158,57.10099999996601
312472.8217,-132.02499336920712,-68.91808520865892,-120.87227074180313,-96.37669017054043,57.1019999999553
312472.8227,-127.41746060422415,-68.28950356198504,-106.82508926214457,-84.45089253896182,57.103000000002794
312472.8237,-118.0590595669359,-64.00723225092513,-88.99277093469854,-68.00338137753543,57.103999999992084
312472.8247,-104.10877847295598,-56.088104569443175,-67.83405993263949,-47.35259497605746,57.10499999998137
312472.8257,-85.87739850687926,-44.67628288249632,-43.90714328707598,-22.963249792125808,57.10599999997066
312472.8267,-63.830254073039434,-30.050995229333378,-17.86307481647219,4.552973766437507,57.10699999995995
312472.8277,-38.58310210027599,-12.62810098034751,9.564983781497657,34.443733913296334,57.10800000000745
312472.8287,-10.890353084235015,7.0454218461457625,37.57714962971621,65.83013000900159,57.10899999999674
312472.8297,18.37458886865582,28.304523292754087,65.32693317234718,97.7288884311045,57.10999999998603
312472.8307,48.24657557755921,50.386600217520936,91.94578582265817,129.0823189767847,57.11099999997532
312472.8317,77.70268239422094,72.45888068153079,116.57137579474055,158.7951116311148,57.11199999996461
312472.8327,105.7014822977887,93.65153862285872,138.37849745583284,185.77645502521617,57.11300000001211
312472.8337,131.22574931580843,113.09493205424243,156.61118582440048,208.98544736193023,57.1140000000014
312472.8347,153.3263623691027,129.95898258785962,170.6143616574138,227.47738224928617,57.11499999999069
312472.8357,171.1649737468267,143.492466496003,179.86319898400058,240.44826150503113,57.11599999997998
312472.8367,184.05296454873624,153.05989044954183,183.98840242265737,247.2748388468792,57.116999999969266
312472.8377,191.48434029061923,158.1736901675223,182.79571259323612,247.54764312382304,57.117999999958556
312472.8387,193.16051804735696,158.5197169616898,176.27822011335104,241.09476332381934,57.119000000006054
312472.8397,189.0054038439849,153.97435276951526,164.62044719464544,227.99468125547673,57.11999999999534
312472.8407,179.16972590712052,144.61209439716723,148.19362627191728,208.57707920778094,57.12099999998463
312472.8417,164.02423701483028,130.7030381067098,127.54213507936493,183.41128530974842,57.12199999997392
312472.8427,144.14208230565833,112.70033469541158,103.36159930070396,153.28279672949165,57.12299999996321
312472.8437,120.27129926377394,91.21832676417401,76.46970687294738,119.1590838196086,57.12400000001071
312472.8447,93.29902647676143,67.00267699471488,47.771252188746445,82.14657024593227,57.125
312472.8457,64.2095035818899,40.89430473265336,18.219307414484458,43.4412527491818,57.12599999998929
312472.8467,34.03831041351747,13.7893300418908,-11.225327905458043,4.275825748846351,57.12699999997858
312472.8477,3.825492763769121,-13.402548962223413,-39.63413959546754,-34.133621006046354,57.12799999996787
312472.8487,-25.42975839595524,-39.79876514006304,-66.1481619692609,-70.63827560244262,57.12899999995716
312472.8497,-52.81036836155424,-64.58131849587619,-90.01048019810683,-104.2018187927045,57.13000000000466
312472.8507,-77.51640335370313,-87.02886700627553,-110.59230101208205,-133.93777615293033,57.130999999993946
