TimeStamp,ECR,FCR,ECU,FCU,time_index
312426.7197,9.942874928505152,10.993326966370143,13.69688921636978,13.688649396678276,11.0
312426.7207,8.739431266629209,11.5001834068738,13.010202987363721,13.998422124361875,11.00099999998929
312426.7217,7.636761726099389,12.018745972534976,12.378426990922932,14.285284263000948,11.00199999997858
312426.7227,6.715240840898903,12.589314749464693,11.876837653690782,14.592770982105586,11.00299999996787
312426.7237,6.032509080984293,13.23470792576242,11.55949309919587,14.94711318348758,11.00399999995716
312426.7247,5.619424109085578,13.957007419404889,11.454864466458224,15.3539017671296,11.005000000004657
312426.7257,5.478484260228927,14.736500026089358,11.56391096626749,15.796984803546007,11.005999999993946
312426.7267,5.584853758202637,15.5329362499712,11.860770825689805,16.239725382198525,11.006999999983236
312426.7277,5.88987456810146,16.289000367433832,12.295992205564229,16.628514037350012,11.007999999972526
312426.7287,6.326715569524657,16.93566645005325,12.801987190280439,16.89820514524477,11.008999999961816
312426.7297,6.817608498304252,17.398927452596265,13.30018121254661,16.978953577392176,11.010000000009313
312426.7307,7.281971295158427,17.607246431379775,13.709170030077143,16.80378519135562,11.010999999998603
312426.7317,7.6446375399417255,17.499004038240134,13.953101975386401,16.316156555000052,11.011999999987893
312426.7327,7.84340352560429,17.02921202069486,13.969483652792825,15.47675346567518,11.012999999977183
312426.7337,7.835173000147528,16.174829063406847,13.715664337679307,14.268845127746689,11.013999999966472
312426.7347,7.600117136124357,14.938146529062655,13.173382443217317,12.701644948764018,11.014999999955762
312426.7357,7.143460654238114,13.347894813709312,12.350944135890119,10.811316953952781,11.01600000000326
312426.7367,6.4947356030194685,11.45793839520154,11.282831466501133,8.659490687151973,11.01699999999255
312426.7377,5.704589845917867,9.34365818305825,10.026783337922863,6.329385550575846,11.01799999998184
312426.7387,4.839474138979929,7.096341168415851,8.658633611484921,3.9198748242318295,11.018999999971129
312426.7397,3.9747369416868055,4.816088222674251,7.265403559484026,1.5380179253049329,11.019999999960419
312426.7407,3.1868099863394033,2.603892783632931,5.93731037192478,-0.7092623614035175,11.021000000007916
312426.7417,2.545255303631216,0.5536224462116401,4.759453919963331,-2.723597251960944,11.021999999997206
312426.7427,2.1054574371291985,-1.2553554254134809,3.803971089558379,-4.422912350560617,11.022999999986496
312426.7437,1.9026817726447118,-2.7642247834945786,3.1233984625159095,-5.747781924506403,11.023999999975786
312426.7447,1.9480873896695927,-3.93889605976543,2.745864983591192,-6.665817913122288,11.024999999965075
312426.7457,2.2270934750966016,-4.771931899322005,2.672558351291485,-7.173699428669793,11.026000000012573
312426.7467,2.7002704689281414,-5.282064114301312,2.877689667123661,-7.296670471922041,11.027000000001863
312426.7477,3.3066827793943645,-5.511370955263451,3.310941738282766,-7.085571178811421,11.027999999991152
312426.7487,3.969372711199149,-5.520404480792982,3.9021505314091574,-6.611698260689717,11.028999999980442
312426.7497,4.602468069381523,-5.381749496300877,4.567759354771911,-5.959991293413248,11.029999999969732
312426.7507,5.11923867077047,-5.1726398962704065,5.218421487019221,-5.221193958062819,11.030999999959022
312426.7517,5.440334798249608,-4.967341604340178,5.767024666753895,-4.483728814263221,11.03200000000652
312426.7527,5.501422252524592,-4.830025955093507,6.136379529495035,-3.826042422250248,11.032999999995809
312426.7537,5.259485740602994,-4.808802285802895,6.265856188480378,-3.3101232805449907,11.033999999985099
312426.7547,4.697199262115882,-4.931459456799454,6.116364000766506,-2.9767738080035135,11.034999999974389
312426.7557,3.824946568979981,-5.2032949277966996,5.673237768298261,-2.8430416262584632,11.035999999963678
312426.7567,2.6802988235152134,-5.607203815123765,4.946802296574204,-2.9020020997043288,11.037000000011176
312426.7577,1.3249986288432927,-6.1059793064847,3.970615624088829,-3.1248544174080624,11.038000000000466
312426.7587,-0.1602636683133533,-6.646561531596014,2.7976167959697347,-3.4650699004207812,11.038999999989755
312426.7597,-1.682786853464082,-7.16578533619162,1.4946046536185829,-3.8641354384626827,11.039999999979045
312426.7607,-3.1458537736168073,-7.597036450806577,0.13563020304566636,-4.258285938402668,11.040999999968335
312426.7617,-4.457032002393844,-7.877143806070947,-1.2050183420079619,-4.5855316884710415,11.041999999957625
312426.7627,-5.536003272084465,-7.95282088865409,-2.459530860617944,-4.792267858331347,11.043000000005122
312426.7637,-6.321194721914845,-7.786022128998498,-3.572327005697286,-4.838805392120773,11.043999999994412
312426.7647,-6.774604603959611,-7.357695750348935,-4.5042894441014365,-4.703279784700369,11.044999999983702
312426.7657,-6.884392437924242,-6.669580551039755,-5.235087774359286,-4.383564738634484,11.045999999972992
312426.7667,-6.665021330363842,-5.743894039045188,-5.763404243545285,-3.897024339912109,11.046999999962281
312426.7677,-6.154977016469489,-4.620973177048153,-6.105091973736175,-3.2781594933065867,11.048000000009779
312426.7687,-5.412321084049063,-3.3551353787447877,-6.289511400601523,-2.574419758205783,11.048999999999069
312426.7697,-4.5085421836724535,-2.0092057469531275,-6.354479338074359,-1.8406389461333752,11.049999999988358
312426.7707,-3.5213288469821586,-0.6482890947048354,-6.340408484216734,-1.1326932117185686,11.050999999977648
312426.7717,-2.5269854504097538,0.666561154322125,-6.284298792423082,-0.5010598695120463,11.051999999966938
312426.7727,-1.5932395869011176,1.8841178438253452,-6.214257457910309,0.01503418134537543,11.052999999956228
312426.7737,-0.773142346162833,2.9675991625467457,-6.145169661360389,0.39224489040023214,11.054000000003725
312426.7747,-0.10064766078826058,3.8976531234295053,-6.076023030403934,0.6260183461727401,11.054999999993015
312426.7757,0.41171543087064427,4.673398345042816,-5.989216872602791,0.7314424330423095,11.055999999982305
312426.7767,0.7728758462791695,5.3114136386264965,-5.851979764990281,0.7419224414375722,11.056999999971595
312426.7777,1.0109879222550557,5.842782161087968,-5.619796838300059,0.7057839578054277,11.057999999960884
312426.7787,1.1691891083150854,6.308499327795276,-5.241533412329065,0.681121423762742,11.059000000008382
312426.7797,1.2998040113358502,6.753726715800001,-4.665756210940405,0.7293955695261822,11.059999999997672
312426.7807,1.4576050398141456,7.22149920968908,-3.8476160913806465,0.9084188291008326,11.060999999986961
312426.7817,1.6928327431886134,7.746556748823999,-2.7555812569959657,1.2654409276681082,11.061999999976251
312426.7827,2.044701475973574,8.349968347534503,-1.377305375135312,1.8310493415599325,11.062999999965541
312426.7837,2.536066165016175,9.035144431171226,0.2760179389401309,2.6145304579622586,11.064000000013039
312426.7847,3.1698088016010173,9.785700589112151,2.1673300774984106,3.601203247409036,11.065000000002328
312426.7857,3.9273305384875146,10.565454368255121,4.233741606654899,4.7520508162114545,11.065999999991618
312426.7867,4.769324135403018,11.320624404468356,6.389033783850464,6.005754278367342,11.066999999980908
312426.7877,5.638772916794033,11.98407888161147,8.528499631441276,7.282999422313474,11.067999999970198
312426.7887,6.465899019170083,12.481270013002042,10.535769345664466,8.492702491290965,11.068999999959487
312426.7897,7.1745875944205295,12.73731391249159,12.291068017443122,9.539609050957454,11.070000000006985
312426.7907,7.689664149872286,12.684548702029524,13.680206719633372,10.332578385717024,11.070999999996275
312426.7917,7.9443140607409815,12.269840946112225,14.603525498576047,10.792789273900802,11.071999999985565
312426.7927,7.886915127580007,11.460918289845058,14.983997066382742,10.861099199701505,11.072999999974854
312426.7937,7.486607603379812,10.251084419801568,14.773764416757654,10.503858872532998,11.073999999964144
312426.7947,6.737046055881247,8.661814197768502,13.958518448914608,9.716621003066185,11.075000000011642
312426.7957,5.657951920700254,6.7429188474662896,12.559310667753687,8.525373751763743,11.076000000000931
312426.7967,4.294297472193956,4.570195261496098,10.631623421534618,6.985156949481302,11.076999999990221
312426.7977,2.7131804008560327,2.2407084996355398,8.261764535593885,5.176161388872228,11.077999999979511
312426.7987,0.998670878598134,-0.13392010200898874,5.560891567771166,3.1976450723583785,11.0789999999688
312426.7997,-0.7548918140778371,-2.4356565256627114,2.6571808047297343,1.1602029654744994,11.07999999995809
312426.8007,-2.4505273084588035,-4.548927809525555,-0.31318215362816426,-0.8229207938799117,11.081000000005588
312426.8017,-3.996453162135641,-6.369450301135498,-3.2154148617226492,-2.644701636337182,11.081999999994878
312426.8027,-5.313402599728833,-7.812234777529084,-5.925151860746881,-4.21259303729943,11.082999999984168
312426.8037,-6.340740964573953,-8.81806116473173,-8.336306092657326,-5.455443161417101,11.083999999973457
312426.8047,-7.04081870039553,-9.35785182527368,-10.367141194601919,-6.328466147900161,11.084999999962747
312426.8057,-7.401170451116405,-9.434561654273715,-11.964092598311808,-6.815848526271805,11.086000000010245
312426.8067,-7.434378720672945,-9.082427680624896,-13.10309046087839,-6.930793508516655,11.086999999999534
312426.8077,-7.175646075635904,-8.363659344786194,-13.788372205231363,-6.71304506351028,11.087999999988824
312426.8087,-6.6783401492266785,-7.362880672637828,-14.049004295612992,-6.224166877814104,11.088999999978114
312426.8097,-6.007969343187989,-6.179835609338934,-13.933539721225326,-5.541056358069712,11.089999999967404
312426.8107,-5.235195401455753,-4.9210191720823016,-13.503400010936188,-4.748331365831268,11.090999999956694
312426.8117,-4.428577682525641,-3.690985883890601,-12.825673421051103,-3.9303227011701023,11.092000000004191
312426.8127,-3.647764551952018,-2.5841052400125823,-11.96605508826473,-3.163429844293664,11.09299999999348
312426.8137,-2.937798053935015,-1.6774805653206764,-10.982618022512469,-2.509549379216861,11.09399999998277
312426.8147,-2.325083899413339,-1.0256282113405826,-9.921000356056906,-2.011170126904358,11.09499999997206
312426.8157,-1.8154111251111003,-0.6573405388764715,-8.811435227023978,-1.688558040899943,11.09599999996135
312426.8167,-1.3942010241911207,-0.5749455403671008,-7.667851340049407,-1.5392443962991322,11.097000000008848
312426.8177,-1.028943198990389,-0.7559486958042698,-6.489054592282858,-1.5398033796310764,11.097999999998137
312426.8187,-0.6735595422574915,-1.1568205788821977,-5.261785880275478,-1.6496821022046892,11.098999999987427
312426.8197,-0.2742458329926288,-1.7184980030619321,-3.965258605246061,-1.8166489752581352,11.099999999976717
312426.8207,0.22380589601664808,-2.3730155635752865,-2.5766302794050624,-1.983274283599096,11.100999999966007
312426.8217,0.8694886988100355,-3.0505922449801357,-1.076770505114536,-2.0937641427906994,11.101999999955297
312426.8227,1.6993704474976292,-3.686472468524178,0.5443387503722371,-2.100444390500407,11.103000000002794
312426.8237,2.732447452328265,-4.226864132984389,2.283192968044163,-1.9692362068554,11.103999999992084
312426.8247,3.966603724169286,-4.633422771468123,4.119862096872901,-1.6835753881999826,11.104999999981374
312426.8257,5.3771504633631215,-4.885889689815079,6.016953809444705,-1.2463908842087088,11.105999999970663
312426.8267,6.917616123655937,-4.982686656790423,7.920607062020512,-0.6799589180999526,11.106999999959953
312426.8277,8.52273608881958,-4.939480782998625,9.763467784597994,-0.023666645426348047,11.10800000000745
312426.8287,10.113374285044666,-4.785939601988604,11.469390301296235,0.6700678178699524,11.10899999999674
312426.8297,11.602918174953468,-4.561077614310364,12.959424791416076,1.3412851986586707,11.10999999998603
312426.8307,12.9045422726541,-4.307733847541432,14.158511221692038,1.9288083712782078,11.11099999997532
312426.8317,13.93864797349712,-4.066801850195609,15.002217914383435,2.376738842723983,11.11199999996461
312426.8327,14.639767735588153,-3.871851168002481,15.442846779629631,2.640448929702529,11.113000000012107
312426.8337,14.96227149078329,-3.7447313614843623,15.454279197033976,2.6914434449163216,11.114000000001397
312426.8347,14.884327775781212,-3.6926411740718774,15.035051769424474,2.520579338973953,11.114999999990687
312426.8357,14.409740259161724,-3.706987735750955,14.209318553709005,2.139298246159737,11.115999999979977
312426.8367,13.56748561184528,-3.764169783573737,13.025559515669226,1.578728631979525,11.116999999969266
312426.8377,12.4090008693609,-3.8282141989885,11.553113834721678,0.8867310775045093,11.117999999958556
312426.8387,11.00348571984273,-3.854997478609936,9.876829618579762,0.12317045805037796,11.119000000006054
312426.8397,9.431676146089588,-3.797613148911724,8.09030738760215,-0.6461187100045883,11.119999999995343
312426.8407,7.778691761879928,-3.6123199856261428,6.288354772894264,-1.3560710548617958,11.120999999984633
312426.8417,6.126645668483973,-3.2644371479746517,4.559350128429843,-1.949154076751266,11.121999999973923
312426.8427,4.547724247120637,-2.7335481946660525,2.9782249651594577,-2.3814689849904758,11.122999999963213
312426.8437,3.0983932463315913,-2.0174371579899857,1.600717786851908,-2.6275612046034285,11.12400000001071
312426.8447,1.8152709685389667,-1.1343006080183906,0.45943046177659386,-2.683436853101357,11.125
312426.8457,0.7130408510653016,-0.12294814571859042,-0.43795548891956,-2.567456565444454,11.12599999998929
312426.8467,-0.21542892738720776,0.9590966042367047,-1.1081543184348563,-2.318987291950124,11.12699999997858
312426.8477,-0.9968116118068151,2.039471489603889,-1.5895184963056876,-1.9949154715261894,11.12799999996787
312426.8487,-1.6731608335081203,3.0365036021542697,-1.9373396603538902,-1.6643392146198905,11.12899999995716
312426.8497,-2.296316072352969,3.8658938380888435,-2.2176868542435115,-1.4019414832695487,11.130000000004657
312426.8507,-2.921468820555075,4.447938743366606,-2.500400564380698,-1.2806822530912507,11.130999999993946
312426.8517,-3.6005639363505617,4.714606112491056,-2.8519393207348784,-1.3645215020074652,11.131999999983236
312426.8527,-4.376222698755702,4.615783632458788,-3.328784530829926,-1.701888885587977,11.132999999972526
312426.8537,-5.276816584473672,4.124089821253809,-3.9720478042251735,-2.3205492813265063,11.133999999961816
312426.8547,-6.313199475025506,3.237767251160179,-4.803799334279062,-3.224382138357311,11.135000000009313
312426.8557,-7.477432950140221,1.9813571799724856,-5.825458404760526,-4.39240927830202,11.135999999998603
312426.8567,-8.743631828920812,0.40406499817318603,-7.018375465036834,-5.780188175436143,11.136999999987893
312426.8577,-10.070835992550172,-1.4240530779938625,-8.34651062736308,-7.323456995070782,11.137999999977183
312426.8587,-11.407602029557788,-3.417741477882678,-9.760898423976235,-8.943696393187047,11.138999999966472
312426.8597,-12.697825907970039,-5.48351569067147,-11.205404906188305,-10.555083080590844,11.139999999955762
312426.8607,-13.887174329706253,-7.527302994331751,-12.623149341453429,-12.072170287797153,11.14100000000326
312426.8617,-14.92943153679528,-9.462037666120139,-13.96289264653189,-13.41755457919304,11.14199999999255
312426.8627,-15.792067828911222,-11.214496794420786,-15.184695776867132,-14.528784792670578,11.14299999998184
312426.8637,-16.460406661362615,-12.73073414648345,-16.264223995201544,-15.363838050055891,11.143999999971129
312426.8647,-16.93990257525938,-13.979603696546418,-17.195210528611106,-15.904623494236397,11.144999999960419
312426.8657,-17.25622950651684,-14.954048636010834,-17.989782313928796,-16.158163814480773,11.146000000007916
312426.8667,-17.453100076243263,-15.670048258880618,-18.676572773970598,-16.155329551512672,11.146999999997206
312426.8677,-17.58796959212764,-16.163343071976254,-19.296779828126226,-15.94723988145628,11.147999999986496
312426.8687,-17.726000572756377,-16.484275628237487,-19.898548257210813,-15.599672843891524,11.148999999975786
312426.8697,-17.932852368490046,-16.69126967035295,-20.53024171618531,-15.186025370512002,11.149999999965075
312426.8707,-18.266996656437716,-16.843604968404613,-21.233301907114537,-14.77950953040702,11.151000000012573
312426.8717,-18.772328949654582,-16.994216320665405,-22.035456587796556,-14.445351566660088,11.152000000001863
312426.8727,-19.47184089468663,-17.18324528924388,-22.945026652028943,-14.233766319594332,11.152999999991152
312426.8737,-20.363037372855803,-17.43300197587936,-23.946995296381296,-14.174410444147469,11.153999999980442
312426.8747,-21.415632955567027,-17.74485807890797,-25.001346574366792,-14.27287966998268,11.154999999969732
312426.8757,-22.571857540935767,-18.098404531600337,-26.04397055808587,-14.509621198701982,11.155999999959022
312426.8767,-23.74945997819358,-18.452985247236327,-26.99018753585245,-14.841400667896824,11.15700000000652
312426.8777,-24.847243844140415,-18.751484316346726,-27.74068749520273,-15.205216159255476,11.157999999995809
312426.8787,-25.752725497734954,-18.926020158255586,-28.189438322817164,-15.524313303188837,11.158999999985099
312426.8797,-26.35129454767532,-18.90500846568521,-28.232910467502602,-15.71574873507742,11.159999999974389
312426.8807,-26.536101315314763,-18.620915109417602,-27.779817723860795,-15.69879412338615,11.160999999963678
312426.8817,-26.217810117292732,-18.01794442427625,-26.76049843512376,-15.403384920668755,11.162000000011176
312426.8827,-25.333350042251364,-17.058905159254866,-25.13506706616561,-14.777805663488024,11.163000000000466
312426.8837,-23.852867745557834,-15.73056650212849,-22.89955333578945,-13.794868550620375,11.163999999989755
312426.8847,-21.78423344027607,-14.046953533145901,-20.089407677327806,-12.455978189712775,11.164999999979045
312426.8857,-19.17465850889526,-12.050222275847442,-16.779973311727066,-10.792669961146716,11.165999999968335
312426.8867,-16.10923201538444,-9.808980995928579,-13.08378645515295,-8.865443894440336,11.166999999957625
312426.8877,-12.706450914448643,-7.414164861399359,-9.144843053383054,-6.7599679178039604,11.168000000005122
312426.8887,-9.111080215325824,-4.972802444340653,-5.130237278991636,-4.5809697643991365,11.168999999994412
312426.8897,-5.4849106312946345,-2.600212599371137,-1.2198090807445294,-2.4443522792602628,11.169999999983702
312426.8907,-1.9961610956560267,-0.41131979670563795,2.4053861561462693,-0.46823185861409045,11.170999999972992
312426.8917,1.1916143752834563,1.4881393001120773,5.574869465636993,1.2363013480042258,11.171999999962281
312426.8927,3.9302215147330637,3.009733391276326,8.13985375404784,2.5738792518000397,11.173000000009779
312426.8937,6.096274029626484,4.089055674881878,9.982806753293987,3.472239094960136,11.173999999999069
312426.8947,7.598667642218038,4.690451844538342,11.024724326031537,3.8876510318802717,11.174999999988358
312426.8957,8.383536096714975,4.809349238158502,11.229579623709446,3.80793166458392,11.175999999977648
312426.8967,8.43637409137264,4.472001693976346,10.605660656483895,3.2528113046687106,11.176999999966938
312426.8977,7.781264045978297,3.732702804047327,9.20377703376024,2.271668294717893,11.177999999956228
312426.8987,6.477394840266748,2.668751435797552,7.112580987622072,0.9388850766763638,11.179000000003725
312426.8997,4.613287708429732,1.3736556026966251,4.451483992835077,-0.6527052147874077,11.179999999993015
312426.9007,2.2993265618473657,-0.05078507175174313,1.3618370411925802,-2.399646267423422,11.180999999982305
312426.9017,-0.3406890059564453,-1.5027862382694728,-2.0028363819552726,-4.19622122635985,11.181999999971595
312426.9027,-3.178199890878651,-2.888521693811374,-5.4867201178366045,-5.942580018500533,11.182999999960884
312426.9037,-6.088008834984006,-4.128999360897394,-8.940895942651746,-7.551903782523653,11.184000000008382
312426.9047,-8.955216863554828,-5.165284055855908,-12.231148295326602,-8.95599080171798,11.184999999997672
312426.9057,-11.680477292257253,-5.961651306470862,-15.243852630678363,-10.108817595348404,11.185999999986961
312426.9067,-14.183264511957102,-6.506463870131272,-17.889626254762007,-10.987838012145458,11.186999999976251
312426.9077,-16.40307116266191,-6.810786180667501,-20.104651518648115,-11.593011192820375,11.187999999965541
312426.9087,-18.298663177199572,-6.904969714207206,-21.849810737866694,-11.94377338936446,11.189000000013039
312426.9097,-19.84571572701887,-6.833632998804499,-23.107977577866837,-12.074366716809116,11.190000000002328
312426.9107,-21.0333051507938,-6.649605347730557,-23.879971132093203,-12.028090622725324,11.190999999991618
312426.9117,-21.859827783182517,-6.407489659626558,-24.17978148067213,-11.851134521333632,11.191999999980908
312426.9127,-22.328947418649392,-6.157519037610392,-24.02971027171249,-11.586674077880948,11.192999999970198
312426.9137,-22.44613686498345,-5.940333440326823,-23.456034890491047,-11.269867376227927,11.193999999959487
312426.9147,-22.216280469946607,-5.783191727333581,-22.48570522043189,-10.924276022710913,11.195000000006985
312426.9157,-21.64265480954214,-5.697973066810941,-21.144429482048974,-10.56007196313751,11.195999999996275
312426.9167,-20.72742028241773,-5.681126437455914,-19.456317050462587,-10.174190512949052,11.196999999985565
312426.9177,-19.473557078927904,-5.7155178397792055,-17.445041915448478,-9.752374466592183,11.197999999974854
312426.9187,-17.887986330907342,-5.773923066644825,-15.136292435209638,-9.272845289056477,11.198999999964144
312426.9197,-15.985452008274676,-5.823739864477513,-12.561102376084122,-8.711156706783152,11.200000000011642
312426.9207,-13.792619379618769,-5.83236458624053,-9.759533189607147,-8.045652058918606,11.201000000000931
312426.9217,-11.351785087144831,-5.772607948728782,-6.784111624187919,-7.2628733917682515,11.201999999990221
312426.9227,-8.72359962782025,-5.627519348185793,-3.702427611299203,-6.3622652400384085,11.202999999979511
312426.9237,-5.988276041744659,-5.394049884266971,-0.5983655949618875,-5.359580228088684,11.2039999999688
312426.9247,-3.2448927453868914,-5.085104703194902,2.4284281316163847,-4.288520958513352,11.20499999995809
312426.9257,-0.6085812233177704,-4.7297033948641785,5.265061492948425,-3.200330661580186,11.206000000005588
312426.9267,1.7943969407052756,-4.371166048676157,7.789906488448059,-2.1612561180656344,11.206999999994878
312426.9277,3.833455550793613,-4.063452131534396,9.87889420300788,-1.24802937046902,11.207999999984168
312426.9287,5.381932580774849,-3.8659783899532636,11.413179605573177,-0.5417272871861349,11.208999999973457
312426.9297,6.326166154315592,-3.837410245063408,12.287587715413501,-0.12054860214908479,11.209999999962747
312426.9307,6.574657576965975,-4.029041369593557,12.419131661538843,-0.05217810260394406,11.211000000010245
312426.9317,6.066523769557241,-4.478435741508324,11.754837535566583,-0.38647353929806444,11.211999999999534
312426.9327,4.77845791158338,-5.203998865977081,10.278127898367849,-1.1492051954646605,11.212999999988824
312426.9337,2.729507842973794,-6.201070103916967,8.01310546748853,-2.337500491504012,11.213999999978114
312426.9347,-0.016860089583079264,-7.439992871302492,5.026233899893357,-3.9175032151125877,11.214999999967404
312426.9357,-3.3537319929982328,-8.866436638813719,1.4251202255167692,-5.824562090878167,11.215999999956694
312426.9367,-7.134825264799783,-10.404031717608863,-2.6456553052996195,-7.966034757294425,11.217000000004191
312426.9377,-11.1814884352845,-11.959155393211367,-7.011463553683802,-10.226552525117475,11.21799999999348
312426.9387,-15.292186223554529,-13.42749775363978,-11.47686597687462,-12.47536156662668,11.21899999998277
312426.9397,-19.253819056034295,-14.701858171153996,-15.836524185800716,-14.575159507899551,11.21999999997206
312426.9407,-22.854065202010375,-15.680496370100743,-19.8869824713875,-16.391701758082462,11.22099999996135
312426.9417,-25.893841432464363,-16.275298062895722,-23.43844271249725,-17.80337337346808,11.222000000008848
312426.9427,-28.19896333565278,-16.419020909121922,-26.325644301918622,-18.709917585846252,11.222999999998137
312426.9437,-29.630150589327023,-16.07096196188846,-28.417032681201896,-19.039582036165744,11.223999999987427
312426.9447,-30.09065976057736,-15.220525981383602,-29.62154253209292,-18.75408183018849,11.224999999976717
312426.9457,-29.531025008442263,-13.888362095006006,-29.89252272909208,-17.850971844347374,11.225999999966007
312426.9467,-27.950627292792564,-12.124956493806392,-29.22857145048683,-16.36325106228616,11.226999999955297
312426.9477,-25.396073421129888,-10.006800270677823,-27.67130928217172,-14.356267407629515,11.228000000002794
312426.9487,-21.956623830653616,-7.630472111517851,-25.30037199687499,-11.922229428124139,11.228999999992084
312426.9497,-17.75713924113108,-5.1051643530131505,-22.226129820267474,-9.172838959106558,11.229999999981374
312426.9507,-12.949200734725748,-2.544319980233291,-18.580816061025345,-6.230717181681041,11.230999999970663
312426.9517,-7.70117952074577,-0.05712430265427809,-14.50885934613402,-3.2203907329749955,11.231999999959953
312426.9527,-2.1880817813806095,2.259398776210221,-10.157250902438536,-0.2596263572216987,11.23300000000745
312426.9537,3.4180323367729923,4.327000151976554,-5.666738951905098,2.5481493797123105,11.23399999999674
312426.9547,8.956354072099645,6.090970950254114,-1.1645311917213421,5.119728856259448,11.23499999998603
312426.9557,14.28381206331371,7.5226819042076425,3.2409848691486074,7.395860151584192,11.23599999997532
312426.9567,19.279396973320196,8.619732099957501,7.4632079984574125,9.342615672628677,11.23699999996461
312426.9577,23.846207620476335,9.403769354774367,11.43791574322332,10.950398233785435,11.238000000012107
312426.9587,27.91132745223139,9.916262819436708,15.121657608999275,12.230816616746669,11.239000000001397
312426.9597,31.42384502463696,10.212697272482787,18.488333283554248,13.211861924033231,11.239999999990687
312426.9607,34.35149620998607,10.35580001027542,21.52450603439997,13.931969075060778,11.240999999979977
312426.9617,36.676513812611844,10.408491921002243,24.224107169075744,14.43364014562543,11.241999999969266
312426.9627,38.39131260094722,10.427266906474843,26.58322357379432,14.757329531545087,11.242999999958556
312426.9637,39.49461162980518,10.456647576544992,28.59562415924918,14.936243571121256,11.244000000006054
312426.9647,39.98850522324626,10.525246077467347,30.24957705051716,14.992594691799223,11.244999999995343
312426.9657,39.87684967683367,10.643789109978908,31.5263487920567,14.935684154757862,11.245999999984633
312426.9667,39.165150553003066,10.805262624284605,32.4005765251472,14.761985074389704,11.246999999973923
312426.9677,37.861935066459026,10.98711455457009,32.842484777337575,14.457179132660627,11.247999999963213
312426.9687,35.98139692265614,11.155244730903073,32.82170277725481,13.99988833350584,11.24900000001071
312426.9697,33.546928103792666,11.269330388721306,32.31224827131089,13.366658615813327,11.25
312426.9707,30.59502198160375,11.288901232750911,31.29809925832794,12.537613749975158,11.25099999998929
312426.9717,27.178958861941986,11.179502959920152,29.77869089285615,11.502119655095772,11.25199999997858
312426.9727,23.371676892790052,10.91827979014505,27.7736599836649,10.263789074580677,11.25299999996787
312426.9737,19.26728978441378,10.498365602590026,25.326216000561406,8.844215640800966,11.25399999995716
312426.9747,14.980832740429035,9.931593795140296,22.504640086988164,7.284949046592699,11.255000000004657
312426.9757,10.645987786216095,9.24920598882263,19.401590369850602,5.647397278031373,11.255999999993946
312426.9767,6.410742516478378,8.50044232318815,16.131105474029034,4.010550439287348,11.256999999983236
312426.9777,2.4311518472517086,7.749111249194021,12.823427422790758,2.4666429315063634,11.257999999972526
312426.9787,-1.1364211785618292,7.068443089636475,9.617987195509414,1.115084508622607,11.258999999961816
312426.9797,-4.144033277210341,6.534708715841376,6.655088868980385,0.0551746391438437,11.260000000009313
312426.9807,-6.461177667691063,6.220214854414999,4.066972035383413,-0.6217498779297836,11.260999999998603
312426.9817,-7.9833446149225775,6.186357756095149,1.9690123487730815,-0.840010805685351,11.261999999987893
312426.9827,-8.63938553360432,6.477420080783421,0.4518280845374913,-0.5464013468347575,11.262999999977183
312426.9837,-8.397016117302503,7.1157313270630835,-0.4250049559185277,0.28454288449651954,11.263999999966472
312426.9847,-7.265934407077135,8.098686074334541,-0.6370612351553808,1.6473411916847644,11.264999999955762
312426.9857,-5.298222352171512,9.397938901825897,-0.19661575680022195,3.504774918615155,11.26600000000326
312426.9867,-2.585926461918464,10.960887181966664,0.8485171518074267,5.789626207981902,11.26699999999255
312426.9877,0.7440466788648425,12.714333315418397,2.418768460267574,8.408836968571459,11.26799999998184
312426.9887,4.537353669825606,14.570007907319985,4.40889967827334,11.24975229289225,11.268999999971129
312426.9897,8.621390882814996,16.43145551405479,6.6958611907317085,14.187918926278485,11.269999999960419
312426.9907,12.815510322694223,18.201652627587016,9.147741016635058,17.095765268455473,11.271000000007916
312426.9917,16.9414767492267,19.79065654671425,11.633030656366525,19.851408836106334,11.271999999997206
312426.9927,20.83335670999692,21.122580781668958,14.029417083704537,22.346828011941444,11.272999999986496
312426.9937,24.346092394273388,22.141258046706785,16.231366864906267,24.494698184920797,11.273999999975786
312426.9947,27.362142959521186,22.81407938488479,18.155894066931015,26.233321928208532,11.274999999965075
312426.9957,29.795760584645677,23.133675093853196,19.746085579256647,27.529266082230833,11.276000000012573
312426.9967,31.594690068749482,23.117312531241577,20.972177781450302,28.377537683851433,11.277000000001863
312426.9977,32.7393178922999,22.80410701829735,21.830215498377633,28.79936427999938,11.277999999991152
312426.9987,33.23952642414433,22.25035318985782,22.338554673364126,28.83786953901054,11.278999999980442
312426.9997,33.12970932945827,21.523464471176172,22.53267163614067,28.552130292099086,11.279999999969732
312427.0007,32.462556109873795,20.695140117883103,22.458894643974574,28.010247233963117,11.280999999959022
312427.0017,31.30230282110508,19.834449421715863,22.16776277408737,27.282144351132693,11.28200000000652
312427.0027,29.718164329053543,19.001524309925262,21.707734784146652,26.43282382043262,11.282999999995809
312427.0037,27.778609959532638,18.242484459036767,21.11991490524985,25.51674272700958,11.283999999985099
312427.0047,25.547025151055227,17.58608980675545,20.434339616385156,24.573851692731086,11.284999999974389
312427.0057,23.079129311650384,17.042436740847783,19.668191870633155,23.627656079298017,11.285999999963678
312427.0067,20.422312331430874,16.603803947146403,18.826095029005888,22.685445786051265,11.287000000011176
312427.0077,17.616830410978167,16.247532770280667,17.902409583727675,21.740611238816253,11.288000000000466
312427.0087,14.698588693784322,15.940616974413556,16.88523480237241,20.776743781291202,11.288999999989755
312427.0097,11.703055416884927,15.64549894878435,15.761627096640163,19.77303028358273,11.289999999979045
312427.0107,8.669718648638135,15.32644154219472,14.523406611485711,18.7103132869383,11.290999999968335
312427.0117,5.646425987606971,14.955779814368293,13.172847710602495,17.577113415218694,11.291999999957625
312427.0127,2.692947382715843,14.519361870563795,11.727545799741952,16.374907807629462,11.293000000005122
312427.0137,-0.11682801772861703,14.020562543182416,10.223823185212037,15.122027593613243,11.293999999994412
312427.0147,-2.694515008679601,13.482391058674606,8.718174010826216,13.855672413506651,11.294999999983702
312427.0157,-4.938943203612068,12.947400809487283,7.286439650844034,12.631727628906493,11.295999999972992
312427.0167,-6.740004215720483,12.475327811911525,6.020632720006829,11.522291840620088,11.296999999962281
312427.0177,-7.9844533925651,12.138613049993713,5.023567919377617,10.611056837535545,11.298000000009779
312427.0187,-8.563265876040962,12.016180248352978,4.4016876194343055,9.986905989167346,11.298999999999069
312427.0197,-8.379962159056557,12.1860233302276,4.256666579977336,9.736288143519532,11.299999999988358
312427.0207,-7.359186456976392,12.717288725784831,4.676523786506824,9.93506318123335,11.300999999977648
312427.0217,-5.454755959742524,13.662603589778238,5.72704533106119,10.640588375670912,11.301999999966938
312427.0227,-2.656407837666808,15.051394930078517,7.444322347611777,11.88481387195219,11.302999999956228
312427.0237,1.0054459545116508,16.884866673121994,9.82913130578747,13.669080345266146,11.304000000003725
312427.0247,5.457495403395427,19.133158822412025,12.843736985873646,15.961168893283906,11.304999999993015
312427.0257,10.584175419974455,21.735018452712666,16.411494552765166,18.694955740037667,11.305999999982305
312427.0267,16.23127000784629,24.60008472240424,20.41938523455314,21.772791003900384,11.306999999971595
312427.0277,22.212319812862276,27.61365104553338,24.72336286112133,25.070473780167102,11.307999999960884
312427.0287,28.317433201597694,30.643539877128628,29.156140158161232,28.444458674218552,11.309000000008382
312427.0297,34.32389233167556,33.54853101111363,33.53682766034711,31.740724362418028,11.309999999997672
312427.0307,40.007789909893454,36.18764147444828,37.6816747715775,34.804582316231105,11.310999999986961
312427.0317,45.155844013773454,38.42947763722574,41.415067175331835,37.490618046183144,11.311999999976251
312427.0327,49.57652557877728,40.16087533991782,44.57991626113418,39.67194621648934,11.312999999965541
312427.0337,53.10969682025654,41.29411193135452,47.04663588114091,41.24802563523536,11.314000000013039
312427.0347,55.63409258063601,41.77210833416684,48.72003348838166,42.15041402359055,11.315000000002328
312427.0357,57.07216734497586,41.57122645701631,49.54363357046999,42.34603253265723,11.315999999991618
312427.0367,57.392060080963034,40.70148923223504,49.50118274160475,41.8377377603578,11.316999999980908
312427.0377,56.60667522487022,39.204285774656135,48.61533561603039,40.66224252347454,11.317999999970198
312427.0387,54.77011776022049,37.14784997020155,46.94376483704339,38.88566247191761,11.318999999959487
312427.0397,51.97193102136475,34.620995606533185,44.57315434070549,36.59717130569571,11.320000000006985
312427.0407,48.329748273945356,31.725736515520328,41.61170207820287,33.90140347892628,11.320999999996275
312427.0417,43.98106889193402,28.56950263001082,38.18086193906219,30.910335437470597,11.321999999985565
312427.0427,39.07489898872017,25.257675143390646,34.4070858191054,27.735396589110394,11.322999999974854
312427.0437,33.76395363631295,21.88710581177895,30.414284140676234,24.48050841623695,11.323999999964144
312427.0447,28.19800937454816,18.54116349482659,26.317612388968264,21.236630646101283,11.325000000011642
312427.0457,22.518834042890465,15.286678169906594,22.219024730180145,18.078219938648758,11.326000000000931
312427.0467,16.85692365450404,12.17294669134473,18.204831222725627,15.061797098401906,11.326999999990221
312427.0477,11.330063992223904,9.23274646984707,14.345273769048333,12.22659473792656,11.327999999979511
312427.0487,6.043529958212876,6.485095048791166,10.695920443913412,9.597041266861204,11.3289999999688
312427.0497,1.0915595457456038,3.9393161572065587,7.300489987732138,7.186650728001157,11.32999999995809
312427.0507,-3.4403904296055727,1.5998439257805517,4.194576867448113,5.002749902452078,11.331000000005588
312427.0517,-7.473169993161797,-0.5288706916052479,1.409666307285147,3.0513978546601153,11.331999999994878
312427.0527,-10.931810299721823,-2.4379871112015645,-1.023184235772068,1.3418459869467536,11.332999999984168
312427.0537,-13.744251768051202,-4.1110041551224175,-3.0705648220660042,-0.11005097922734784,11.333999999973457
312427.0547,-15.841310180029009,-5.522031249637369,-4.695283350042804,-1.2799375989219774,11.334999999962747
312427.0557,-17.15809781574293,-6.635867122851312,-5.856567675708,-2.1348636184703946,11.336000000010245
312427.0567,-17.636921655696835,-7.409947288824693,-6.511980607269595,-2.635076575736234,11.336999999999534
312427.0577,-17.231478580876097,-7.798009465941121,-6.620917710764281,-2.7375677374580456,11.337999999988824
312427.0587,-15.911980120443927,-7.755127691045408,-6.14935794663226,-2.401033322620834,11.338999999978114
312427.0597,-13.670687040568978,-7.243601773746913,-5.075369613443666,-1.591741458568772,11.339999999967404
312427.0607,-10.527233879243838,-6.239076014570572,-3.394756851512955,-0.28967491544352175,11.340999999956694
312427.0617,-6.533087149004851,-4.736211797731135,-1.1261779885292962,1.505736820845306,11.342000000004191
312427.0627,-1.7745136650023285,-2.7532584422998414,1.684917112070025,3.7709687107844903,11.34299999999348
312427.0637,3.6264643767348637,-0.3349543141236983,4.964098243478545,6.455423515880599,11.34399999998277
312427.0647,9.513491902582393,2.446662387440601,8.607934873180495,9.480570532605736,11.34499999997206
312427.0657,15.699842062753874,5.49376062727078,12.486369818406281,12.741448820929687,11.34599999996135
312427.0667,21.974848586337743,8.686548651360331,16.44748651694841,16.11056042062711,11.347000000008848
312427.0677,28.112510597479925,11.889212943612149,20.32443738866246,19.4439476802496,11.347999999998137
312427.0687,33.881759100439695,14.957536819405501,23.944083683816825,22.589032422146705,11.348999999987427
312427.0697,39.05770268780471,17.74759988481073,27.13671708927864,25.39361462133537,11.349999999976717
312427.0707,43.43305593249179,20.12484250068316,29.746108448514292,27.715302551061544,11.350999999966007
312427.0717,46.82890923303173,21.97272867981036,31.63907228090474,29.43058772040804,11.351999999955297
312427.0727,49.10402890201028,23.200262025053497,32.713753889280405,30.44279273195012,11.353000000002794
312427.0737,50.161979261785234,23.747700967584233,32.905938072733015,30.688207678948352,11.353999999992084
312427.0747,49.95552575960223,23.589973462690665,32.19283700808538,30.139883121527387,11.354999999981374
312427.0757,48.487994837301954,22.737493199129407,30.59402547787565,28.80875098247929,11.355999999970663
312427.0767,45.811512957379925,21.234310366401857,28.169434951532182,26.741979889779522,11.356999999959953
312427.0777,42.02230136883969,19.153768336282013,25.014571450416454,24.01871643572866,11.35800000000745
312427.0787,37.25344168164017,16.59206071030287,21.253361924316565,20.743595380356407,11.35899999999674
312427.0797,31.66572830592326,13.660269909766031,17.02923749026293,17.03859806788195,11.35999999998603
312427.0807,25.437368974825514,10.475601103372059,12.495210139066382,13.033980640384645,11.36099999997532
312427.0817,18.753370796848742,7.152591171758331,7.803778417770312,8.859068534002295,11.36199999996461
312427.0827,11.795449931336805,3.795065340192474,3.0974997400520055,4.633714172904115,11.363000000012107
312427.0837,4.733228508764413,0.48953477828160363,-1.4990077385374576,0.46114080317285366,11.364000000001397
312427.0847,-2.2826596481554597,-2.6994155105695055,-5.88501508526557,-3.5772457666209863,11.364999999990687
312427.0857,-9.125128730464274,-5.731393993170852,-9.987165888503965,-7.424690478252329,11.365999999979977
312427.0867,-15.692670906124262,-8.589997534731685,-13.760311025279705,-11.049409837205284,11.366999999969266
312427.0877,-21.908904676901514,-11.280243701087212,-17.18576356974978,-14.442484799435583,11.367999999958556
312427.0887,-27.71992257002112,-13.823975118746086,-20.267283007947473,-17.61364175479834,11.369000000006054
312427.0897,-33.08991933751045,-16.25376157484059,-23.025305475041613,-20.58543615552341,11.369999999995343
312427.0907,-37.99573067876128,-18.605964338402334,-25.49009168689343,-23.386499908660486,11.370999999984633
312427.0917,-42.42099619624182,-20.913700573438256,-27.694552088930298,-26.044594304591527,11.371999999973923
312427.0927,-46.3506714525303,-23.200446811760106,-29.667521521156257,-28.580217448031068,11.372999999963213
312427.0937,-49.76655229773216,-25.47494937454165,-31.428192722424416,-31.00144850422648,11.37400000001071
312427.0947,-52.644346836080885,-27.72797347693992,-32.98228593598889,-33.30057736966134,11.375
312427.0957,-54.95264965737981,-29.931234918656997,-34.320344073419214,-35.45288094446123,11.37599999998929
312427.0967,-56.65395753790795,-32.03863715312521,-35.418318048102904,-37.417684565788264,11.37699999997858
312427.0977,-57.70763729893415,-33.98970375166639,-36.24036723449599,-39.14161131206998,11.37799999996787
312427.0987,-58.07453769007814,-35.71487456552,-36.74356913410785,-40.56369602875794,11.37899999995716
312427.0997,-57.72274981579132,-37.142144875483204,-36.884032882001996,-41.62184727877778,11.380000000004657
312427.1007,-56.633883386835876,-38.20438894853909,-36.62376271377728,-42.25999803522862,11.380999999993946
312427.1017,-54.809152647149766,-38.84663614690298,-35.937534404347325,-42.435208828888975,11.381999999983236
312427.1027,-52.27456361611428,-39.03256621289071,-34.81903802756278,-42.12398285720233,11.382999999972526
312427.1037,-49.08456372279034,-38.7495607437927,-33.28560501264966,-41.32712173064428,11.383999999961816
312427.1047,-45.323649395467065,-38.011783325772534,-31.380969969167346,-40.07258636664768,11.385000000009313
312427.1057,-41.10561373975573,-36.860948124829314,-29.175705076374523,-38.4160168037393,11.385999999998603
312427.1067,-36.570337025242274,-35.36465769235515,-26.765188612776303,-36.438788932789166,11.386999999987893
312427.1077,-31.878255904547792,-33.6124238158484,-24.265207537230513,-34.24372343999996,11.387999999977183
312427.1087,-27.20287046302872,-31.709707742036272,-21.805523643042633,-31.948789458529667,11.388999999966472
312427.1097,-22.721839654104862,-29.770506372114507,-19.521931305312748,-29.679340348207727,11.389999999955762
312427.1107,-18.607356793425392,-27.909150584314116,-17.547482924926836,-27.559562634452078,11.39100000000326
312427.1117,-15.016573819493049,-26.23205714497955,-16.003641497685493,-25.70389741966717,11.39199999999255
312427.1127,-12.08284844203086,-24.83017947335638,-14.992130316905843,-24.20919889666592,11.39299999998184
312427.1137,-9.908521491686969,-23.772834560651464,-14.58818678928732,-23.148326435026636,11.393999999971129
312427.1147,-8.559799143964613,-23.103450351395615,-14.83579703799238,-22.565731744241234,11.394999999960419
312427.1157,-8.064128965752786,-22.837592958071138,-15.745303273635244,-22.475414029359225,11.396000000007916
312427.1167,-8.410237786704602,-22.963414337770118,-17.29355500328946,-22.861392259973627,11.396999999997206
312427.1177,-9.550764458789034,-23.44442992552443,-19.426539674046857,-23.680606506611742,11.397999999986496
312427.1187,-11.407194156867435,-24.22431477709675,-22.064201313114292,-24.867932872562704,11.398999999975786
312427.1197,-13.87660460568259,-25.233217563250417,-25.106959214207876,-26.342800986714163,11.399999999965075
312427.1207,-16.839587093576245,-26.394952659348792,-28.443291721792185,-28.016758287182153,11.401000000012573
312427.1217,-20.168620123385235,-27.634355012981615,-31.95766671539547,-29.801245361335177,11.402000000001863
312427.1227,-23.736158665572205,-28.88407760414051,-35.53808819972033,-31.61483897765814,11.402999999991152
312427.1237,-27.421757931630935,-30.09017733009685,-39.08258808731047,-33.38928459231714,11.403999999980442
312427.1247,-31.11767114074524,-31.215965269777154,-42.50411731590597,-35.07377132662593,11.404999999969732
312427.1257,-34.73253335036193,-32.24377842998533,-45.73346789658299,-36.637086491156,11.405999999959022
312427.1267,-38.19295042887654,-33.17454416172753,-48.72006918862676,-38.06750529507581,11.40700000000652
312427.1277,-41.4430327083277,-34.02523415069209,-51.43072612165629,-39.37050267382469,11.407999999995809
312427.1287,-44.44212456186,-34.82451980241773,-53.846581488632246,-40.56459521964306,11.408999999985099
312427.1297,-47.16116285477009,-35.60712362121276,-55.958767110807024,-41.67581007542473,11.409999999974389
312427.1307,-49.578230734526535,-36.40749367828367,-57.76334113126643,-42.73141562529129,11.410999999963678
312427.1317,-51.67394524465499,-37.25349731819792,-59.25617748987003,-43.75362220874325,11.412000000011176
312427.1327,-53.42732066493595,-38.16082898470752,-60.42847174084818,-44.75396262197453,11.413000000000466
312427.1337,-54.81268411257349,-39.128755538432195,-61.26345489230258,-45.72899168938153,11.413999999989755
312427.1347,-55.79809255512425,-40.13768772449935,-61.734771106534666,-46.65780866294976,11.414999999979045
312427.1357,-56.345524048489686,-41.14888182364075,-61.80678956865757,-47.501719056757764,11.415999999968335
312427.1367,-56.41290879082834,-42.1063592337625,-61.43690436885504,-48.206132294986496,11.416999999957625
312427.1377,-55.95784876146611,-42.94090518589822,-60.579650852247354,-48.704560093774994,11.418000000005122
312427.1387,-54.942670679274784,-43.57579345496406,-59.19225562967911,-48.92436081237289,11.418999999994412
312427.1397,-53.34028702025454,-43.933703079867364,-57.24106213463116,-48.79368898945449,11.419999999983702
312427.1407,-51.14022186576814,-43.94416380348985,-54.70815265394938,-48.248975552724524,11.420999999972992
312427.1417,-48.35410531328691,-43.55080219479697,-51.59743427057263,-47.24219627884457,11.421999999962281
312427.1427,-45.019958566271534,-42.71766692307195,-47.939476628769235,-45.747191072391374,11.423000000009779
312427.1437,-41.204681025031654,-41.43398913997771,-43.794483043947885,-43.76437446829129,11.423999999999069
312427.1447,-37.00430303067408,-39.716875151627335,-39.25293512016583,-41.32332123237133,11.424999999988358
312427.1457,-32.541769293778174,-37.611620034937694,-34.433660064307695,-38.48290637427458,11.425999999977648
312427.1467,-27.962249358499566,-35.189554131578795,-29.479309520033535,-35.328907504435556,11.426999999966938
312427.1477,-23.426210418043258,-32.54356785555793,-24.549485995359927,-31.969217176401685,11.427999999956228
312427.1487,-19.10071110430279,-29.781681356089916,-19.811983859203742,-28.527040433777827,11.429000000003725
312427.1497,-15.149560487794346,-27.019212836081028,-15.4328038371154,-25.13264613388882,11.429999999993015
312427.1507,-11.723115842450886,-24.370234552992883,-11.565733929623606,-21.914380942318417,11.430999999982305
312427.1517,-8.948552421147067,-21.939075575752607,-8.342352141228035,-18.989728502134916,11.431999999971595
312427.1527,-6.92142181542406,-19.812628409415147,-5.863290561951864,-16.457195955525837,11.432999999960884
312427.1537,-5.699222983982516,-18.054142778851876,-4.191506866777668,-14.389735671491977,11.434000000008382
312427.1547,-5.297549543052402,-16.699051293660748,-3.348146288989149,-12.830268813296462,11.434999999997672
312427.1557,-5.689162778217069,-15.753181769056654,-3.311359335610628,-11.789682834671373,11.435999999986961
312427.1567,-6.806091615538064,-15.193487974619215,-4.018187955805684,-11.247445839982417,11.436999999976251
312427.1577,-8.544601371973082,-14.971196012337085,-5.369368904508288,-11.154739017462283,11.437999999965541
312427.1587,-10.772626542945632,-15.017039948182719,-7.236652145454968,-11.439777270888829,11.439000000013039
312427.1597,-13.33905209771646,-15.24806917901694,-9.472017583377749,-12.01478987188517,11.440000000002328
312427.1607,-16.084072340964667,-15.575369552399652,-11.918015054059733,-12.783986348165842,11.440999999991618
312427.1617,-18.849770771545625,-15.911963752453435,-14.41836487304528,-13.651751776645693,11.441999999980908
312427.1627,-21.490056370301616,-16.18015096207547,-16.827947201546113,-14.530307641020487,11.442999999970198
312427.1637,-23.879161906481986,-16.317611443711982,-19.021378459618113,-15.346139817208593,11.443999999959487
312427.1647,-25.918051330827474,-16.281731676617987,-20.899514979224044,-16.044627319968008,11.445000000006985
312427.1657,-27.53828257805465,-16.051787049213825,-22.393424256021092,-16.59249098033459,11.445999999996275
312427.1667,-28.703110177324422,-15.62883388589065,-23.46560330991905,-16.97790187062264,11.446999999985565
312427.1677,-29.405866417479466,-15.033389659026282,-24.108479002271878,-17.208323337213855,11.447999999974854
312427.1687,-29.665906452062657,-14.301197354604813,-24.34047249573064,-17.306384990461698,11.448999999964144
312427.1697,-29.522618537310752,-13.477555938951431,-24.200126127429577,-17.304279989187236,11.450000000011642
312427.1707,-29.028165526063944,-12.61083565706188,-23.738955700283388,-17.237319642420555,11.451000000000931
312427.1717,-28.239722724455866,-11.745871307040552,-23.013789554127708,-17.137357907059148,11.451999999990221
312427.1727,-27.21200159447673,-10.917931668663625,-22.079379219923005,-17.02680528024117,11.452999999979511
312427.1737,-25.990797099989205,-10.1478987372491,-20.9820137223976,-16.91388640736696,11.4539999999688
312427.1747,-24.60817460389937,-9.439162979135224,-19.754746770085493,-16.789665069802325,11.45499999995809
312427.1757,-23.07973269535806,-8.776563297903559,-18.41466597101813,-16.62717712506936,11.456000000005588
312427.1767,-21.40415918175687,-8.127490489653091,-16.962414096503917,-16.382794634620097,11.456999999994878
312427.1777,-19.565060429805722,-7.4450515256583385,-15.383936188057426,-15.999714376525203,11.457999999984168
312427.1787,-17.534812554644603,-6.672980980474474,-13.654196365046081,-15.413243995146368,11.458999999973457
312427.1797,-15.279979204479648,-5.751806210874583,-11.742407157735133,-14.55737099123398,11.459999999962747
312427.1807,-12.767684548833564,-4.6256422644101844,-9.618161688778125,-13.371962280847802,11.461000000010245
312427.1817,-9.972236441139984,-3.248923883267625,-7.257769789233641,-11.809868865715858,11.461999999999534
312427.1827,-6.881272269310887,-1.5923821807766962,-4.650081579021761,-9.843208665974,11.462999999988824
312427.1837,-3.5007503857982476,0.3523573648978751,-1.801137461094181,-7.468171130748867,11.463999999978114
312427.1847,0.14177226943205457,2.5700477816796012,1.2628940583036135,-4.7078231407804125,11.464999999967404
312427.1857,3.9959627332507863,5.021276102939164,4.494852357402726,-1.6125837987945266,11.465999999956694
312427.1867,7.989810271065851,7.64420130565626,7.827942603632378,1.7417423261937872,11.467000000004191
312427.1877,12.032948087439626,10.358451822221827,11.179235087156817,5.258249717936065,11.46799999999348
312427.1887,16.02192424926699,13.070848234978138,14.45500477125254,8.8251868189008,11.46899999998277
312427.1897,19.84695313775727,15.682437168069733,17.55741911078497,12.3236428266671,11.46999999997206
312427.1907,23.39953092621579,18.096192378281454,20.391940531671118,15.63598792777175,11.47099999996135
312427.1917,26.58021172926888,20.22467140260609,22.874731563767185,18.654313419080857,11.472000000008848
312427.1927,29.305823460444834,21.99691751566524,24.939343344500344,21.28811529102407,11.472999999998137
312427.1937,31.515455483676536,23.363967085052256,26.542032842688336,23.4705345011431,11.473999999987427
312427.1947,33.1746682968747,24.30245482871184,27.665184317118694,25.162602580129587,11.474999999976717
312427.1957,34.2775467972171,24.815991032988766,28.318493330121775,26.355129205011167,11.475999999966007
312427.1967,34.846426014538146,24.934197727565913,28.537788954067818,27.068090649775638,11.476999999955297
312427.1977,34.92934094829326,24.709514309426474,28.38160007245726,27.34761296741786,11.478000000002794
312427.1987,34.595468259815185,24.21209531255403,27.9257920199571,27.260868552518776,11.478999999992084
312427.1997,33.92901576009525,23.523303203606016,27.256788322314918,26.889397594460114,11.479999999981374
312427.2007,33.02215745305355,22.728429671376922,26.46403021176761,26.321508232484426,11.480999999970663
312427.2017,31.96769357538289,21.909347174679567,25.63240011849348,25.644487315991693,11.481999999959953
312427.2027,30.852128870413136,21.13779195063747,24.835337042086532,24.937360212416408,11.48300000000745
312427.2037,29.74980727690099,20.469910465252333,24.129301257258124,24.264872761201254,11.48399999999674
312427.2047,28.718623196153,19.942570362533637,23.550110020222647,23.67323795440094,11.48499999998603
312427.2057,27.797660676731528,19.57175735597156,23.1114781235249,23.188007314339636,11.48599999997532
312427.2067,27.006909423877406,19.35316901202701,22.80587580215059,22.814210404335945,11.48699999996461
312427.2077,26.3489910265806,19.26489584142047,22.607583516913504,22.538676918771756,11.488000000012107
312427.2087,25.81262200538302,19.271871369048856,22.47760166868571,22.33423701603808,11.489000000001397
312427.2097,25.377363131771933,19.33159656478376,22.36988542883913,22.16530861221522,11.489999999990687
312427.2107,25.019074889252888,19.400517655019218,22.238239482944707,21.994243716237353,11.490999999979977
312427.2117,24.715430098597515,19.44037244622752,22.043138346146016,21.787733052618098,11.491999999969266
312427.2127,24.45083368319422,19.423825259189577,21.757742294810196,21.522566368686487,11.492999999958556
312427.2137,24.220166559241118,19.33878397421978,21.37245689446886,21.19011511669547,11.494000000006054
312427.2147,24.030899095173858,19.19092732750642,20.89752831794532,20.79903774215925,11.494999999995343
312427.2157,23.9032966666035,19.004153202787396,20.36336325007236,20.375892319595724,11.495999999984633
312427.2167,23.868647738735753,18.818871175958964,19.81849199175684,19.963558391535546,11.496999999973923
312427.2177,23.965662621676547,18.688283927429012,19.325333810924512,19.617597940443538,11.497999999963213
312427.2187,24.235396410708834,18.67301033432213,18.95415083816624,19.400901661006408,11.49900000001071
312427.2197,24.71522155335419,18.834577320360772,18.775768205375797,19.377149410349663,11.5
312427.2207,25.432496061158847,19.228430390796287,18.85377439427173,19.60374445869571,11.50099999998929
312427.2217,26.398629670191607,19.89717175177442,19.236982923001733,20.124946595577796,11.50199999997858
312427.2227,27.604235617135238,20.864723814283035,19.952927292755767,20.96592234800148,11.50299999996787
312427.2237,29.015970513573848,22.13203541418777,21.003075748521116,22.128351751346393,11.50399999995716
312427.2247,30.575516469083617,23.674805786649355,22.36029856721353,23.588087629573625,11.505000000004657
312427.2257,32.20096187504845,25.443510874142763,23.968912719335613,25.295168964138046,11.505999999993946
312427.2267,33.790608884679706,27.365796360862287,25.74738666829941,27.176263519846525,11.506999999983236
312427.2277,35.228998590111054,29.351073323887118,27.59353502284641,29.13937854381872,11.507999999972526
312427.2287,36.39472225305366,31.2969378569079,29.39179315831311,31.0804552171256,11.508999999961816
312427.2297,37.16940055369594,33.09685642587117,31.021958968618915,32.89127456018387,11.510000000009313
312427.2307,37.447081214729025,34.64843165883585,32.36864231407658,34.467968242859165,11.510999999998603
312427.2317,37.143241910563155,35.86150126375519,33.330586793299986,35.71936059950849,11.511999999987893
312427.2327,36.20259698567754,36.665332002348016,33.82903069456474,36.57437495335171,11.512999999977183
312427.2337,34.60499291001079,37.01425040229764,33.814354354923154,36.98781777619478,11.513999999966472
312427.2347,32.368831156205616,36.89119459515163,33.270412146631905,36.94400074513125,11.514999999955762
312427.2357,29.551664388949288,36.30886364988233,32.2161546263662,36.45785946496089,11.51600000000326
312427.2367,26.247853464724155,35.30836358719188,30.704390361643323,35.57345947770312,11.51699999999255
312427.2377,22.58342638659581,33.95548148749835,28.81779447460298,34.360022920052344,11.51799999998184
312427.2387,18.70852250312014,32.33493843509541,26.662517684936144,32.905839489863325,11.518999999971129
312427.2397,14.788013422174368,30.543157438051463,24.359962393743157,31.3106211190608,11.519999999960419
312427.2407,10.991047096507689,28.680216212242343,22.037451291845404,29.67700215035348,11.521000000007916
312427.2417,7.480349157301161,26.84172413769169,19.81860451625691,28.101962282219336,11.521999999997206
312427.2427,4.402128059260074,25.111361364755652,17.814255562085062,26.668950978154154,11.522999999986496
312427.2437,1.8773673166785274,23.55474641786526,16.114673383914177,25.44141950742582,11.523999999975786
312427.2447,-0.004844425966998464,22.215163981659487,14.783725156128067,24.45832753207216,11.524999999965075
312427.2457,-1.1914835143044729,21.111500216882536,13.855424433472393,23.731998860864735,11.526000000012573
312427.2467,-1.6670263893652981,20.238517076032274,13.333081706440531,23.24847443964113,11.527000000001863
312427.2477,-1.4521575755225118,19.569370801871987,13.191030789493471,22.97027188508372,11.527999999991152
312427.2487,-0.5999948965748703,19.060065152054968,13.378668607423677,22.841233048808537,11.528999999980442
312427.2497,0.8097160345551941,18.65534772677552,13.826340245165598,22.79294622116229,11.529999999969732
312427.2507,2.6778261253356703,18.295425648839338,14.45244490573605,22.75208635547498,11.530999999959022
312427.2517,4.8937161522839165,17.922807352935813,15.171045951759064,22.64793870956041,11.53200000000652
312427.2527,7.343201659560733,17.488576791777653,15.899247376835607,22.419365735421618,11.532999999995809
312427.2537,9.915715446543818,16.957474571693982,16.563650653503434,22.02054396967205,11.533999999985099
312427.2547,12.510182673939301,16.311290257525442,17.105323609351853,21.424930065384803,11.534999999974389
312427.2557,15.039165958821911,15.550248177838272,17.482884033171615,20.62709955729355,11.535999999963678
312427.2567,17.431056337461467,14.692277635608562,17.673507225025705,19.64232000943864,11.537000000011176
312427.2577,19.630300132304967,13.770276647872532,17.671887473061233,18.503950167647965,11.538000000000466
312427.2587,21.595859762506464,12.827684456000929,17.48739606009935,17.25897583902617,11.538999999989755
312427.2597,23.298287461908966,11.912851555160673,17.13986149468433,15.96217979401947,11.539999999979045
312427.2607,24.71592673521266,11.072819626253953,16.65453298473346,14.66957863941186,11.540999999968335
312427.2617,25.83083392235606,10.34718520328515,16.056862423175925,13.431831007885163,11.541999999957625
312427.2627,26.62502418445962,9.7627140219506,15.36774626676497,12.288321580210859,11.543000000005122
312427.2637,27.07759199987425,9.32929839018073,14.599806511851813,11.262554472978612,11.543999999994412
312427.2647,27.163142021054732,9.037714933516973,13.755166266565757,10.359354496972665,11.544999999983702
312427.2657,26.851804139638688,8.85945803469044,12.825003171408895,9.56418916518614,11.545999999972992
312427.2667,26.11091394002176,8.748713241147794,11.79096102833626,8.844706568090588,11.546999999962281
312427.2677,24.90823662703856,8.646315816282607,10.628287480759562,8.154356002521777,11.548000000009779
312427.2687,23.216420328781666,8.485334283245999,9.310365477340145,7.4377422755895575,11.548999999999069
312427.2697,21.018203694422997,8.197747788867293,7.8141393912884975,6.6371824734165035,11.549999999988358
312427.2707,18.31179013091746,7.721566613278526,6.125820607894194,5.6998039554842475,11.550999999977648
312427.2717,15.115749216725245,7.0076893516988505,4.246204632432449,4.58445757242137,11.551999999966938
312427.2727,11.472821054806248,6.025804132742957,2.1949484748303982,3.2677273574298296,11.552999999956228
312427.2737,7.452081071421595,4.768723792053189,0.01324242644652675,1.7483968649410766,11.554000000003725
312427.2747,3.149063762754723,3.2546884849568447,-2.2355433835381433,0.049875505159431406,11.554999999993015
312427.2757,-1.3163692038667798,1.5273600449635343,-4.4674640180647005,-1.779718128771103,11.555999999982305
312427.2767,-5.8044164306583905,-0.34654798383514057,-6.581861276441014,-3.6698936171363084,11.556999999971595
312427.2777,-10.161758290638671,-2.281833654294932,-8.46725883886073,-5.532389392166737,11.557999999960884
312427.2787,-14.229584962722226,-4.181179947812155,-10.008856497014223,-7.267657615880425,11.559000000008382
312427.2797,-17.852633485520233,-5.942778001350009,-11.097014861649237,-8.772667393783768,11.559999999997672
312427.2807,-20.88851974461621,-7.468516168751639,-11.636003114797767,-9.949327103813543,11.560999999986961
312427.2817,-23.216600405007437,-8.671992027981778,-11.552231315044198,-10.712759818696755,11.561999999976251
312427.2827,-24.74562045239801,-9.485616603261679,-10.801211421652582,-10.998672239233661,11.562999999965541
312427.2837,-25.419493120623297,-9.866162164388037,-9.372586367664091,-10.769136774591761,11.564000000013039
312427.2847,-25.220712553270655,-9.798249120240072,-7.29272589057157,-10.016250843056731,11.565000000002328
312427.2857,-24.171101417045232,-9.295459814080745,-4.6245968246952485,-8.763333209465406,11.565999999991618
312427.2867,-22.32982690902879,-8.398988849743748,-1.464854670724557,-7.06354532851213,11.566999999980908
312427.2877,-19.788857296378357,-7.173969476332609,2.0616500349140963,-4.996064207564516,11.567999999970198
312427.2887,-16.666254610216427,-5.703831339410325,5.809526079677083,-2.6601592566738312,11.568999999959487
312427.2897,-13.097886116790313,-4.083225806766056,9.622038923572468,-0.16771725958883127,11.570000000006985
312427.2907,-9.228269933843695,-2.4101837940647863,13.341096067141013,2.3651013227742723,11.570999999996275
312427.2917,-5.201336100414251,-0.7782353851310909,16.817197295386805,4.826318148773069,11.571999999985565
312427.2927,-1.1518774393064737,0.7307852972008043,19.918533954681692,7.115947398673294,11.572999999974854
312427.2937,2.8016144038078488,2.052601573886796,22.538503399661185,9.152474454820858,11.573999999964144
312427.2947,6.562175455053023,3.144510227328699,24.60105348953293,10.877452467241026,11.575000000011642
312427.2957,10.057299389341775,3.9872246921426964,26.06347325793866,12.25785356569077,11.576000000000931
312427.2967,13.239436547071767,4.584432184258835,26.916480415225507,13.286031405599168,11.576999999990221
312427.2977,16.084161802944635,4.960174342594064,27.18170186489925,13.977382916582723,11.577999999979511
312427.2987,18.586332429180775,5.154370737583627,26.906876687573316,14.366017066207991,11.5789999999688
312427.2997,20.754744259139798,5.216981029995864,26.159310120077798,14.49892587771618,11.57999999995809
312427.3007,22.605929586250745,5.201427674521091,25.018253379333913,14.429289837321553,11.581000000005588
312427.3017,24.157810542180144,5.157964873642178,23.566964347897688,14.209623186513726,11.581999999994878
312427.3027,25.42392070544723,5.127675141969021,21.885211162978816,13.885467657192633,11.582999999984168
312427.3037,26.40883583144854,5.137703152591974,20.042914702517013,13.490276096612545,11.583999999973457
312427.3047,27.105319166859527,5.198204884964594,18.09549393135217,13.041997123430168,11.584999999962747
312427.3057,27.49350127264202,5.301311688844749,16.08129346160377,12.541691594817813,11.586000000010245
312427.3067,27.54219694594439,5.422201464446172,14.021253898633871,11.974299258015478,11.586999999999534
312427.3077,27.212234110219423,5.522153278399169,11.920754201829393,11.311450628092174,11.587999999988824
312427.3087,26.46145387018878,5.55325872864167,9.773334114761512,10.516007043437913,11.588999999978114
312427.3097,25.250858597834267,5.464293296616886,7.565815348383572,9.54783204715177,11.589999999967404
312427.3107,23.55125401660424,5.207130600766854,5.284201083107859,8.370167590350611,11.590999999956694
312427.3117,21.34966490861724,4.743023826946873,2.919657965846693,6.955921982425888,11.592000000004191
312427.3127,18.654809160981046,4.048087540625961,0.47388031282338167,5.293179744870596,11.59299999999348
312427.3137,15.500991339283921,3.117388827208856,-2.036797087723614,3.3893164035049184,11.59399999998277
312427.3147,11.94991783282695,1.9671919323637643,-4.579040109773782,1.273236748916623,11.59499999997206
312427.3157,8.090127578482956,0.6350820899705288,-7.102230526179596,-1.0045600192379465,11.59599999996135
312427.3167,4.033957146933678,-0.8220957457992987,-9.540359960649534,-3.3741687065372976,11.597000000008848
312427.3177,-0.08780497913166725,-2.3323296316318665,-11.815979818649732,-5.750574412845609,11.597999999998137
312427.3187,-4.133195514115733,-3.8142068512869884,-13.845867870613683,-8.039697226034797,11.598999999987427
312427.3197,-7.957714016768569,-5.183825050648291,-15.547887851524665,-10.145645589680658,11.599999999976717
312427.3207,-11.423610554721668,-6.362199827823265,-16.84838479668549,-11.978509840573619,11.600999999966007
312427.3217,-14.409038629809386,-7.282463118729048,-17.689389304367914,-13.461963090496557,11.601999999955297
312427.3227,-16.816287245930923,-7.8961581251754005,-18.03490570266911,-14.539943440092301,11.603000000002794
312427.3237,-18.57837798402614,-8.178015739293656,-17.875632444485827,-15.18176919009878,11.603999999992084
312427.3247,-19.663451727108367,-8.128736984537376,-17.231601217561575,-15.385180043005718,11.604999999981374
312427.3257,-20.07656230855687,-7.775492554815924,-16.152411151501376,-15.176988800829841,11.605999999970663
312427.3267,-19.85872274312924,-7.170066097240209,-14.714957966272353,-14.61125135022741,11.606999999959953
312427.3277,-19.083292333640625,-6.384791581074242,-13.0187934478099,-13.76509621723707,11.60800000000745
312427.3287,-17.850026973341,-5.506645213772918,-11.179475520931328,-12.732576049932149,11.60899999999674
312427.3297,-16.277318383043585,-4.630028468991076,-9.32046164090819,-11.617090581676043,11.60999999998603
312427.3307,-14.49330179695153,-3.848903719446879,-7.564239539976177,-10.523065725682319,11.61099999997532
312427.3317,-12.62660149800875,-3.2490055117875634,-6.023465738282283,-9.547643272950495,11.61199999996461
312427.3327,-10.797501514191998,-2.9008426268126866,-4.792886104569594,-8.773133359192988,11.613000000012107
312427.3337,-9.110273557429036,-2.8541294368366517,-3.942743572884503,-8.260907589205878,11.614000000001397
312427.3347,-7.64727177609245,-3.1341471010029243,-3.5142423980654844,-8.04727162154191,11.614999999990687
312427.3357,-6.465226401943187,-3.7403492153624893,-3.517449023515239,-8.141665602968343,11.615999999979977
312427.3367,-5.593953440576622,-4.647310735439217,-3.9317848968831437,-8.527317594680325,11.616999999969266
312427.3377,-5.037466237868455,-5.80789432610623,-4.709027996900694,-9.164240758629807,11.617999999958556
312427.3387,-4.777249568901456,-7.158296661388017,-5.778510356706053,-9.994242377191416,11.619000000006054
312427.3397,-4.777259608426693,-8.624459230359122,-7.054000511441924,-10.947423432788769,11.619999999995343
312427.3407,-4.990062640251268,-10.129201254840657,-8.441611529201253,-11.94950988579986,11.620999999984633
312427.3417,-5.36343580251135,-11.59936874678539,-9.847991157817226,-12.929284297294659,11.621999999973923
312427.3427,-5.846732586915462,-12.972299669037731,-11.18803839703704,-13.825385997756934,11.622999999963213
312427.3437,-6.396365361163981,-14.200979924489069,-12.391451198486937,-14.591819474379855,11.62400000001071
312427.3447,-6.979871030345983,-15.2574010267161,-13.407536605813862,-15.201646834187002,11.625
312427.3457,-7.578191882566529,-16.13381429631516,-14.207894606402242,-15.648527523109001,11.62599999998929
312427.3467,-8.186004326387742,-16.841790055863004,-14.786802218345024,-15.945988327899567,11.62699999997858
312427.3477,-8.810142887888194,-17.409212406013033,-15.159353433012088,-16.124537235533097,11.62799999996787
312427.3487,-9.466373461466288,-17.875548749509928,-15.3576308616761,-16.226953091576405,11.62899999995716
312427.3497,-10.174947287038137,-18.285907601450692,-15.425374569162539,-16.302267500544453,11.630000000004657
312427.3507,-10.9554973803736,-18.68452105519652,-15.411754032216411,-16.399087701768046,11.630999999993946
312427.3517,-11.821908945650732,-19.10834730843563,-15.364926824508439,-16.558976041772617,11.631999999983236
312427.3527,-12.777797595722319,-19.58147792489369,-15.326075208595853,-16.810596419387284,11.632999999972526
312427.3537,-13.813163819052656,-20.110954931070133,-15.324549038338278,-17.16526111041479,11.633999999961816
312427.3547,-14.902665777654803,-20.684462147164293,-15.374617011224533,-17.61437020085104,11.635000000009313
312427.3557,-16.00577812947585,-21.27016710751857,-15.47415147598287,-18.12904436735854,11.635999999998603
312427.3567,-17.06889999403473,-21.818773031333787,-15.605362844690882,-18.66202885876978,11.636999999987893
312427.3577,-18.029261406776182,-22.267615954441844,-15.737479541891238,-19.151714337705467,11.637999999977183
312427.3587,-18.820276651248886,-22.54643252752901,-15.831060785587757,-19.527901819101942,11.638999999966472
312427.3597,-19.37782555778812,-22.584249949622667,-15.843453612153812,-19.718756099657586,11.639999999955762
312427.3607,-19.646827780750588,-22.316728436908416,-15.734780414138246,-19.658263188884973,11.64100000000326
312427.3617,-19.587422736095103,-21.69323078218508,-15.473781749848802,-19.293445460898006,11.64199999999255
312427.3627,-19.180085496014268,-20.682908835591842,-15.042847810530976,-18.59060012118367,11.64299999998184
312427.3637,-18.42909571651218,-19.279182071921966,-14.441650145677423,-17.539911472401133,11.643999999971129
312427.3647,-17.36392488946589,-17.50213086929486,-13.688925482172847,-16.157937526424544,11.644999999960419
312427.3657,-16.03830290799168,-15.39852265555071,-12.822151876147434,-14.487672458446237,11.646000000007916
312427.3667,-14.526949269656795,-13.039413867653609,-11.895075229851503,-12.596118874890356,11.646999999997206
312427.3677,-12.920185312724833,-10.51550296344291,-10.973269540620588,-10.569545319179264,11.647999999986496
312427.3687,-11.316858862719572,-7.930626951175416,-10.128124371127598,-8.506831319870143,11.648999999975786
312427.3697,-9.816190060907443,-5.393974868789775,-9.429826545485424,-6.51149234919378,11.649999999965075
312427.3707,-8.509268906552471,-3.011718614754055,-8.940022089106174,-4.683111544595263,11.651000000012573
312427.3717,-7.470988381502607,-0.8788219648919138,-8.704896345594607,-3.108970519043145,11.652000000001863
312427.3727,-6.753175706249973,0.9282236017309149,-8.749389006417454,-1.8566612756348568,11.652999999991152
312427.3737,-6.379589290994437,2.3570715595548917,-9.073167678384355,-0.9683757203900216,11.653999999980442
312427.3747,-6.343288467450924,3.3830844738946935,-9.648826924988793,-0.45741641743250083,11.654999999969732
312427.3757,-6.606671732296277,4.010469988835495,-10.422574133640522,-0.3072664999911023,11.655999999959022
312427.3767,-7.104236678925096,4.270897100732075,-11.317428696090575,-0.4733176582798823,11.65700000000652
312427.3777,-7.747863899159867,4.219737936076055,-12.238719481467255,-0.8871057640218648,11.657999999995809
312427.3787,-8.434191738508082,3.930302918117,-13.08144088171135,-1.4626679051384148,11.658999999985099
312427.3797,-9.053451397987576,3.4866242823160634,-13.73884179052841,-2.104435061472811,11.659999999974389
312427.3807,-9.498991490649352,2.975476373393974,-14.111493083227524,-2.7159305428020835,11.660999999963678
312427.3817,-9.676651418149387,2.478388227972611,-14.11602041386116,-3.2084694794178725,11.662000000011176
312427.3827,-9.513150773935761,2.0643982784384094,-13.692706659382162,-3.509056261212577,11.663000000000466
312427.3837,-8.962746966230634,1.7842233414308626,-12.81126102195345,-3.5667546418993403,11.663999999989755
312427.3847,-8.01156759481445,1.6663721099505338,-11.474211323191197,-3.356951686285982,11.664999999979045
312427.3857,-6.679233405993121,1.7155411174456852,-9.7175876160513,-2.883137655308086,11.665999999968335
312427.3867,-5.01763225061861,1.9134074151656297,-7.608809092864253,-2.1760598847159076,11.666999999957625
312427.3877,-3.1069613911896674,2.2216988492247163,-5.241939432750362,-1.2903569735073666,11.668000000005122
312427.3887,-1.0494006144639663,2.5872025701178187,-2.7307143199688473,-0.2990162913620059,11.668999999994412
312427.3897,1.0390110504950332,2.948186641569653,-0.19994634343601864,0.7137997271363816,11.669999999983702
312427.3907,3.0375662116150988,3.2415762939912485,2.2239421547101794,1.6608640813180893,11.670999999972992
312427.3917,4.830331472067381,3.410158267909245,4.422432137017048,2.4601566440556444,11.671999999962281
312427.3927,6.315014222825993,3.40909017530247,6.293641888683887,3.042514191703725,11.673000000009779
312427.3937,7.410492681751803,3.2110662099823117,7.759534677134861,3.357945226997179,11.673999999999069
312427.3947,8.062383681230159,2.8096282615846313,8.770999146639888,3.380032243079074,11.674999999988358
312427.3957,8.246214644113419,2.2202987564522703,9.310402534503064,3.108034708357706,11.675999999977648
312427.3967,7.967995498653722,1.479429780162858,9.391452990263703,2.5665319811155456,11.676999999966938
312427.3977,7.262230657450527,0.6408906746134063,9.056456002652453,1.8026843850641425,11.677999999956228
312427.3987,6.187647060042246,-0.2290690623038848,8.371287424444475,0.8814194528508557,11.679000000003725
312427.3997,4.821119132291061,-1.0582641799662238,7.418609279054889,-0.12095331727885703,11.679999999993015
312427.4007,3.250426052315057,-1.7756791500285023,6.290005277043936,-1.1240508269220222,11.680999999982305
312427.4017,1.5665667209690743,-2.3185239086674634,5.077796852260745,-2.050919540607849,11.681999999971595
312427.4027,-0.14362445960952955,-2.638534940801477,3.8673102088072757,-2.834997503359661,11.682999999960884
312427.4037,-1.8038731152028729,-2.7068923636571425,2.730300275056986,-3.42586413018427,11.684000000008382
312427.4047,-3.353305456844979,-2.5172613526346588,1.720105746277165,-3.793237040295294,11.684999999997672
312427.4057,-4.749342569845843,-2.0866523478226418,0.86892421548358,-3.9288576700473157,11.685999999986961
312427.4067,-5.9684673537282915,-1.4540105538314656,0.1873765195549006,-3.8461235177368422,11.686999999976251
312427.4077,-7.0049070215667335,-0.6766699477991703,-0.3337031045254289,-3.5775529819609524,11.687999999965541
312427.4087,-7.867489202070727,0.17498182940816945,-0.7195365458664955,-3.1703861122624826,11.689000000013039
312427.4097,-8.57511441879059,1.024104515769593,-1.0062062636660378,-2.6808096302893483,11.690000000002328
312427.4107,-9.151423707341614,1.794623973686961,-1.2346087363211753,-2.16742903459077,11.690999999991618
312427.4117,-9.619314044745002,2.418359420141272,-1.444245582110777,-1.6846812972825824,11.691999999980908
312427.4127,-9.995959087915647,2.8413589831252395,-1.667544401665854,-1.2768817992384207,11.692999999970198
312427.4137,-10.288928416294452,3.028821625419198,-1.9253337724835236,-0.9735289684819076,11.693999999959487
312427.4147,-10.493871970939903,2.968123102736578,-2.2239654607447976,-0.7863568142250462,11.695000000006985
312427.4157,-10.594060849787601,2.669650917941596,-2.5543953896431333,-0.7084426826067228,11.695999999996275
312427.4167,-10.56186914364112,2.1653697445833924,-2.893321764728187,-0.7154635179591311,11.696999999985565
312427.4177,-10.362065269690472,1.5052631870149948,-3.2062556736257197,-0.7689702093491768,11.697999999974854
312427.4187,-9.956577453116216,0.7520078987143867,-3.452189091107388,-0.8213387159502064,11.698999999964144
312427.4197,-9.31022756829186,-0.025588741371716076,-3.589348906032418,-0.8218798176493297,11.700000000011642
312427.4207,-8.39680810794478,-0.7597333037855969,-3.5814013402544598,-0.7234643908509208,11.701000000000931
312427.4217,-7.2048211549228105,-1.3906608209077054,-3.403411786546861,-0.48896079442822366,11.701999999990221
312427.4227,-5.742212110534267,-1.8728185127375352,-3.0468770507593375,-0.09679159911304364,11.702999999979511
312427.4237,-4.0395138511206445,-2.1795992335069974,-2.523229555638631,0.45500220077322157,11.7039999999688
312427.4247,-2.1509613068830067,-2.3061476272619776,-1.8653585238857429,1.1466578821225402,11.70499999995809
312427.4257,-0.15332839120169622,-2.2699518668707235,-1.126887477159224,1.9368248777384887,11.706000000005588
312427.4267,1.857539850222743,-2.1091525126298096,-0.37917159067631057,2.764990212577045,11.706999999994878
312427.4277,3.772298649304283,-1.8787259754848127,0.29378954519103334,3.556019972799888,11.707999999984168
312427.4287,5.47536397235736,-1.6449110710411374,0.8021114012701264,4.2264262004968325,11.708999999973457
312427.4297,6.8532704237516056,-1.4784224091230123,1.0578639722791712,4.691789713588373,11.709999999962747
312427.4307,7.803411849929415,-1.4471165706251634,0.9832742249453154,4.874644594173031,11.711000000010245
312427.4317,8.24239327880144,-1.6088340594812587,0.5185178978884003,4.712072172038283,11.711999999999534
312427.4327,8.113238928520268,-2.0051261474463584,-0.3716551021784733,4.162267448571064,11.712999999988824
312427.4337,7.390789002834084,-2.656492169577288,-1.6931259206120892,3.2094281161016127,11.713999999978114
312427.4347,6.084770058446926,-3.559607633225633,-3.419949643835191,1.8664676129460314,11.714999999967404
312427.4357,4.240225851676951,-4.686830781339611,-5.494534634771053,0.1752546879493269,11.715999999956694
312427.4367,1.9352288240618838,-5.988053786931301,-7.830517281725522,-1.7956865268993765,11.717000000004191
312427.4377,-0.7239652274867456,-7.394736175950862,-10.318142555330297,-3.9558422402623252,11.71799999999348
312427.4387,-3.6099281813998902,-8.82574473351131,-12.831727202747134,-6.19934216528768,11.71899999998277
312427.4397,-6.58265214365969,-10.194446936260572,-15.23858630843552,-8.412973974231164,11.71999999997206
312427.4407,-9.499000106325092,-11.416381258671949,-17.408664279409322,-10.484860288373852,11.72099999996135
312427.4417,-12.222219075783388,-12.416769699657102,-19.22404168534143,-12.313015035004069,11.722000000008848
312427.4427,-14.630721591237497,-13.137151337690856,-20.587496729770002,-13.813006195539362,11.722999999998137
312427.4437,-16.62541657154803,-13.540499438814027,-21.429383999801885,-14.924035940936102,11.723999999987427
312427.4447,-18.135011532331497,-13.614330536194046,-21.712245734579568,-15.61289890502474,11.724999999976717
312427.4457,-19.118901686325113,-13.37150781142546,-21.432777745879648,-15.875480480376215,11.725999999966007
312427.4467,-19.56748854545407,-12.84866417001287,-20.62101366085383,-15.735690121008513,11.726999999955297
312427.4477,-19.500009456424685,-12.102400886038645,-19.336844341217365,-15.24196716512984,11.728000000002794
312427.4487,-18.960187038039624,-11.20363312329524,-17.66423005629843,-14.461725187009863,11.728999999992084
312427.4497,-18.010201944616107,-10.230633009813895,-15.703668367651872,-13.474293253518196,11.729999999981374
312427.4507,-16.72363526098771,-9.261446752596806,-13.56363129091927,-12.363050127544605,11.730999999970663
312427.4517,-15.178104756950761,-8.366422260615863,-11.35176704923413,-11.207517199753948,11.731999999959953
312427.4527,-13.448325221314919,-7.601572056683769,-9.166667245067963,-10.076171150067099,11.73300000000745
312427.4537,-11.600257268564652,-7.003414060788224,-7.0909295966382855,-9.020658726630622,11.73399999999674
312427.4547,-9.686878528840833,-6.58578815809341,-5.186106951514131,-8.071951473247609,11.73499999998603
312427.4557,-7.745929488951204,-6.338953452649147,-3.4899391930572032,-7.23878205136446,11.73599999997532
312427.4567,-5.799771926427679,-6.231048583885394,-2.0160352300972058,-6.508475320193199,11.73699999996461
312427.4577,-3.857272496411166,-6.211767135676074,-0.7559301731028146,-5.85004900549692,11.738000000012107
312427.4587,-1.9174102246609002,-6.217884422358083,0.3167881879454904,-5.219233967192525,11.739000000001397
312427.4597,0.025874168797698122,-6.1800917662843675,1.2407868579370234,-4.564874761686218,11.739999999990687
312427.4607,1.9781989809452036,-6.030467267506189,2.0603769933053253,-3.836035863088284,11.740999999979977
312427.4617,3.9393099463106958,-5.709850297915261,2.8187112820717832,-2.9890707178683362,11.741999999969266
312427.4627,5.898369315219057,-5.174396441716596,3.5515200921905707,-1.9939163262137372,11.742999999958556
312427.4637,7.830563753629916,-4.400669321939677,4.282048287861457,-0.8389546116103294,11.744000000006054
312427.4647,9.695491839237086,-3.3887678410716386,5.017719727487589,0.4660743508808726,11.744999999995343
312427.4657,11.437605628933285,-2.1631779148734793,5.748869426960236,1.8894273143985556,11.745999999984633
312427.4667,12.988764147158667,-0.7712581997382809,6.4496631868122085,3.3790743699415,11.746999999973923
312427.4677,14.272731337078536,0.7205018514718213,7.081093331963605,4.866633959523733,11.747999999963213
312427.4687,15.211239600293332,2.232098248896597,7.5957202929273695,6.273160622311721,11.74900000001071
312427.4697,15.731063806897163,3.6769693063572886,7.943644978315915,7.5162324325187715,11.75
312427.4707,15.771427479792736,4.969631002911986,8.079064722937694,8.517651687894764,11.75099999998929
312427.4717,15.291005487616202,6.033264829611907,7.966699266990344,9.2110060106774,11.75199999997858
312427.4727,14.27380234994095,6.806538466521793,7.5873794115407565,9.548344217495263,11.75299999996787
312427.4737,12.733271450416536,7.2490155147712585,6.942169194904511,9.50530150635751,11.75399999995716
312427.4747,10.714190357598138,7.344648270263419,6.054535000977771,9.084153980461226,11.755000000004657
312427.4757,8.29200709876754,7.103033555107897,4.970267922311019,8.314479195119162,11.755999999993946
312427.4767,5.569602733071905,6.558327652926912,3.755089936103806,7.251328197362347,11.756999999983236
312427.4777,2.671654950457024,5.76594130186702,2.4901078569913206,5.971053216629422,11.757999999972526
312427.4787,-0.2629872565616354,4.797347576122768,1.2654984963545042,4.565160580800704,11.758999999961816
312427.4797,-3.090318216716386,3.733513782046057,0.1729921864629583,3.132748687510383,11.760000000009313
312427.4807,-5.670844328555573,2.6575960196339694,-0.7021485231931067,1.7722274930444475,11.760999999998603
312427.4817,-7.879103430596182,1.6475996588973543,-1.2888957013007865,0.5730857491776208,11.761999999987893
312427.4827,-9.612236896701699,0.7697047057289433,-1.5372203036801657,-0.3915316089807299,11.762999999977183
312427.4837,-10.79689575113224,0.07288270699904105,-1.4231899815463391,-1.0707505129029207,11.763999999966472
312427.4847,-11.393907461205924,-0.41470103800413854,-0.9518859104808886,-1.4398564493150328,11.764999999955762
312427.4857,-11.400327852208886,-0.6871862294337762,-0.15782443626485948,-1.501796307510168,11.76600000000326
312427.4867,-10.848734046903504,-0.7603127648483662,0.8971986588085173,-1.286172013989794,11.76699999999255
312427.4877,-9.803857528622743,-0.668625488070588,2.128682146447419,-0.8458424169519194,11.76799999998184
312427.4887,-8.356888382490071,-0.46090612218772825,3.436025172983464,-0.2514753900349896,11.768999999971129
312427.4897,-6.6179806879684735,-0.19432134025228348,4.7105871826538355,0.4154164798129617,11.769999999960419
312427.4907,-4.707636419208165,0.07210270710359327,5.844487414857664,1.0702843620004516,11.771000000007916
312427.4917,-2.7477276425473622,0.28400941228214344,6.73936033830048,1.6334503667940423,11.771999999997206
312427.4927,-0.8529272353088883,0.3975818788270908,7.3142885704589355,2.0373672729772543,11.772999999986496
312427.4937,0.8767432384589486,0.3841655901281832,7.512213678063666,2.232555997864298,11.773999999975786
312427.4947,2.3616665110139294,0.23318717275240333,7.3042699682213375,2.1916820792052545,11.774999999965075
312427.4957,3.546279960849291,-0.0469098840502168,6.691682776691561,1.9114195107671808,11.776000000012573
312427.4967,4.400432026200233,-0.42978730046152325,5.70510166890341,1.4119697165207077,11.777000000001863
312427.4977,4.918478014091511,-0.874255668213742,4.401478122525478,0.734333542815202,11.777999999991152
312427.4987,5.116363482297855,-1.328907174754543,2.8588234838484,-0.06434777019406704,11.778999999980442
312427.4997,5.027127408647736,-1.737842853907178,1.1693744799729828,-0.9168819827590672,11.779999999969732
312427.5007,4.6953928648494205,-2.04688839176289,-0.5681679733170003,-1.7529116399848605,11.780999999959022
312427.5017,4.171487185219175,-2.209642847243706,-2.2565885092835845,-2.505893156208335,11.78200000000652
312427.5027,3.5058402308385697,-2.1927217638550456,-3.8075575119496974,-3.1194676252717044,11.782999999995809
312427.5037,2.744248728671856,-1.9796383929350823,-5.147815568795192,-3.5525933314074765,11.783999999985099
312427.5047,1.9244740290145963,-1.572905936368978,-6.223611851675609,-3.782943969965958,11.784999999974389
312427.5057,1.0744732168875861,-0.9941259458893313,-7.003051971355236,-3.808259375636674,11.785999999963678
312427.5067,0.21236724939316495,-0.2820350372605564,-7.476227787632349,-3.6455485550675872,11.787000000011176
312427.5077,-0.6519545597621551,0.5113068989578448,-7.653227772086627,-3.3282665254897745,11.788000000000466
312427.5087,-1.51388530647665,1.325810049637296,-7.5603391197759615,-2.9017945444469815,11.788999999989755
312427.5097,-2.3702555061398214,2.0995957876616043,-7.234930643974203,-2.4177268512843226,11.789999999979045
312427.5107,-3.215148579867836,2.77554778604196,-6.719630873926525,-1.927588583272931,11.790999999968335
312427.5117,-4.035978652961845,3.3074951875750447,-6.0564763281216125,-1.476666849342274,11.791999999957625
312427.5127,-4.810411311403343,3.6653779458937294,-5.281694808948211,-1.0986242473530472,11.793000000005122
312427.5137,-5.504621688400336,3.8388385262786904,-4.421709027864003,-0.8114826141471532,11.793999999994412
312427.5147,-6.0732413255092865,3.838835391243446,-3.490805181530681,-0.6154226145214721,11.794999999983702
312427.5157,-6.461160002622457,3.69706751527106,-2.490723687769042,-0.49265611484478816,11.795999999972992
312427.5167,-6.607139977007036,3.4632166692165987,-1.4122143249502253,-0.4094120503082589,11.796999999962281
312427.5177,-6.448989253463615,3.200234002358189,-0.23837750662804538,-0.319854405781257,11.798000000009779
312427.5187,-5.929849549418217,2.978097759532707,1.0505899782241686,-0.1715453856067323,11.798999999999069
312427.5197,-5.005003732013365,2.8666297903033584,2.4717916717805597,0.08810130374514707,11.799999999988358
312427.5207,-3.648513149619651,2.928063559733178,4.033827264411261,0.5050456640486034,11.800999999977648
312427.5217,-1.8589684877991166,3.210094733757567,5.731486575035403,1.1122407356777784,11.801999999966938
312427.5227,0.33631700343107734,3.740112620417205,7.5416105788996,1.924336840430299,11.802999999956228
312427.5237,2.8792284844481575,4.521209265688428,9.420687676109813,2.934066590642458,11.804000000003725
312427.5247,5.681266887585259,5.530402021214123,11.304591291598078,4.110750185345251,11.804999999993015
312427.5257,8.626626247607136,6.719299978276255,13.110656710219454,5.401157629574288,11.805999999982305
312427.5267,11.57785194094729,8.01721428185311,14.742060849869205,6.732734621613831,11.806999999971595
312427.5277,14.38375692336469,9.336479034809658,16.094231327644206,8.018964304654624,11.807999999960884
312427.5287,16.889051298840638,10.579535728557335,17.06279411412183,9.166420851036639,11.809000000008382
312427.5297,18.94496241269123,11.647160587569967,17.552394011271094,10.0828942981021,11.809999999997672
312427.5307,20.42000579941391,12.447097815101436,17.485606990872263,10.685846833185845,11.810999999986961
312427.5317,21.210023805272737,12.902313980561049,16.811120340317597,10.910411032818212,11.811999999976251
312427.5327,21.246643843008524,12.958114653582747,15.510390994581144,10.716165941580531,11.812999999965541
312427.5337,20.50341999100191,12.587461785206616,13.602102401332477,10.092025648715818,11.814000000013039
312427.5347,18.99910081530836,11.793990330762576,11.143916532913241,9.05873841340102,11.815000000002328
312427.5357,16.797697321442538,10.612430268392522,8.231244578517101,7.668707358344928,11.815999999991618
312427.5367,14.005287379734465,9.106375985396404,4.993016829388551,6.003086407634244,11.816999999980908
312427.5377,10.763763357991197,7.363586772108968,1.584695706602,4.166354654235352,11.817999999970198
312427.5387,7.241983769201959,5.489227095433097,-1.8209786067552889,2.278805111523807,11.818999999959487
312427.5397,3.625004683193181,3.597642244772261,-5.044815729637048,0.46757774225107884,11.820000000006985
312427.5407,0.10222322226997309,1.803396308962463,-7.912736828985983,-1.1429966942331173,11.820999999996275
312427.5417,-3.14465020625652,0.2123630197443611,-10.267160262307593,-2.440909135604296,11.821999999985565
312427.5427,-5.952869410457784,-1.0863499766967217,-11.977309897846743,-3.3350186456593085,11.822999999974854
312427.5437,-8.18833260752912,-2.0269451333892086,-12.947633607016472,-3.7618966435160086,11.823999999964144
312427.5447,-9.752964772542065,-2.571395462754618,-13.123679669823865,-3.6903867903653307,11.825000000011642
312427.5457,-10.589306208901853,-2.7114660177479912,-12.494995838466819,-3.123505558415977,11.826000000000931
312427.5467,-10.682054995860362,-2.4681684392202787,-11.094869536993471,-2.0975492584883235,11.826999999990221
312427.5477,-10.056571030637256,-1.888757369542801,-8.996994756542405,-0.6785248914563262,11.827999999979511
312427.5487,-8.774602154590582,-1.0416010375438556,-6.309407134744601,1.043739101841133,11.8289999999688
312427.5497,-6.927715560564573,-0.00944745686650789,-3.1662501937642187,2.963242689190382,11.82999999995809
312427.5507,-4.6290906744436136,1.1182552205074983,0.2818971130489432,4.96651597618824,11.831000000005588
312427.5517,-2.0044382912984613,2.25325311934236,3.8783030979581685,6.941582744049522,11.831999999994878
312427.5527,0.8171534818796271,3.3158629770312475,7.470126319803662,8.786389292705666,11.832999999984168
312427.5537,3.7116843604927077,4.241165843410626,10.917424709253474,10.415970396509431,11.833999999973457
312427.5547,6.567362949802844,4.9834844493546555,14.100463039870496,11.767759858984766,11.834999999962747
312427.5557,9.289892013838807,5.518790468428415,16.92483437566179,12.80464238569861,11.836000000010245
312427.5567,11.805628793704658,5.844898695366814,19.324132950795217,13.515567402475297,11.836999999999534
312427.5577,14.062552266108158,5.979525811146623,21.260154078869316,13.913781957564762,11.837999999988824
312427.5587,16.029186663947918,5.956500088957471,22.720827866184518,14.032965868560485,11.838999999978114
312427.5597,17.69182313029663,5.820584684292791,23.716295515635643,13.921745959439173,11.839999999967404
312427.5607,19.050530657341834,5.621503988333339,24.27369089234006,13.63720910676255,11.840999999956694
312427.5617,20.11453974106313,5.4078278871911305,24.43128187300577,13.23811256723882,11.842000000004191
312427.5627,20.89760968434327,5.2213668352577915,24.232648276341955,12.778497817310592,11.84299999999348
312427.5637,21.413952085197522,5.092662328867249,23.72152536433452,12.302351092802008,11.84399999998277
312427.5647,21.675184323760718,5.038030176111933,22.937830515088166,11.839827168204286,11.84499999997206
312427.5657,21.688639445804426,5.058441251336386,21.915228489850268,11.405376103275932,11.84599999996135
312427.5667,21.457179202416178,5.140324031883071,20.68039550102378,10.997904032863692,11.847000000008848
312427.5677,20.980464750133613,5.258165667060387,19.25393492893853,10.602879948673253,11.847999999998137
312427.5687,20.257455376547604,5.378594796404409,17.652699953474343,10.196093092392422,11.848999999987427
312427.5697,19.289749343779555,5.465469523812432,15.893111299655649,9.748591016906941,11.849999999976717
312427.5707,18.08526929906138,5.485384150866863,13.994939214923562,9.232204164116645,11.850999999966007
312427.5717,16.661739762763485,5.412959720854617,11.984960152887844,8.625001424502964,11.851999999955297
312427.5727,15.049412130762779,5.235301210702143,9.899906622266323,7.916028711980654,11.853000000002794
312427.5737,13.292563037660269,4.955086751367522,7.788202575040176,7.108758293895181,11.853999999992084
312427.5747,11.449417922865107,4.591893463387336,5.71010904510007,6.22281279513888,11.854999999981374
312427.5757,9.590320494842231,4.181546548460568,3.736081935242386,5.293710696115037,11.855999999970663
312427.5767,7.794163211537283,3.7734850053229385,1.9433476083102996,4.37059129467291,11.856999999959953
312427.5777,6.143293769591261,3.4263479952930602,0.41091111389400026,3.5120951392634896,11.85800000000745
312427.5787,4.717296994045732,3.2021792048748274,-0.7865954335250904,2.780778725548155,11.85899999999674
312427.5797,3.586200814210527,3.1598028556664586,-1.5856610782276575,2.2366090592764443,11.85999999998603
312427.5807,2.803752855662743,3.348028144226119,-1.940575775780604,1.9301972745806346,11.86099999997532
312427.5817,2.40144918366044,3.79937784817824,-1.8293403956647019,1.8964787994633177,11.86199999996461
312427.5827,2.3839636529596357,4.525006855506388,-1.2581403773792978,2.1495249222794284,11.863000000012107
312427.5837,2.7265266352395754,5.511379463863224,-0.2638202531534065,2.6790783673624863,11.864000000001397
312427.5847,3.3746437437760997,6.719119057537459,1.086039489515655,3.449251861400061,11.864999999990687
312427.5857,4.246342613469623,8.084244600184132,2.6956318230203675,4.399628014235373,11.865999999979977
312427.5867,5.236907484331344,9.521784105872275,4.445971458070493,5.448770248327507,11.866999999969266
312427.5877,6.22582876499073,10.931527311245999,6.202194799583863,6.499919999416581,11.867999999958556
312427.5887,7.085480166267576,12.205470157251426,7.822603966502004,7.4484377645774495,11.869000000006054
312427.5897,7.690860246594612,13.236332806829347,9.168767724285628,8.190366144073863,11.869999999995343
312427.5907,7.929615729874596,13.926417614627116,10.115871441174294,8.631369642009835,11.870999999984633
312427.5917,7.711513034555418,14.196025351875504,10.5624587554595,8.695251220448698,11.871999999973923
312427.5927,6.976548020230634,13.990672338540111,10.4387353992642,8.331265490650043,11.872999999963213
312427.5937,5.7009809630668595,13.286446312064674,9.712709170799808,7.519541887808284,11.87400000001071
312427.5947,3.9007462301545877,12.092996463453087,8.393610804480256,6.274090061975239,11.875
312427.5957,1.631899837666417,10.453858704315941,6.532263465679045,4.6430695662347,11.87599999998929
312427.5967,-1.011986044431708,8.44405187310778,4.218323780232052,2.706247327860183,11.87699999997858
312427.5977,-3.9053167304005627,6.165122409929623,1.5745815407332098,0.5698168488436979,11.87799999996787
312427.5987,-6.898449265174209,3.738041462929323,-1.2512455984675048,-1.6410108416394897,11.87899999995716
312427.5997,-9.827532342865904,1.2945483022931348,-4.096574793460297,-3.7910348994542877,11.880000000004657
312427.6007,-12.52544349468489,-1.0323303690052015,-6.795076186390349,-5.744957108558832,11.880999999993946
312427.6017,-14.832969275189571,-3.1177866397768086,-9.187961555470423,-7.377309444300599,11.881999999983236
312427.6027,-16.609363234036103,-4.853968535196979,-11.134553587913384,-8.581587085551964,11.882999999972526
312427.6037,-17.74148077167808,-6.157229628815071,-12.521319398725907,-9.277832522023923,11.883999999961816
312427.6047,-18.150822871989103,-6.97331349079323,-13.26869633413591,-9.418059719454483,11.885000000009313
312427.6057,-17.7980091946836,-7.280087185956611,-13.335239517377392,-8.989104825290283,11.885999999998603
312427.6067,-16.684427071270218,-7.087662515541558,-12.718859852314214,-8.012722756624834,11.886999999987893
312427.6077,-14.851045276082992,-6.435979456494398,-11.45517576041836,-6.542995108485437,11.887999999977183
312427.6087,-12.374617514804806,-5.390151031689024,-9.613248049990801,-4.661350952150573,11.888999999966472
312427.6097,-9.361708804154002,-4.034061620837567,-7.289182336650943,-2.4697061935805524,11.889999999955762
312427.6107,-5.941139719489954,-2.4628537220078743,-4.598247916134564,-0.08238041596212761,11.89100000000326
312427.6117,-2.255545014474156,-0.7750185621643114,-1.666261566664386,2.3824612348743535,11.89199999999255
312427.6127,1.547223463845193,0.9351829628610877,1.3789885361759118,4.81107698275552,11.89299999998184
312427.6137,5.322155466359462,2.5843007144722754,4.415550627077213,7.101419926996386,11.893999999971129
312427.6147,8.934008025297494,4.104729493220997,7.333735183011013,9.168825664429791,11.894999999960419
312427.6157,12.26265497767168,5.447819848696156,10.040714270295366,10.949704345247435,11.896000000007916
312427.6167,15.206604060057105,6.58489121814874,12.463055928298873,12.403035318240962,11.896999999997206
312427.6177,17.68462786057356,7.506187846817316,14.547176746324661,13.509686257129461,11.897999999986496
312427.6187,19.63565218548454,8.218023231478346,16.257910548081565,14.269793981110388,11.898999999975786
312427.6197,21.017217323027545,8.73853440566849,17.57557748257625,14.69862982761103,11.899999999965075
312427.6207,21.802957092442018,9.092596129017522,18.492077442815926,14.821510283361498,11.901000000012573
312427.6217,21.979614874084586,9.306514636225295,19.006611123618022,14.6683904320544,11.902000000001863
312427.6227,21.544128290582993,9.403124729871973,19.121643952016594,14.268786646123619,11.902999999991152
312427.6237,20.50126461390088,9.397852962824363,18.839672274652827,13.647615738140447,11.903999999980442
312427.6247,18.862183581817533,9.296190309377014,18.161234197926685,12.822417275886925,11.904999999969732
312427.6257,16.644155250745275,9.092852787930214,17.08444222656043,11.80225692295585,11.905999999959022
312427.6267,13.871484534000619,8.772715263720698,15.606119144385813,10.588409336923029,11.90700000000652
312427.6277,10.577510813486903,8.313402249017322,13.724413360065846,9.17671025567683,11.907999999995809
312427.6287,6.8073809777309515,7.689230852479263,11.442577131532012,7.561270805476386,11.908999999985099
312427.6297,2.6211566886381057,6.876044722034366,8.773431390518958,5.739083395522353,11.909999999974389
312427.6307,-1.9032723885335907,5.856370199393089,5.743931684197496,3.7149351041599155,11.910999999963678
312427.6317,-6.668027194493984,4.624278338564004,2.3992032983923757,1.5059933909699066,11.912000000011176
312427.6327,-11.554352632884624,3.1893542125392744,-1.1945641835396112,-0.8545538833592848,11.913000000000466
312427.6337,-16.423431085578784,1.5792566681537268,-4.948882913959725,-3.3153379143560042,11.913999999989755
312427.6347,-21.11916985106548,-0.15951051689534843,-8.75376423545846,-5.806518364279131,11.914999999979045
312427.6357,-25.473044782862356,-1.9628149330882305,-12.480723925971937,-8.241564925507351,11.915999999968335
312427.6367,-29.310869853757534,-3.7520936400180354,-15.987950891143315,-10.52109880713361,11.916999999957625
312427.6377,-32.46115015956562,-5.439319252635673,-19.127369925560338,-12.538562981901533,11.918000000005122
312427.6387,-34.76448589358483,-6.933329596360182,-21.753122493042124,-14.187288914764922,11.918999999994412
312427.6397,-36.083347237638066,-8.146963098030412,-23.73082235437271,-15.368364948705104,11.919999999983702
312427.6407,-36.31145130646175,-9.00434189463353,-24.94683286425285,-15.998604638099183,11.920999999972992
312427.6417,-35.381953128537155,-9.447608530791147,-25.316772034952912,-16.01787378284278,11.921999999962281
312427.6427,-33.273717346546675,-9.442454594440932,-24.792485533309474,-15.395067804016364,11.923000000009779
312427.6437,-30.01506286471835,-8.981878400813248,-23.366834883885772,-14.132134322694691,11.923999999999069
312427.6447,-25.684559027365943,-8.087764931499747,-21.075819369223566,-12.265700253498895,11.924999999988358
312427.6457,-20.408682919837954,-6.810079930588408,-17.99777015857591,-9.866073141840438,11.925999999977648
312427.6467,-14.356402253693753,-5.223692254573314,-14.249603840570565,-7.033622910901696,11.926999999966938
312427.6477,-7.73100360590485,-3.423062678702208,-9.980376564953616,-3.8927899526926493,11.927999999956228
312427.6487,-0.7597177227134043,-1.5152414302065498,-5.362615435411209,-0.5841853927378836,11.929000000003725
312427.6497,6.318119693231475,0.3882193890934498,-0.582098230114034,2.74457205524992,11.929999999993015
312427.6507,13.263509603818367,2.179724936965732,4.173112688800592,5.948518499238489,11.930999999982305
312427.6517,19.84992283494499,3.7637147603989614,8.723514329038832,8.894693450188626,11.931999999971595
312427.6527,25.87424519950045,5.063636081575454,12.90803369544568,11.470388424289869,11.932999999960884
312427.6537,31.16576335013019,6.0271922081526625,16.592168115061604,13.5896100192422,11.934000000008382
312427.6547,35.59259599303631,6.629405525962942,19.67380113126047,15.197236810434182,11.934999999997672
312427.6557,39.065201975400925,6.873239444242601,22.08631588740698,16.270562973054204,11.935999999986961
312427.6567,41.53685355396048,6.787753350461142,23.798876608456315,16.818163396559385,11.936999999976251
312427.6577,43.00122590010741,6.423996967076065,24.814006401444104,16.876262074093212,11.937999999965541
312427.6587,43.48749811010071,5.849063032187116,25.16283156185725,16.5030140417257,11.939000000013039
312427.6597,43.053563996935715,5.138889358429791,24.898565848703225,15.771299193890338,11.940000000002328
312427.6607,41.778094060276004,4.370516342974551,24.0889535010249,14.760755889003681,11.940999999991618
312427.6617,39.75226035596169,3.614552704317235,22.8084634832836,13.549841010359216,11.941999999980908
312427.6627,37.07192762031526,2.9285760268176877,21.131022914936228,12.208685550591568,11.942999999970198
312427.6637,33.83102861948399,2.3520981017515803,19.123995840400656,10.793422738771497,11.943999999959487
312427.6647,30.116688362881895,1.903567417807694,16.843962950386093,9.342508355624043,11.945000000006985
312427.6657,26.006456131623136,1.579677784555504,14.334653809981072,7.8753456664427395,11.945999999996275
312427.6667,21.56776682151399,1.3570227552813854,11.627146049599748,6.393290679667349,11.946999999985565
312427.6677,16.859507488603484,1.195902592582945,8.742199531594526,4.882870428525652,11.947999999974854
312427.6687,11.935335538809712,1.045876716702546,5.694362332703029,3.3208215121140916,11.948999999964144
312427.6697,6.84820441254891,0.8524807888076539,2.4972925974461218,1.6803703590041625,11.950000000011642
312427.6707,1.6554197374352781,0.5644108379926257,-0.8303947321847406,-0.06195113062998786,11.951000000000931
312427.6717,-3.5765130494827746,0.14042863941610062,-4.259510949112743,-1.9197181164565145,11.951999999990221
312427.6727,-8.767973426002778,-0.4447322684031956,-7.745646613484576,-3.890997934870491,11.952999999979511
312427.6737,-13.823875644416468,-1.1960842744601552,-11.226143442257124,-5.954358427535198,11.9539999999688
312427.6747,-18.633358391539527,-2.0961933149545557,-14.619174236040005,-8.066990675784394,11.95499999995809
312427.6757,-23.071779043281985,-3.105337913157683,-17.82520752119455,-10.165227686277483,11.956000000005588
312427.6767,-27.005036165599062,-4.16404962229798,-20.730889024202863,-12.167501076583383,11.956999999994878
312427.6777,-30.29599512869219,-5.197829036515931,-23.215119517332255,-13.97953180090925,11.957999999984168
312427.6787,-32.81255977503886,-6.123614348434225,-25.15687295587292,-15.501322477281475,11.958999999973457
312427.6797,-34.43674101796938,-6.8574020636157025,-26.444103638191944,-16.63533034101057,11.959999999962747
312427.6807,-35.07394032077376,-7.322299307858168,-26.98295602483228,-17.295069860341567,11.961000000010245
312427.6817,-34.66160588508517,-7.456236055802886,-26.706429773992838,-17.41333559214202,11.961999999999534
312427.6827,-33.17643878308017,-7.218588777852426,-25.581672286483624,-16.9492550177368,11.962999999988824
312427.6837,-30.63942430329199,-6.595062475932462,-23.615170588961195,-15.89347647161082,11.963999999978114
312427.6847,-27.1181319910539,-5.600336886144001,-20.855284963773663,-14.270960071086385,11.964999999967404
312427.6857,-22.725951036576042,-4.278189657218269,-17.391792687566305,-12.141054446926471,11.965999999956694
312427.6867,-17.618185268941676,-2.6990447761599894,-13.352370490435785,-9.594788673901563,11.967000000004191
312427.6877,-11.985200177611313,-0.9551358487172015,-8.896214439220026,-6.749563624521367,11.96799999999348
312427.6887,-6.043068170107421,0.8463020863155168,-4.205250417590279,-3.741665715762894,11.96899999998277
312427.6897,-0.02237408301617102,2.591213200675802,0.5263967917452153,-0.7172259181379348,11.96999999997206
312427.6907,5.843999216922417,4.167546118010666,5.103852864099715,2.1776110831142788,11.97099999996135
312427.6917,11.333199981752115,5.473935796983315,9.342958218554966,4.806471997584752,11.972000000008848
312427.6927,16.24394112495724,6.4274683984367895,13.0808449823467,7.051665958649724,11.972999999998137
312427.6937,20.406402777439194,6.969842635343035,16.1848070616312,8.821477339768434,11.973999999987427
312427.6947,23.6898161139639,7.071392571037385,18.55879970531255,10.055249125126151,11.974999999976717
312427.6957,26.00724669782715,6.732637894701795,20.14711912858019,10.725872297359821,11.975999999966007
312427.6967,27.31734024105964,5.983258926217195,20.935064665070552,10.839537207352874,11.976999999955297
312427.6977,27.623053833022592,4.878632723052983,20.946651609203148,10.432854057778849,11.978000000002794
312427.6987,26.967646990660583,3.4942907592667227,20.2396973552594,9.567687425068515,11.978999999992084
312427.6997,25.42842611437563,1.9188463663819015,18.898822913280977,8.324251564917022,11.979999999981374
312427.7007,23.108903254125497,0.24607374368452606,17.02707625107715,6.793160121393827,11.980999999970663
312427.7017,20.130130918782513,-1.4331125287173136,14.736978547930045,5.0672022670027115,11.981999999959953
312427.7027,16.62200103141528,-3.0380337846254606,12.141811589730771,3.233620455348428,11.98300000000745
312427.7037,12.715247393518116,-4.504312124682456,9.347903985338778,1.3675934444071571,11.98399999999674
312427.7047,8.534773816976642,-5.788096138915283,6.448542943348983,-0.47251011571545243,11.98499999998603
312427.7057,4.194757617619969,-6.868108339713861,3.5199510439429185,-2.2477331482594054,11.98599999997532
312427.7067,-0.20423117161770732,-7.745393826234247,0.6195430911978455,-3.9388364318307802,11.98699999996461
312427.7077,-4.576079011586313,-8.440876912400102,-2.2135605875519535,-5.544394427898009,11.988000000012107
312427.7087,-8.848147462535408,-8.991045899537356,-4.956017334290131,-7.076987869327776,11.989000000001397
312427.7097,-12.95884960271538,-9.442265078981768,-7.596192125878693,-8.557988441471641,11.989999999990687
312427.7107,-16.854312315253694,-9.844340165047408,-10.129130855274141,-10.011566292163437,11.990999999979977
312427.7117,-20.484730962221725,-10.244026647345343,-12.551254816498002,-11.458620797062192,11.991999999969266
312427.7127,-23.801033237598453,-10.679164335011835,-14.855463471756197,-12.911332567836771,11.992999999958556
312427.7137,-26.752411038726553,-11.174046845478196,-17.027269630089517,-14.368960896717185,11.994000000006054
312427.7147,-29.285159909193062,-11.736499892288183,-19.042463289163052,-15.815373532710664,11.994999999995343
312427.7157,-31.343098055100047,-12.356960783613902,-20.866621223040944,-17.21860900214269,11.995999999984633
312427.7167,-32.86963902007821,-13.009641905680843,-22.456567609035968,-18.532554586429004,11.996999999973923
312427.7177,-33.811384728243304,-13.655644172148799,-23.76366839666973,-19.70059747481163,11.997999999963213
312427.7187,-34.12291057421367,-14.247684116292659,-24.73863152271632,-20.660895218998157,11.99900000001071
312427.7197,-33.77225207476851,-14.735930605709786,-25.33730796737258,-21.352735663694332,12.0
312427.7207,-32.74649048315059,-15.074330688032722,-25.526863112159965,-21.72333368726173,12.00099999998929
312427.7217,-31.05678484617476,-15.226750329258772,-25.29162679477149,-21.734354742974865,12.00199999997858
312427.7227,-28.742216149302045,-15.172270049761444,-24.63794030918612,-21.36746922549829,12.00299999996787
312427.7237,-25.871894505672365,-14.90905623283429,-23.59739875978085,-20.628325914239,12.00399999995716
312427.7247,-22.544925119398865,-14.45636814623596,-22.228030054694074,-19.54847904240207,12.005000000004657
312427.7257,-18.88801932075378,-13.854444687089863,-20.613143609904395,-18.18499765631227,12.005999999993946
312427.7267,-15.05075501392825,-13.162225348381835,-18.8578038794057,-16.617708890318138,12.006999999983236
312427.7277,-11.198715227686472,-12.453076122375593,-17.083114468047267,-14.944256758044478,12.007999999972526
312427.7287,-7.504942166651228,-11.80889165330504,-15.41871527586338,-13.273372503983412,12.008999999961816
312427.7297,-4.140316644770987,-11.313110112092566,-13.99407663457663,-11.716930413120219,12.010000000009313
312427.7307,-1.2635918424070685,-11.043290646074336,-12.929302876647839,-10.381486730734355,12.010999999998603
312427.7317,0.9881361692625613,-11.063953586073463,-12.326220483442754,-9.360056747818474,12.011999999987893
312427.7327,2.5077566203190247,-11.420365777384678,-12.26051649220491,-8.724870362987046,12.012999999977183
312427.7337,3.2245948130386077,-12.133869022765188,-12.775611758758386,-8.521760766116788,12.013999999966472
312427.7347,3.108460407905276,-13.199206791423515,-13.878808429464211,-8.766692436939111,12.014999999955762
312427.7357,2.1709681268762706,-14.584116899790436,-15.54005519965523,-9.444737666965334,12.01600000000326
312427.7367,0.4640361005018954,-16.23124403181852,-17.693446104991825,-10.51158428182113,12.01699999999255
312427.7377,-1.924293718153223,-18.06220656370534,-20.241330245706745,-11.897423033241733,12.01799999998184
312427.7387,-4.876342953110915,-19.983448577279418,-23.06068349475952,-13.51284386639027,12.018999999971129
312427.7397,-8.253030799619088,-21.893340040311628,-26.011200197266096,-15.25618711160506,12.019999999960419
312427.7407,-11.903154675691017,-23.68987226953646,-28.94442117015711,-17.021666235947038,12.021000000007916
312427.7417,-15.672944003639447,-25.27824324795836,-31.713136986063265,-18.70751550134499,12.021999999997206
312427.7427,-19.41511160557478,-26.577643210074047,-34.18029933583926,-20.22342462790797,12.022999999986496
312427.7437,-22.996696384509438,-27.526633493761853,-36.2267380642265,-21.496602220608953,12.023999999975786
312427.7447,-26.305124049849937,-28.08665278650429,-37.757110245818936,-22.4759522161428,12.024999999965075
312427.7457,-29.252096223233497,-28.24337061200827,-38.70368723648966,-23.13403873251657,12.026000000012573
312427.7467,-31.775134107057912,-28.005819871283798,-39.0277979782598,-23.466735500927932,12.027000000001863
312427.7477,-33.83682977592861,-27.40345754842499,-38.718970882180315,-23.490684694845214,12.027999999991152
312427.7487,-35.42207389725667,-26.481503874363412,-37.79203033354195,-23.23890388703345,12.028999999980442
312427.7497,-36.53371239418085,-25.29507546676863,-36.28258644839268,-22.755058003565736,12.029999999969732
312427.7507,-37.18721863715034,-23.90274094484434,-34.24149063006619,-22.08703802480262,12.030999999959022
312427.7517,-37.40503963465793,-22.36017714092125,-31.728902203170225,-21.28054763161488,12.03200000000652
312427.7527,-37.21127809875318,-20.714585462498242,-28.80861664091455,-20.373387343206844,12.032999999995809
312427.7537,-36.62730776453298,-19.000443130729924,-25.543244175556953,-19.39104434135332,12.033999999985099
312427.7547,-35.66879430792219,-17.237021450128427,-21.990706156592523,-18.344053454672263,12.034999999974389
312427.7557,-34.34442202360099,-15.427917214116784,-18.202348642412755,-17.227405120016677,12.035999999963678
312427.7567,-32.65642515495666,-13.562632428794407,-14.222776246482141,-16.022058654227553,12.037000000011176
312427.7577,-30.602813316083786,-11.620022851223323,-10.091304881887377,-14.698395744995697,12.038000000000466
312427.7587,-28.1809844573252,-9.5732389062724,-5.844741142470661,-13.22124219716736,12.038999999989755
312427.7597,-25.392256507834798,-7.395623157250624,-1.5210385582583017,-11.555916514388691,12.039999999979045
312427.7607,-22.246736919659398,-5.066922752749191,2.8367266609199064,-9.674649014800357,12.040999999968335
312427.7617,-18.76789942753904,-2.5791339453624014,7.176664178510736,-7.562666617775094,12.041999999957625
312427.7627,-14.996254706665393,0.05867671609952653,11.435246260044316,-5.223261350637892,12.043000000005122
312427.7637,-10.991584700585667,2.8171360057524977,15.535852051792164,-2.681253051988583,12.043999999994412
312427.7647,-6.833350971683837,5.645322641949963,19.389038007072386,0.015590195218197916,12.044999999983702
312427.7657,-2.6190714205926917,8.471737170890606,22.894710133785843,2.7974116273068765,12.045999999972992
312427.7667,1.5393313790805747,11.207481813139067,25.946167177862584,5.575418193462753,12.046999999962281
312427.7677,5.52099426270996,13.75142918183116,28.43577472018744,8.247109755964903,12.048000000009779
312427.7687,9.20297901669984,15.996958431118639,30.26183994608624,10.703158910899607,12.048999999999069
312427.7697,12.467971044191371,17.83967629882419,31.336105332634645,12.835344660377196,12.049999999988358
312427.7707,15.212139264827034,19.185434669825067,31.591182778491504,14.544829216874207,12.050999999977648
312427.7717,17.352446577640666,19.957916319440034,30.98721853860399,15.750021434566843,12.051999999966938
312427.7727,18.832730783875036,20.105090578089612,29.51711805798945,16.39329761026857,12.052999999956228
312427.7737,19.627973522479294,19.60393812047981,27.20976585703664,16.44594839427127,12.054000000003725
312427.7747,19.74633061552851,18.462999663426373,24.130839737310225,15.910880075548947,12.054999999993015
312427.7757,19.22869656462887,16.72250210458762,20.381025647595543,14.822804286040466,12.055999999982305
312427.7767,18.14579972164983,14.45203836588075,16.091670077410893,13.245882374107758,12.056999999971595
312427.7777,16.59305129575615,11.746002377139733,11.41813882081349,11.269026871046051,12.057999999960884
312427.7787,14.683578855268028,8.717186451441826,6.531361996920366,8.999279729174322,12.059000000008382
312427.7797,12.540043078248956,5.489114847991286,1.6082147626658219,6.553864268170091,12.059999999997672
312427.7807,10.285948676425908,2.187798509836264,-3.1785055122116757,4.051627828535802,12.060999999986961
312427.7817,8.037205515868752,-1.0663588650716256,-7.669702934428907,1.604643367795439,12.061999999976251
312427.7827,5.894669335528444,-4.165798310212355,-11.72843707348967,-0.689284264814991,12.062999999965541
312427.7837,3.9382954588182115,-7.021574109938673,-15.246540244301963,-2.7525555770651815,12.064000000013039
312427.7847,2.223382631914254,-9.567191637640065,-18.148896636027267,-4.531661491677001,12.065000000002328
312427.7857,0.7791826570472548,-11.760246809584649,-20.395093852562283,-5.998723350986213,12.065999999991618
312427.7867,-0.390075660230818,-13.581817407667806,-21.978395825390685,-7.15062466754872,12.066999999980908
312427.7877,-1.3019304786962367,-15.03377683740691,-22.922228118821856,-8.00590531722077,12.067999999970198
312427.7887,-1.990592892896295,-16.1344017734841,-23.274589225971862,-8.599804036515232,12.068999999959487
312427.7897,-2.5005812930482003,-16.912806782447337,-23.100983232563394,-8.97801042398981,12.070000000006985
312427.7907,-2.879766402663819,-17.40284550801517,-22.47659279868486,-9.189806015216089,12.070999999996275
312427.7917,-3.1725574829497996,-17.637158972419893,-21.478464994056907,-9.281323908043545,12.071999999985565
312427.7927,-3.4139360106924106,-17.642023138910865,-20.17846112844043,-9.28963314471284,12.072999999974854
312427.7937,-3.6249490010982637,-17.433553167278713,-18.63762764873562,-9.238260137339958,12.073999999964144
312427.7947,-3.810119365213579,-17.01567046127701,-16.902487817336933,-9.134604368997255,12.075000000011642
312427.7957,-3.957030540233708,-16.3800459900178,-15.003548814960306,-8.969504973607336,12.076000000000931
312427.7967,-4.038116865083268,-15.508018927127978,-12.956086371644357,-8.718988657845244,12.076999999990221
312427.7977,-4.014462092890973,-14.374275046963975,-10.763031972295407,-8.348000363020988,12.077999999979511
312427.7987,-3.8411986988736118,-12.95187624425945,-8.41956952470583,-7.815708954335537,12.0789999999688
312427.7997,-3.4739310638030956,-11.218080588133091,-5.918870713023988,-7.081811988329591,12.07999999995809
312427.8007,-2.8754931042516683,-9.160297012279724,-3.258278744117719,-6.1131531458245565,12.081000000005588
312427.8017,-2.022306845322738,-6.781490008119475,-0.44520080707190984,-4.889924442095625,12.081999999994878
312427.8027,-0.9096374856742049,-4.104390862185386,2.498004580595567,-3.4107572633886316,12.082999999984168
312427.8037,0.4448597524535831,-1.1739794656271592,5.5307603500238685,-1.6961088237796291,12.083999999973457
312427.8047,1.9997446163121977,1.9421356655290538,8.59307648151517,0.21048597985536616,12.084999999962747
312427.8057,3.6907852388448275,5.155607573016447,11.606671084397043,2.243518898226658,12.086000000010245
312427.8067,5.434343442018518,8.361455216085757,14.478412361306859,4.318957198757446,12.086999999999534
312427.8077,7.132918720499643,11.44410301588815,17.105845706714945,6.339790176635941,12.087999999988824
312427.8087,8.682400423809389,14.284877036272126,19.384348936125004,8.203212203284412,12.088999999978114
312427.8097,9.980400946371699,16.770322878805587,21.215279275678746,9.80880915284273,12.089999999967404
312427.8107,10.93492393812936,18.800612851525837,22.514356273872327,11.067002249562139,12.090999999956694
312427.8117,11.472572508408529,20.29728135480865,23.219477500798895,11.906961271804265,12.092000000004191
312427.8127,11.545528310383455,21.20957114737145,23.29719410110409,12.283232276769217,12.09299999999348
312427.8137,11.136631307135271,21.51878568406548,22.747178808049643,12.180430968435033,12.09399999998277
312427.8147,10.262053003556387,21.240213890792493,21.604190459757238,11.615521898291123,12.09499999997206
312427.8157,8.971267926718534,20.42240772089832,19.937260541014062,10.637420137995006,12.09599999996135
312427.8167,7.344269406100756,19.14382961415324,17.846078077637397,9.323895562020118,12.097000000008848
312427.8177,5.486223692701049,17.507124288572136,15.45480570706106,7.776007430144295,12.097999999998137
312427.8187,3.519987954844721,15.631484743695657,12.903797670855463,6.110525106659808,12.098999999987427
312427.8197,1.577111046208335,13.643755566390618,10.339887238308519,4.450977827353035,12.099999999976717
312427.8207,-0.21192687873327234,11.669031204949887,7.90604793615416,2.9181046300034796,12.100999999966007
312427.8217,-1.7274115364343268,9.821551961831858,5.731296826927654,1.6205326864703495,12.101999999955297
312427.8227,-2.8692108969564654,8.196671790014879,3.921692735228696,0.6464928609346456,12.103000000002794
312427.8237,-3.5639741704052064,6.864572304191322,2.5531890347314965,0.05728719998376351,12.103999999992084
312427.8247,-3.770124063355544,5.86623621220956,1.6669379990901334,-0.11693682843865114,12.104999999981374
312427.8257,-3.4802524790020084,5.211985929503501,1.2674269295703873,0.1212389874758967,12.105999999970663
312427.8267,-2.7207626812414665,4.882659098170144,1.3235755150927317,0.7376832187715864,12.106999999959953
312427.8277,-1.548845232200978,4.833254183433472,1.772662510036768,1.6705029458036222,12.10800000000745
312427.8287,-0.047107947241155156,4.998658684053026,2.5267021008590462,2.836061332156601,12.10899999999674
312427.8297,1.6836198353797207,5.300890373255698,3.4806791556904395,4.136649634411553,12.10999999998603
312427.8307,3.5326394191739987,5.657155204333645,4.5218972424471575,5.469098431534651,12.11099999997532
312427.8317,5.388137443043742,5.987965514965437,5.539607824193266,6.733541034312369,12.11199999996461
312427.8327,7.145575805791745,6.224573942792108,6.434080692556746,7.841544752809852,12.113000000012107
312427.8337,8.715007499967246,6.315060120883201,7.124344451471016,8.722901913462572,12.114000000001397
312427.8347,10.026731674630005,6.22855017365616,7.553964399206997,9.33051413516134,12.114999999990687
312427.8357,11.034875732423178,5.95723887782452,7.694419612065126,9.642996070900761,12.115999999979977
312427.8367,11.718700944099446,5.516102281545229,7.545872355358717,9.66484945696578,12.116999999969266
312427.8377,12.081650193017214,4.94041321732482,7.135368750052088,9.424292807872817,12.117999999958556
312427.8387,12.148370254304862,4.281381651384368,6.512746356788231,8.969053601359604,12.119000000006054
312427.8397,11.960125766472734,3.6004159844857093,5.744729565556413,8.360616922811504,12.119999999995343
312427.8407,11.569160175461064,2.9626236700924116,4.907848234586545,7.66755943880026,12.120999999984633
312427.8417,11.032637653017618,2.4302284790919217,4.080904850758995,6.95866768299196,12.121999999973923
312427.8427,10.406812597440247,2.0565723640502975,3.3377329708294114,6.296538896528782,12.122999999963213
312427.8437,9.742019781720051,1.881293893221296,2.740934370829771,5.732292063911658,12.12400000001071
