TimeStamp,ECR,FCR,ECU,FCU,time_index
312478.0267,-314.6305993605234,-303.5956995550616,-295.3661188075328,-316.48036488155606,62.306999999971595
312478.0277,-294.43434559667526,-277.2169633742028,-275.96773209347253,-282.5146728264261,62.307999999960884
312478.0287,-271.8017692257753,-248.8625201069096,-254.42357375198924,-247.23060352783696,62.30900000000838
312478.0297,-247.60535529056204,-219.45193338971737,-231.527820273028,-211.6738555477321,62.30999999999767
312478.0307,-222.69480117025458,-189.87330167304188,-208.0510840986638,-176.82493047508066,62.31099999998696
312478.0317,-197.8668388958535,-160.95380559040103,-184.71360506480133,-143.56913466087332,62.31199999997625
312478.0327,-173.83869885287527,-133.43386642080114,-162.1617808444429,-112.67147599887622,62.31299999996554
312478.0337,-151.22632596609753,-107.94593996096152,-140.9490014341183,-84.75735296138217,62.31400000001304
312478.0347,-130.52821211281835,-84.99874190041116,-121.52153597795743,-60.29966648181739,62.31500000000233
312478.0357,-112.11541384420661,-64.96743074672833,-104.20996239662188,-39.61268793196947,62.31599999999162
312478.0367,-96.22799718755155,-48.089975328022625,-89.22634343095021,-22.85270137152682,62.31699999998091
312478.0377,-82.97780889351475,-34.46962129090935,-76.66705155800024,-10.025120341589183,62.3179999999702
312478.0387,-72.35713554393176,-24.083062044955366,-66.52084658678979,-0.9974749542581441,62.31899999995949
312478.0397,-64.25249889933438,-16.793632382437313,-58.681531516297326,4.482609368164117,62.320000000006985
312478.0407,-58.46256771087156,-12.368595304959062,-52.96427229303747,6.765548230620459,62.320999999996275
312478.0417,-54.718960928181964,-10.49940053896231,-49.12448185311526,6.275323705502739,62.321999999985565
312478.0427,-52.708589282898444,-10.82366993781759,-46.87805182785104,3.483767937567276,62.322999999974854
312478.0437,-52.09614123779907,-12.947619332988296,-45.92167590572368,-1.1150106115862695,62.323999999964144
312478.0447,-52.545368968493314,-16.467662092060976,-45.952051195940506,-7.028740329767722,62.32500000001164
312478.0457,-53.73796755258215,-20.990054557007717,-46.68286620980587,-13.788466251615866,62.32600000000093
312478.0467,-55.38905641414485,-26.147629651571023,-47.85867830914638,-20.96643850686811,62.32699999999022
312478.0477,-57.258550700108266,-31.612908729562573,-49.26503592859251,-28.189721516278446,62.32799999997951
312478.0487,-59.15803095501212,-37.107165049841356,-50.734492945313924,-35.149142590945125,62.3289999999688
312478.0497,-60.95305798831498,-42.405313728936925,-52.14847214937102,-41.60351973148945,62.32999999995809
312478.0507,-62.56121037199235,-47.33679971915955,-53.4352380568887,-47.37942082918069,62.33100000000559
312478.0517,-63.946419283653384,-51.78292472958013,-54.56451279218049,-52.366987298700565,62.33199999999488
312478.0527,-65.11041682894135,-55.67127577495622,-55.53949124944508,-56.5125839745042,62.33299999998417
312478.0537,-66.08228159214629,-58.96807597957632,-56.38716622952933,-59.80919760017878,62.33399999997346
312478.0547,-66.90714725792314,-61.66936164126847,-57.1479494590694,-62.28558776890515,62.33499999996275
312478.0557,-67.63513226817898,-63.79189408322545,-57.8655658286385,-63.99519265952294,62.336000000010245
312478.0567,-68.31145383402293,-65.3646430221652,-58.57810852094323,-65.00571026881141,62.336999999999534
312478.0577,-68.96851877972534,-66.42153917735928,-59.31098160221077,-65.39012372818998,62.337999999988824
312478.0587,-69.62055360881817,-66.9960024810291,-60.072239893077146,-65.21973226706925,62.338999999978114
312478.0597,-70.26106864145375,-67.11752771150687,-60.85058397348549,-64.55950748897682,62.339999999967404
312478.0607,-70.8631707098317,-66.81037338979309,-61.61600427923365,-63.46584056707535,62.34099999995669
312478.0617,-71.3824709486441,-66.09417461411999,-62.32281637654083,-61.98650303743548,62.34200000000419
312478.0627,-71.76210223169039,-64.98610686929459,-62.91461212010688,-60.16243382416144,62.34299999999348
312478.0637,-71.93918454323615,-63.50408299886574,-63.33048743549423,-58.03080619861053,62.34399999998277
312478.0647,-71.85197025790728,-61.670381705228735,-63.511810597687074,-55.628733612803316,62.34499999997206
312478.0657,-71.44687241164176,-59.515089272740894,-63.40877232545723,-52.99694948590372,62.34599999996135
312478.0667,-70.68462772799612,-57.078786211664024,-62.98601093575767,-50.182842913550175,62.34700000000885
312478.0677,-69.54496535076132,-54.41402024406163,-62.226725365166345,-47.24234298295339,62.34799999999814
312478.0687,-68.02932841836954,-51.585263824594115,-61.13486294920065,-44.24030594250133,62.34899999998743
312478.0697,-66.1614102234198,-48.667241112536956,-59.7351793673343,-41.249254196182285,62.34999999997672
312478.0707,-63.985497920697945,-45.74170617616539,-58.071193823810006,-38.34652330303181,62.35099999996601
312478.0717,-61.56284164692121,-42.89294065611887,-56.20128091691346,-35.610071254948274,62.3519999999553
312478.0727,-58.966463639625935,-40.202395852636315,-54.19333034892233,-33.11337285304415,62.353000000002794
312478.0737,-56.27497178504206,-37.74301510667231,-52.11854831123704,-30.91994373908411,62.353999999992084
312478.0747,-53.56603117935037,-35.57382602432845,-50.04505651978742,-29.078101140380642,62.35499999998137
312478.0757,-50.910168112312526,-33.73538299095701,-48.031959027901614,-27.616565266985916,62.35599999997066
312478.0767,-48.36553255862942,-32.246569341506145,-46.124492413216906,-26.541436814163298,62.35699999995995
312478.0777,-45.97413379242863,-31.103142566908897,-44.350757799597396,-25.834959021284238,62.35800000000745
312478.0787,-43.759901283673834,-30.278237662891105,-42.72036564842372,-25.456299973874874,62.35899999999674
312478.0797,-41.728726656190965,-29.724850080892825,-41.22512345974918,-25.34438969505621,62.35999999998603
312478.0807,-39.87043243439093,-29.38012024909068,-39.84168279869176,-25.422637352471767,62.36099999997532
312478.0817,-38.16241099603067,-29.171056502888927,-38.53585695112669,-25.605157805133125,62.36199999996461
312478.0827,-36.57450304695666,-29.021181384002926,-37.26814465376664,-25.803973734587604,62.36300000001211
312478.0837,-35.07455654168035,-28.857483322707765,-35.999866444730465,-25.93654657377378,62.3640000000014
312478.0847,-33.63403711365343,-28.617012633653328,-34.69925128065835,-25.932938344793666,62.36499999999069
312478.0857,-32.23305664798838,-28.25248259265498,-33.34680925245801,-25.741923276624544,62.36599999997998
312478.0867,-30.864247936326333,-27.736321787370965,-31.939391936608164,-25.335451971667144,62.366999999969266
312478.0877,-29.53503410909478,-27.062765317822286,-30.492468869792805,-24.711014585000612,62.367999999958556
312478.0887,-28.268009495985513,-26.247756546880847,-29.040324461392235,-23.89163970116304,62.369000000006054
312478.0897,-27.099346740837248,-25.32664042731165,-27.63408710451194,-22.923484407788116,62.36999999999534
312478.0907,-26.07535337394719,-24.34984379140346,-26.33772086511111,-21.871197608249293,62.37099999998463
312478.0917,-25.247498559607322,-23.376936538854416,-25.222318298318584,-20.811451108865615,62.37199999997392
312478.0927,-24.66639737518054,-22.46963091358648,-24.35920999742696,-19.82521088555419,62.37299999996321
312478.0937,-24.37535876516758,-21.684387801511882,-23.812534759667546,-18.989446812788337,62.37400000001071
312478.0947,-24.4041620021284,-21.065347853338228,-23.631980833697483,-18.369040561777,62.375
312478.0957,-24.763718778401188,-20.638285878217307,-23.846406699561236,-18.009642011801724,62.37599999998929
312478.0967,-25.442204235795934,-20.40620055250513,-24.458979033576647,-17.93214479740381,62.37699999997858
312478.0977,-26.403107173828953,-20.347005699055597,-25.44433247290812,-18.129308703369496,62.37799999996787
312478.0987,-27.585470129394565,-20.41359763476239,-26.74807316067158,-18.56486375313503,62.37899999995716
312478.0997,-28.906381424722717,-20.536353271440817,-28.288733329484803,-19.175206050399034,62.38000000000466
312478.1007,-30.26556402377907,-20.627886490341087,-29.962058028633027,-19.873559837447697,62.380999999993946
312478.1017,-31.551701457862737,-20.589677302723025,-31.647289306524037,-20.55625598121635,62.381999999983236
312478.1027,-32.64996936304383,-20.320009706834238,-33.21492851096227,-21.110585259318533,62.382999999972526
312478.1037,-33.45011934917741,-19.722526993358034,-34.53532161035257,-21.42354335448809,62.383999999961816
312478.1047,-33.8544021856953,-18.714649719550124,-35.487338537738296,-21.39070650790272,62.38500000000931
312478.1057,-33.78462577835993,-17.23510781571351,-35.96641244121973,-20.924469377708363,62.3859999999986
312478.1067,-33.187719578561506,-15.249913824541151,-35.89126859822706,-19.960940102737485,62.38699999998789
312478.1077,-32.03931372294983,-12.7562420346982,-35.20879910253069,-18.464915436035458,62.38799999997718
312478.1087,-30.345025203801278,-9.783865276660334,-33.89671567701465,-16.43253853743155,62.38899999996647
312478.1097,-28.139356904883535,-6.394019763406323,-31.963821700337142,-13.891456179822264,62.38999999995576
312478.1107,-25.48233766086822,-2.675797980909522,-29.447965270061687,-10.89852014544626,62.39100000000326
312478.1117,-22.4542409755531,1.2596113182679385,-26.4119463072177,-7.535297718676871,62.39199999999255
312478.1127,-19.148896265474896,5.286328982342542,-22.937831857193785,-3.9018476164798552,62.39299999998184
312478.1137,-15.66623232515645,9.272190675951135,-19.120267470147688,-0.10936258019960658,62.39399999997113
312478.1147,-12.104755918638343,13.087426687180018,-15.059446260982558,3.727635017745115,62.39499999996042
312478.1157,-8.55466291400772,16.6128813683614,-10.854404391420687,7.4988401186431295,62.396000000007916
312478.1167,-5.092205868074096,19.747095363057728,-6.597252373947638,11.104799736775902,62.396999999997206
312478.1177,-1.77580780405492,22.411693921482556,-2.368832473707137,14.462092400246464,62.397999999986496
312478.1187,1.3557695500414761,24.55469462277684,1.7638737937205085,17.506670801776725,62.398999999975786
312478.1197,4.283105563075925,26.151550832120765,5.748460231991252,20.195181269464,62.399999999965075
312478.1207,7.003770177370261,27.203963303624306,9.54601062501884,22.5042823985665,62.40100000001257
312478.1217,9.528270410311354,27.736700471058462,13.128485991154154,24.428186614250414,62.40200000000186
312478.1227,11.874793027214661,27.792848061091206,16.475020145023176,25.97482249114768,62.40299999999115
312478.1237,14.063363215672345,27.42804351901333,19.56767452165636,27.16114512165962,62.40399999998044
312478.1247,16.110096482850743,26.70432771152042,22.387258616135487,28.008194031667465,62.40499999996973
312478.1257,18.022209149768027,25.684258601234436,24.909812108827307,28.53650621760552,62.40599999995902
312478.1267,19.79437263609807,24.42587865107847,27.10426957257493,28.76243543190494,62.40700000000652
312478.1277,21.406855920746967,22.979015664782395,28.93169597126976,28.695814012483392,62.40799999999581
312478.1287,22.825712911690424,21.38323752314656,30.346304229191542,28.33923240402488,62.4089999999851
312478.1297,24.00505550323656,19.66759143701256,31.298262860761426,27.68902086000749,62.40999999997439
312478.1307,24.891230334065717,17.85205753627233,31.73809275011261,26.737817515499508,62.41099999996368
312478.1317,25.428510028021698,15.950455540833415,31.622259225452662,25.478418025315214,62.412000000011176
312478.1327,25.56573898972155,13.974381589335152,30.919408817070774,23.9084441724597,62.413000000000466
312478.1337,25.263257186604235,11.937636709822765,29.616596378282747,22.035259103920993,62.413999999989755
312478.1347,24.49937512604528,9.860550890099677,27.724809344232487,19.8805071845945,62.414999999979045
312478.1357,23.27569531932217,7.7736133200733795,25.283127228285956,17.48367286127843,62.415999999968335
312478.1367,21.62066871109212,5.719889669829699,22.36095448234015,14.904134674276177,62.416999999957625
312478.1377,19.590930611350693,3.755834259096282,19.05792516530376,12.221330230806668,62.41800000000512
312478.1387,17.270165086837967,1.9502758629469505,15.50128393278083,9.532832152552352,62.41899999999441
312478.1397,14.765480137305136,0.3815533297591052,11.840780378526444,6.950345627517014,62.4199999999837
312478.1407,12.201515846874033,-0.8670190090283769,8.241350514265548,4.593854226222552,62.42099999997299
312478.1417,9.71273074660248,-1.7129869389415449,4.874077208470117,2.5843402616341336,62.42199999996228
312478.1427,7.434495947663017,-2.0813687715107503,1.906099256323127,1.0356687309007846,62.42300000000978
312478.1437,5.49375386458093,-1.9114158962673096,-0.5097414182058347,0.04633276075937477,62.42399999999907
312478.1447,4.000055582599059,-1.162850231114172,-2.2446755648563266,-0.3081983592636341,62.42499999998836
312478.1457,3.0377718482152467,0.1790681522749791,-3.202393444028075,0.01818451508015051,62.42599999997765
312478.1467,2.6601783239724224,2.1001998082897906,-3.3253324025438196,1.037825147156114,62.42699999996694
312478.1477,2.8859544647711584,4.556319972970234,-2.5983227105278774,2.7272842855568946,62.42799999995623
312478.1487,3.698421959966231,7.47426535106622,-1.0492681430128754,5.027960566005362,62.429000000003725
312478.1497,5.047603051793148,10.755434287060966,1.2532120444506276,7.849367800186891,62.429999999993015
312478.1507,6.854924278787432,14.281419755590191,4.204994699936639,11.074847997487188,62.430999999982305
312478.1517,9.020151358004815,17.9213505448713,7.674090053685087,14.569278297338354,62.431999999971595
312478.1527,11.429938712430818,21.540349139148475,11.510071955222047,18.188147389742927,62.432999999960884
312478.1537,13.967231728755864,25.008401666530784,15.55452021499787,21.787250598635026,62.43400000000838
312478.1547,16.520684969594686,28.20888726450812,19.651616289470034,25.232194900600266,62.43499999999767
312478.1557,18.993262330954174,31.04603646069305,23.658032710179853,28.406921523901723,62.43599999998696
312478.1567,21.30926521870055,33.450679025912805,27.45133252316049,31.220543094960284,62.43699999997625
312478.1577,23.419184563819854,35.38379295244743,30.936240058763573,33.61194626830516,62.43799999996554
312478.1587,25.30197765318821,36.837563621092734,34.04834467350398,35.551814905994924,62.43900000001304
312478.1597,26.964611842408754,37.83388724052925,36.755035719231046,37.04196388859645,62.44000000000233
312478.1607,28.438971407093018,38.420483971457955,39.05371768716621,38.1121173320443,62.44099999999162
312478.1617,29.77646707879533,38.66500184638853,40.96759590466702,38.814494344912006,62.44199999998091
312478.1627,31.040897329819526,38.64767220113243,42.539533068996455,39.21675889525405,62.4429999999702
312478.1637,32.30026665601283,38.45320383668487,43.824636193020105,39.39402976186984,62.44399999995949
312478.1647,33.618354567852435,38.16266461896074,44.8823280730598,39.420719046320094,62.445000000006985
312478.1657,35.046841876797906,37.846090038061895,45.768679287677244,39.36296690388691,62.445999999996275
312478.1667,36.618737552083715,37.556479525926264,46.52972508133644,39.272366664230994,62.446999999985565
312478.1677,38.3437166012436,37.32570089509204,47.19637236751572,39.18153599229085,62.447999999974854
312478.1687,40.205790378878596,37.1626348598285,47.78132796670415,39.10190005204682,62.448999999964144
312478.1697,42.16350402735049,37.053673567554846,48.27826767747852,39.02383051145732,62.45000000001164
312478.1707,44.15261344727438,36.96546053758091,48.66323787309631,38.919051429874756,62.45100000000093
312478.1717,46.09095965684839,36.84954625421261,48.898059388560355,38.74500226981063,62.45199999999022
312478.1727,47.885054058454394,36.64845438768022,48.935309065146384,38.45066084044939,62.45299999997951
312478.1737,49.43773331562108,36.302525342303355,48.72430610275657,37.9831928990941,62.4539999999688
312478.1747,50.65615162390153,35.75683865011783,48.217442293938404,37.29472327767471,62.45499999995809
312478.1757,51.45935918651068,34.96751953908218,47.3761752109227,36.34852227898584,62.45600000000559
312478.1767,51.784769667206795,33.906806954382446,46.176052653956205,35.12397025012206,62.45699999999488
312478.1777,51.59294015761047,32.56639289272116,44.610249456316176,33.619795341442845,62.45799999998417
312478.1787,50.870262150742725,30.958722710716383,42.69126211432489,31.8552609972047,62.45899999997346
312478.1797,49.629373328133916,29.116155093548738,40.45060562024906,29.86919238391092,62.45999999996275
312478.1807,47.90732637223436,27.08809780578913,37.93656987740062,27.71695342317615,62.461000000010245
312478.1817,45.76176990025559,24.9364396043187,35.21029835754977,25.465696128274242,62.461999999999534
312478.1827,43.265586270613035,22.729769526745667,32.34062821247732,23.18838059633841,62.462999999988824
312478.1837,40.50057277573313,20.536995261079092,29.398260773749346,20.957189669241956,62.463999999978114
312478.1847,37.550832834686716,18.421030531766196,26.449900902683662,18.83702440756521,62.464999999967404
312478.1857,34.496554720439065,16.433211654439834,23.553005722419673,16.879758899343297,62.46599999995669
312478.1867,31.40879657999118,14.60902661478293,20.751717476262392,15.11985625831839,62.46700000000419
312478.1877,28.34577455111773,12.965603872627767,18.074428151453194,13.571809538414575,62.46799999999348
312478.1887,25.350978544256648,11.501226152113665,15.533247941859678,12.229685420065696,62.46899999998277
312478.1897,22.453235715126308,10.19692490857325,13.125443503021373,11.068833416685688,62.46999999997206
312478.1907,19.668626036928575,9.01999491805266,10.836696448937353,10.049600479858093,62.47099999996135
312478.1917,17.003950042170395,7.92906720380605,8.645829960004765,9.122682571825253,62.47200000000885
312478.1927,14.461276954231945,6.880212572343307,6.530482907246776,8.235571986931118,62.47299999999814
312478.1937,12.042979992912546,5.833434235668129,4.473094469829062,7.339439467281643,62.47399999998743
312478.1947,9.756607438394468,4.758858105076323,2.466510641808072,6.395735821248175,62.47499999997672
312478.1957,7.618949486698508,3.641948838637129,0.5185436552224092,5.381814751609194,62.47599999996601
312478.1967,5.65874136311634,2.487167253119935,-1.3450945898102775,4.294965846091109,62.4769999999553
312478.1977,3.917584879282328,1.3196321821855506,-3.0799114162150114,3.154396147611843,62.478000000002794
312478.1987,2.4488596335582704,0.18454321983660704,-4.624030140416474,2.0008961935066094,62.478999999992084
312478.1997,1.3146124534752446,-0.8556586388127314,-5.901860698842906,0.8941528665890266,62.47999999998137
312478.2007,0.5806375021675348,-1.7261891341994489,-6.829804264473281,-0.09209516255554992,62.48099999997066
312478.2017,0.31016688444504376,-2.346464470532688,-7.3235333986268865,-0.8766460364654179,62.48199999995995
312478.2027,0.5567611607904688,-2.6377047852301287,-7.306210106989983,-1.378573694804689,62.48300000000745
312478.2037,1.357103025722953,-2.5308933029263576,-6.716882998977584,-1.5253985292149423,62.48399999999674
312478.2047,2.724443000587014,-1.9743354491895888,-5.518254738182205,-1.2609138810603413,62.48499999998603
312478.2057,4.643417438162569,-0.9400827648022507,-3.7030384723023726,-0.5519095523359866,62.48599999997532
312478.2067,7.0668578206897905,0.5714220121001388,-1.2982257974744034,0.6068763577802098,62.48699999996461
312478.2077,9.915044835731807,2.5289679934387084,1.6332395716311359,2.190090747709405,62.48800000001211
312478.2087,13.077646032561626,4.870753742978226,4.993664211521601,4.1416914693147735,62.4890000000014
312478.2097,16.41833199104175,7.507173483210425,8.65470939963734,6.37753621136926,62.48999999999069
312478.2107,19.781815957228343,10.326026059994351,12.46415968724109,8.790458455110544,62.49099999997998
312478.2117,23.002829759974315,13.199736201369245,16.254871110363748,11.257423097500672,62.491999999969266
312478.2127,25.91635700919283,15.993989705774904,19.855208471950363,13.648159489175056,62.492999999958556
312478.2137,28.368311932248776,18.57705099527328,23.10013563199828,15.834530166177226,62.494000000006054
312478.2147,30.22579208152434,20.82896576510569,25.842052062453813,17.699822887637588,62.49499999999534
312478.2157,31.38605208042071,22.649859606671676,27.960480292102467,19.147158576008973,62.49599999998463
312478.2167,31.783442620142512,23.966624767878933,29.369801746891042,20.106287997151043,62.49699999997392
312478.2177,31.393725696859864,24.737433931185464,30.02440460152651,20.538197899690402,62.49799999996321
312478.2187,30.23539854768948,24.95371806332065,29.920831349987733,20.43714875038775,62.49900000001071
312478.2197,28.36791461808503,24.63947614133788,29.096775114567777,19.830001918484566,62.5
312478.2207,25.88695656721836,23.848025930467184,27.627047961087655,18.77294167462589,62.50099999998929
312478.2217,22.917169118088,22.656534077858286,25.61690619344275,17.345933093928902,62.50199999997858
312478.2227,19.602975100458487,21.158858965818364,23.19334253043519,15.645458510259886,62.50299999996787
312478.2237,16.098256454968737,19.457382779075996,20.495122547111166,13.776223559298371,62.50399999995716
312478.2247,12.555768819929677,17.654586948304487,17.662437637741263,11.84260528531656,62.50500000000466
312478.2257,9.117165949321674,15.845130777739213,14.827060818947304,9.940622022446643,62.505999999993946
312478.2267,5.904438453970073,14.109126888545939,12.103824424608971,8.15113776618788,62.506999999983236
312478.2277,3.013427554246739,12.507176288569498,9.584097336292567,6.5348796881644775,62.507999999972526
312478.2287,0.509872783562043,11.077543787388896,7.33173800116732,5.1296599429460255,62.508999999961816
312478.2297,-1.571787622494315,9.835639344027255,5.381757843692197,3.9499707008034934,62.51000000000931
312478.2307,-3.2269005878840384,8.775744042681794,3.7416711561632425,2.9888863968703085,62.5109999999986
312478.2317,-4.476650116967122,7.874702971111807,2.3952569191231445,2.2219825849174986,62.51199999998789
312478.2327,-5.362175944294611,7.097122331800464,1.308239017758015,1.6127884170018574,62.51299999997718
312478.2337,-5.937420503418705,6.40147237778234,0.43522447081015603,1.1191482177776773,62.51399999996647
312478.2347,-6.261462029038214,5.746423970599901,-0.2728601638121035,0.6997903412508816,62.51499999995576
312478.2357,-6.3911129456186,5.096741231596054,-0.8616174942940846,0.32039552431010987,62.51600000000326
312478.2367,-6.374508271630039,4.428115605527086,-1.367042689706234,-0.04147776329310718,62.51699999999255
312478.2377,-6.246285050513816,3.7304506319929644,-1.811006617906955,-0.39312402799258384,62.51799999998184
312478.2387,-6.0247739423194835,3.009278760869479,-2.198781621641727,-0.7254103931526834,62.51899999997113
312478.2397,-5.711406548474986,2.2851938921407466,-2.5188117294238905,-1.0136055178966006,62.51999999996042
312478.2407,-5.292308769690276,1.5913952947974608,-2.7446914041337895,-1.2202148010580398,62.521000000007916
312478.2417,-4.741824809913388,0.9696386444398737,-2.8390864305214687,-1.2995072479556342,62.521999999997206
312478.2427,-4.027520661149791,0.46505789584502255,-2.7591301187158486,-1.203240736209757,62.522999999986496
312478.2437,-3.116069195109773,0.12044066896373233,-2.462677390870271,-0.8869646846965226,62.523999999975786
312478.2447,-1.979335475167422,-0.02940213911494965,-1.914713177793703,-0.31621509693203254,62.524999999965075
312478.2457,-0.5999683146443848,0.03745955957497829,-1.0931980323585604,0.5280769876242486,62.52600000001257
312478.2467,1.0241369514219558,0.32645501649802905,0.006306163604276854,1.6455670669991385,62.52700000000186
312478.2477,2.8770155829438075,0.8246020413837575,1.367760523816385,3.0143347691303686,62.52799999999115
312478.2487,4.923785611148376,1.5005541629580161,2.953872725518264,4.590857858996761,62.52899999998044
312478.2497,7.111900428599961,2.306650188958699,4.707552633990047,6.31218783954802,62.52999999996973
312478.2507,9.374404849385408,3.182801014629984,6.555502793097447,8.100168978369192,62.53099999995902
312478.2517,11.63488547264026,4.0618539076401765,8.413626122411456,9.867333409414062,62.53200000000652
312478.2527,13.81362548908334,4.87591477686763,10.193744317293403,11.523930834978083,62.53299999999581
312478.2537,15.834343140131935,5.563000391692879,11.810982081483207,12.985429719779027,62.5339999999851
312478.2547,17.630825091593273,6.073346367464441,13.191098194799364,14.179769987880972,62.53499999997439
312478.2557,19.152767935246768,6.374718009208849,14.27704186825302,15.053660999986842,62.53599999996368
312478.2567,20.370212832933063,6.456158180579785,15.034082083535031,15.577301966418128,62.537000000011176
312478.2577,21.27609297765111,6.329751103001735,15.452991767009717,15.747047080639947,62.538000000000466
312478.2587,21.886597832346823,6.030169542603194,15.550954431232464,15.585730630439151,62.538999999989755
312478.2597,22.23927385546347,5.611986996695742,15.370079994615756,15.140589556739206,62.539999999979045
312478.2607,22.389007324617094,5.144955439878634,14.973647295953265,14.478950896334458,62.540999999968335
312478.2617,22.40224856513851,4.707651552498517,14.440410689641908,13.682066976155001,62.541999999957625
312478.2627,22.3500171576624,4.380060256754384,13.857495503997614,12.837661192519954,62.54300000000512
312478.2637,22.30035653716574,4.235777393099219,13.312543770757717,12.03187416323104,62.54399999999441
312478.2647,22.31097078891947,4.334562089464387,12.885844208507642,11.341361521574271,62.5449999999837
312478.2657,22.422769644021894,4.71594857720859,12.643181985934067,10.826284461564692,62.54599999997299
312478.2667,22.654969863293314,5.394538346074803,12.630074281639496,10.524853072919079,62.54699999996228
312478.2677,23.002259489250577,6.357444628668583,12.867924010856527,10.449938089174886,62.54800000000978
312478.2687,23.434339210397212,7.564166100270868,13.352439455167634,10.588072597677703,62.54899999999907
312478.2697,23.897930654975752,8.94894370854254,14.054449984925848,10.900940018227294,62.54999999998836
312478.2707,24.321106342681556,10.425424793531086,14.923018823836598,11.329209772880226,62.55099999997765
312478.2717,24.619572914160127,11.89324393161294,15.890535149900929,11.798360029388421,62.55199999996694
312478.2727,24.704349687252186,13.245950678908462,16.879280920060747,12.225938986178676,62.55299999995623
312478.2737,24.490146936024,14.379587703836338,17.80883063881916,12.529580398424413,62.554000000003725
312478.2747,23.903675966207185,15.201160798492594,18.603567945008876,12.635018438996061,62.554999999993015
312478.2757,22.89112320275126,15.636250893043732,19.199598283747633,12.4833482932303,62.555999999982305
312478.2767,21.424093263789885,15.635096666859184,19.55040216822778,12.03685192356506,62.556999999971595
312478.2777,19.503464515830863,15.176617175397807,19.630701926779906,11.282846114378527,62.557999999960884
312478.2787,17.160791685456555,14.27003364975327,19.438193560681444,10.235198892285274,62.55900000000838
312478.2797,14.45711547537908,12.953970166221168,18.993006738845512,8.93338244690202,62.55999999999767
312478.2807,11.479277242841366,11.293143202923549,18.334979239716805,7.439164323387803,62.56099999998696
312478.2817,8.334064907331042,9.3729683019667,17.51904544781078,5.831261417357615,62.56199999997625
312478.2827,5.140712656265786,7.292597491500214,16.609221003773474,4.198471788707256,62.56299999996554
312478.2837,2.022423149201314,5.157036394354783,15.671799654524897,2.631939334948938,62.56400000001304
312478.2847,-0.9023368402886582,3.069062586234404,14.768450821236618,1.2172826993468928,62.56500000000233
312478.2857,-3.5280054420046905,1.1216704084999047,13.949910524643979,0.02732544018747706,62.56599999999162
312478.2867,-5.768858228153125,-0.6082975700177896,13.250893929131568,-0.8839006486926693,62.56699999998091
312478.2877,-7.564129156011054,-2.06479894143189,12.686731467880795,-1.4853363317379762,62.5679999999702
312478.2887,-8.880923338977578,-3.2151616940991277,12.25205494773602,-1.7708973325410884,62.56899999995949
312478.2897,-9.714738429016347,-4.0504250933048835,11.921652692064876,-1.7591492953074572,62.570000000006985
312478.2907,-10.087638638399062,-4.583517724940524,11.653394260031922,-1.4907319905331482,62.570999999996275
312478.2917,-10.044344466977059,-4.845546583241344,11.392917259805841,-1.023825414349962,62.571999999985565
312478.2927,-9.646690931491205,-4.880648008677457,11.079591874848,-0.4281356829450312,62.572999999974854
312478.2937,-8.967049451759078,-4.739980823326775,10.653150482102712,0.2219846681615784,62.573999999964144
312478.2947,-8.081390246425,-4.475511991256085,10.060302876444059,0.8545921925702812,62.57500000001164
312478.2957,-7.062675878956062,-4.134249299223571,9.260658771896454,1.4066873165704648,62.57600000000093
312478.2967,-5.975221932708311,-3.7535141583668774,8.231348341391044,1.8295937235236026,62.57699999999022
312478.2977,-4.870543866386594,-3.357727362268529,6.969861772738023,2.0926715797556406,62.57799999997951
312478.2987,-3.7850421773861846,-2.9570139488625817,5.494807291247355,2.185027215896177,62.5789999999688
312478.2997,-2.7396782055465856,-2.547737164212446,3.8444961674481526,2.115087312169992,62.57999999995809
312478.3007,-1.741580525846846,-2.114865711405803,2.0734821722838683,1.9081226533662872,62.58100000000559
312478.3017,-0.787318340597646,-1.6358836688487577,0.24739002303571003,1.6020135717802806,62.58199999999488
312478.3027,0.13259593670053982,-1.0857882125037972,-1.5634580364459854,1.241725782552859,62.58299999998417
312478.3037,1.0285401204633857,-0.4426030428964195,-3.2909837192587283,0.8730939895128574,62.58399999997346
312478.3047,1.906584743588946,0.3072230188960416,-4.876166300698076,0.536578721903136,62.58499999996275
312478.3057,2.7638990470689664,1.1641565080446494,-6.275039219146842,0.2616626868676974,62.586000000010245
312478.3067,3.585329801088723,2.112212587262052,-7.463255963587729,0.062486492617842726,62.586999999999534
312478.3077,4.341597190813901,3.117306990339619,-8.438748421653134,-0.06480341171205872,62.587999999988824
312478.3087,4.989379521598786,4.1275799772467305,-9.22218597478991,-0.14269662870071365,62.588999999978114
312478.3097,5.4733560621711765,5.075745526454585,-9.855158916041747,-0.21085790933113938,62.589999999967404
312478.3107,5.730065466077474,5.883311225244369,-10.396234123882667,-0.322686074451701,62.59099999995669
312478.3117,5.693237462473376,6.466319663165455,-10.915242263217309,-0.5402190459185364,62.59200000000419
312478.3127,5.300088360702616,6.742100127691355,-11.486333207232724,-0.9278829624744411,62.59299999999348
312478.3137,4.497953691398148,6.636406422703922,-12.180462246550208,-1.5457058305581723,62.59399999998277
312478.3147,3.250576433493179,6.090264263397514,-13.058031350455613,-2.4426770426853257,62.59499999997206
312478.3157,1.5433830095881698,5.065865574050117,-14.162400913824408,-3.6509271050981016,62.59599999996135
312478.3167,-0.6128389928851868,3.5509262284628456,-15.514908620438527,-5.181327498086946,62.59700000000885
312478.3177,-3.1803049682588815,1.5610609716099155,-17.11189071165993,-7.020975883324694,62.59799999999814
312478.3187,-6.094893254261105,-0.8600886556994113,-18.924010661811643,-9.132850002090665,62.59899999998743
312478.3197,-9.269136295365598,-3.643028168756356,-20.897979458425283,-11.457702408982277,62.59999999997672
312478.3207,-12.597352225945158,-6.696724151867497,-22.960521834483778,-13.918048439751956,62.60099999996601
312478.3217,-15.962514556321043,-9.914694501948725,-25.02422630570632,-16.423893206031416,62.6019999999553
312478.3227,-19.244281731906955,-13.18234250642711,-26.99473487607204,-18.879670400069,62.603000000002794
312478.3237,-22.327485706820475,-16.38488425915731,-28.778598605634535,-21.19174348867213,62.603999999992084
312478.3247,-25.11032190952503,-19.415162826297387,-30.29106062327197,-23.27576074073557,62.60499999998137
312478.3257,-27.511498316797486,-22.180654107496487,-31.463035018311245,-25.063165568252813,62.60599999997066
312478.3267,-29.475688042413587,-24.6090475269656,-32.24662779776089,-26.506242191693804,62.60699999995995
312478.3277,-30.97678018513718,-26.651922060291643,-32.6186872689943,-27.581216264924464,62.60800000000745
312478.3287,-32.018623728129725,-28.286221396033156,-32.58206212165298,-28.289117390067148,62.60899999999674
312478.3297,-32.63319019269749,-29.513443484216594,-32.16446758628151,-28.654327273387715,62.60999999998603
312478.3307,-32.87632058143295,-30.35667879989352,-31.415091721108958,-28.720962512417977,62.61099999997532
312478.3317,-32.821447980330525,-30.85583703833471,-30.39929253816806,-28.547452648675556,62.61199999996461
312478.3327,-32.55187735026096,-31.061573655871197,-29.19192097773099,-28.199851398999808,62.61300000001211
312478.3337,-32.152340196150945,-31.028548937923706,-27.869936648741337,-27.744544398196723,62.6140000000014
312478.3347,-31.70061075767063,-30.808711280683603,-26.505049830921667,-27.241077850342922,62.61499999999069
312478.3357,-31.25996533419795,-30.445287353675806,-25.15711789803148,-26.7358229350485,62.61599999997998
312478.3367,-30.873187635101196,-29.968085649773904,-23.868947501375906,-26.25711125600964,62.616999999969266
312478.3377,-30.55867798692317,-29.390584078309548,-22.66301296452446,-25.812334493414404,62.617999999958556
312478.3387,-30.30902653568717,-28.709090017044904,-21.540410078250847,-25.387310301828645,62.619000000006054
312478.3397,-30.092178989955993,-27.904050470203675,-20.482141497446246,-24.947994783468015,62.61999999999534
312478.3407,-29.855079919889985,-26.943371362950078,-19.452597022529925,-24.444391019097765,62.62099999998463
312478.3417,-29.529446235433415,-25.7874000214016,-18.404872013873113,-23.816285585509867,62.62199999997392
312478.3427,-29.039124188530383,-24.39505372965169,-17.28738165394928,-23.000261954353945,62.62299999996321
312478.3437,-28.30833585112398,-22.730456837883246,-16.051096037069243,-21.93730910200889,62.62400000001071
312478.3447,-27.270039289013496,-20.769391202838534,-14.656654317923502,-20.58027848266146,62.625
312478.3457,-25.873618057991692,-18.50487564378523,-13.080622163404255,-18.900449341634005,62.62599999998929
312478.3467,-24.091180674748177,-15.95126876251769,-11.320235214810133,-16.8925408223718,62.62699999997858
312478.3477,-21.92188282821278,-13.146428439606504,-9.396114793697928,-14.5776521464789,62.62799999996787
312478.3487,-19.393871406843957,-10.151647198476876,-7.352636921625021,-12.003805761451975,62.62899999995716
312478.3497,-16.563671942277118,-7.04929742198393,-5.255863082650613,-9.243994241420157,62.63000000000466
312478.3507,-13.513078489578138,-3.9383432448305364,-3.1891790370607294,-6.3918682161720985,62.630999999993946
312478.3517,-10.3438346866873,-0.9280851323672901,-1.2470133241652164,-3.555426958193673,62.631999999983236
312478.3527,-7.170595074019022,1.869321712832242,0.4728020237342356,-0.8492638923137414,62.632999999972526
312478.3537,-4.112808006941117,4.3469100172208,1.877328182204757,1.61394212687143,62.633999999961816
312478.3547,-1.2862517163546456,6.410778444859117,2.8867019301017356,3.731925703092946,62.63500000000931
312478.3557,1.205024612776095,7.987087918426085,3.4414342341589004,5.420559010049211,62.6359999999986
312478.3567,3.275653574183165,9.027536527419297,3.50813125612497,6.620107657001528,62.63699999998789
312478.3577,4.864210909957885,9.512811824093518,3.0830861650586434,7.299461689402934,62.63799999997718
312478.3587,5.936369706670247,9.453705743989996,2.19338520960046,7.457974088886537,62.63899999996647
312478.3597,6.485737399316942,8.88979380131973,0.895400952606537,7.124762033596719,62.63999999995576
312478.3607,6.532387511617252,7.8858057957413905,-0.7292124202328979,6.355561578266751,62.64100000000326
312478.3617,6.119314544439259,6.5260283772215555,-2.5796752170745183,5.2274517925010375,62.64199999999255
312478.3627,5.3072305801139255,4.907260057091492,-4.543844063012421,3.8319583053451516,62.64299999998184
312478.3637,4.168267907562117,3.1309694610714582,-6.506885692522898,2.267190331010013,62.64399999997113
312478.3647,2.779239708172543,1.2953755063805514,-8.360086078631031,0.6297461686524861,62.64499999996042
312478.3657,1.2151327905106182,-0.5118324896258544,-10.009008197155241,-0.9928673915343954,62.646000000007916
312478.3667,-0.45653874142625495,-2.21948560954485,-11.380275249796954,-2.528616810526912,62.646999999997206
312478.3677,-2.1799968174062947,-3.777117953448044,-12.426387064594088,-3.925564779945583,62.647999999986496
312478.3687,-3.9137148052745787,-5.157000452701499,-13.128163046811217,-5.154351560021205,62.648999999975786
312478.3697,-5.631011273877205,-6.353894706302311,-13.49462768988513,-6.2083633544613965,62.649999999965075
312478.3707,-7.318754130462833,-7.382615761842582,-13.56039303729997,-7.1016418031748145,62.65100000001257
312478.3717,-8.97440656075479,-8.273702250389697,-13.380823954403649,-7.864806053369052,62.65200000000186
312478.3727,-10.60181920409805,-9.067671035376177,-13.025474719793356,-8.539447291788028,62.65299999999115
312478.3737,-12.2063022554248,-9.808464493604777,-12.570440227756041,-9.171597107430031,62.65399999998044
312478.3747,-13.789583830797387,-10.536769364150587,-12.090357630589084,-9.804952308201438,62.65499999996973
312478.3757,-15.345269831124872,-11.283890315550785,-11.650816209916227,-10.474552484580569,62.65599999995902
312478.3767,-16.855364990404222,-12.06679901692273,-11.301883139932164,-11.201551971120724,62.65700000000652
312478.3777,-18.288300592603555,-12.884857035278893,-11.073336022532406,-11.989610832541539,62.65799999999581
312478.3787,-19.598753180136676,-13.718540601193688,-10.972021444508817,-12.823262067312474,62.6589999999851
312478.3797,-20.729346880682602,-14.530294054106303,-10.981549342795038,-13.668411190704866,62.65999999997439
312478.3807,-21.614129257394566,-15.267426388490538,-11.064306199565308,-14.47490971607343,62.66099999996368
312478.3817,-22.183517486256527,-15.86676255250609,-11.165548064948847,-15.18093698331006,62.662000000011176
312478.3827,-22.370247904088306,-16.260587742010014,-11.219138513890677,-15.718745593353866,62.663000000000466
312478.3837,-22.115744376788097,-16.3832956671349,-11.154345552630769,-16.021191839183558,62.663999999989755
312478.3847,-21.37626175674017,-16.17808284585519,-10.903019342365731,-16.02839685821997,62.664999999979045
312478.3857,-20.128166369589877,-15.603026845053902,-10.406447675875798,-15.693873847926577,62.665999999968335
312478.3867,-18.371785969215242,-14.635947130950345,-9.621230066907614,-14.989512196221886,62.666999999957625
312478.3877,-16.133390422323426,-13.277566551677246,-8.523618988235176,-13.9089248941864,62.66800000000512
312478.3887,-13.465039174318715,-11.552657495117264,-7.11193692571294,-12.468829346116479,62.66899999999441
312478.3897,-10.442235302683287,-9.509052973812995,-5.406874165154082,-10.708327196600367,62.6699999999837
312478.3907,-7.15953870116247,-7.214609935585893,-3.4496848591551084,-8.686156526760245,62.67099999997299
312478.3917,-3.7244916635270524,-4.752409662239704,-1.2985067587951276,-6.476189089368292,62.67199999996228
312478.3927,-0.2503789148396547,-2.21464890401274,0.9767874743587736,-4.161616442821629,62.67300000000978
312478.3937,3.151535932778137,0.30420097692871,3.300660076338564,-1.828395069326848,62.67399999999907
312478.3947,6.379596639632167,2.714322987651036,5.5982689934561245,0.441410487143069,62.67499999998836
312478.3957,9.34847088704484,4.936924404480167,7.8014710472643785,2.5757423372307,62.67599999997765
312478.3967,11.994380152660861,6.90946028618957,9.85386582032522,4.517536692925301,62.67699999996694
312478.3977,14.278361605306943,8.589240217804816,11.71438597529955,6.228115898198212,62.67799999995623
312478.3987,16.187263820863663,9.955110070058781,13.35909620132429,7.688680014510323,62.679000000003725
312478.3997,17.732391272262035,11.00709181182215,14.781052606563184,8.899785824147441,62.679999999993015
312478.4007,18.945935341503713,11.764065811239117,15.988277947301901,9.878904514755252,62.680999999982305
312478.4017,19.87554062264615,12.259771751990161,17.000105108098765,10.656342955152295,62.681999999971595
312478.4027,20.577534168254573,12.537567447289645,17.842311951728373,11.269978100742708,62.682999999960884
312478.4037,21.109474735080973,12.644503488984125,18.541597926153596,11.759373297344837,62.68400000000838
312478.4047,21.522746363044845,12.625334263666668,19.12002385816188,12.159907192785436,62.68499999999767
312478.4057,21.85591905616576,12.517086368903147,19.590043960493723,12.497544374216382,62.68599999998696
312478.4067,22.12952879406386,12.344743944998784,19.95070229073982,12.784811749281026,62.68699999997625
312478.4077,22.342796078373986,12.118493075625446,20.185450166597494,13.018422379099164,62.68799999996554
312478.4087,22.472619220935403,11.832805880892332,20.2618776711458,13.17882092441365,62.68900000001304
312478.4097,22.47496296066338,11.467455275951812,20.133457462979248,13.231728580307433,62.69000000000233
312478.4107,22.288535291166525,10.990352452135008,19.74319195076712,13.13155977088586,62.69099999999162
312478.4117,21.840427345640776,10.361910775442983,19.028856146037345,12.826388403145017,62.69199999998091
312478.4127,21.053203690060617,9.540480823570514,17.92935811707127,12.263977607483167,62.6929999999702
312478.4137,19.85279138066217,8.488287682019633,16.391614191892717,11.398270179157143,62.69399999995949
312478.4147,18.17643894311919,7.177244930055166,14.377269742256859,10.195679371140761,62.695000000006985
312478.4157,15.980008353418047,5.594025891615497,11.86859563918714,8.640527479108297,62.695999999996275
312478.4167,13.243924771578843,3.7438413949156875,8.87295594554527,6.739052568253544,62.696999999985565
312478.4177,9.977234059446387,1.6524979309462184,5.425368163824704,4.521535024127754,62.697999999974854
312478.4187,6.219394694657899,-0.6335214394813471,1.5888514213053664,2.042272833141716,62.698999999964144
312478.4197,2.0396413082486844,-3.049015408522281,-2.547536485074451,-0.6226595490533138,62.70000000001164
312478.4207,-2.466018797374664,-5.5139204703357025,-6.872855294318458,-3.379719316047382,62.70100000000093
312478.4217,-7.179898896263462,-7.938732181828162,-11.26030673069547,-6.123918896053197,62.70199999999022
312478.4227,-11.969351754649344,-10.230999717842037,-15.574625312352998,-8.746043833022334,62.70299999997951
312478.4237,-16.69451016409802,-12.302290084381411,-19.6802044590024,-11.140423453679654,62.7039999999688
312478.4247,-21.216365079909167,-14.07496571087077,-23.449258150265475,-13.212553865692763,62.70499999995809
312478.4257,-25.40448446159669,-15.488131128605998,-26.769317006951994,-14.885881358688204,62.70600000000559
312478.4267,-29.143730477211385,-16.50218019092927,-29.549423760325617,-16.107129729857345,62.70699999999488
312478.4277,-32.33944844091265,-17.101507578373926,-31.724520115460706,-16.849690290016895,62.70799999998417
312478.4287,-34.92076535912775,-17.29512427841249,-33.257692432461184,-17.114775281635364,62.70899999997346
312478.4297,-36.84183215830681,-17.11511906208403,-34.14015006847729,-16.93024648674127,62.70999999996275
312478.4307,-38.08105142981456,-16.61311674242435,-34.389027190739206,-16.347250356057465,62.711000000010245
312478.4317,-38.63853074553192,-15.855078531763871,-34.04330488870188,-15.434997618050268,62.711999999999534
312478.4327,-38.532170307405565,-14.914950805570529,-33.15832508035465,-14.274198836881983,62.712999999988824
312478.4337,-37.79291608109343,-13.867779991095933,-31.799493751400984,-12.94979082327637,62.713999999978114
312478.4347,-36.45977364232288,-12.78296196430421,-30.035836066921362,-11.543650109614822,62.714999999967404
312478.4357,-34.57517776496685,-11.718279085255467,-27.934063530137188,-10.12798292427772,62.71599999995669
312478.4367,-32.181248927042326,-10.71529817547386,-25.55374404442576,-8.760006972374473,62.71700000000419
312478.4377,-29.317347538479254,-9.796566085730237,-22.944036582347668,-7.478406204771799,62.71799999999348
312478.4387,-26.01917270610032,-8.96485941189217,-20.142276311556788,-6.301858894772247,62.71899999998277
312478.4397,-22.319462104383494,-8.204539120045956,-17.1744913247248,-5.229729611134191,62.71999999997206
312478.4407,-18.250153067394795,-7.484849666631744,-14.057719377083876,-4.24479780551212,62.72099999996135
312478.4417,-13.845683077743745,-6.764806568665557,-10.803793949986545,-3.317691275900373,62.72200000000885
312478.4427,-9.146959698675948,-5.99915575197613,-7.42410396088171,-2.412521987888505,62.72299999999814
312478.4437,-4.20543159917905,-5.1447784527060625,-3.9347176426414108,-1.4931016087226554,62.72399999998743
312478.4447,0.9133454020724971,-4.1668680579772825,-0.36121058933424344,-0.5290566481514272,62.72499999997672
312478.4457,6.127225563659066,-3.0442250435358575,3.2574434953525593,0.4988258399809412,62.72599999996601
312478.4467,11.33656049454525,-1.773101492931218,6.8664743104135315,1.5946123559710357,62.7269999999553
312478.4477,16.425196255579486,-0.3691694873136687,10.394817170602217,2.7450484803305044,62.728000000002794
312478.4487,21.263531542018907,1.132625841020269,13.756731846373807,3.919462213287527,62.728999999992084
312478.4497,25.713576423095326,2.6803557434353404,16.85553422867473,5.071797946657063,62.72999999998137
312478.4507,29.635736952715373,4.209350081571238,19.589211768594325,6.144613060410782,62.73099999997066
312478.4517,32.89685582035741,5.648002349488586,21.857485362421734,7.0746629363973845,62.73199999995995
312478.4527,35.37888293251809,6.924583588765869,23.569710112724437,7.799529175731317,62.73300000000745
312478.4537,36.98744874722487,7.974400184181297,24.652892768299736,8.264627223611171,62.73399999999674
312478.4547,37.65957854364311,8.74658356326232,25.059056957864126,8.429875638688166,62.73499999998603
312478.4557,37.369822546335804,9.209822173003396,24.77121442538708,8.275325837627756,62.73599999997532
312478.4567,36.13418308255757,9.356436230990006,23.807300088473003,7.805137385762991,62.73699999996461
312478.4577,34.011387176090075,9.204345514979924,22.22159258301891,7.0494320762559335,62.73800000001211
312478.4587,31.101266672345925,8.796675899673659,20.10335545369735,6.063756341061001,62.7390000000014
312478.4597,27.540249030522304,8.198972996017513,17.572677803549695,4.926107387367582,62.73999999999069
312478.4607,23.494208359356556,7.494219873686964,14.773744444814096,3.7317122721541396,62.74099999997998
312478.4617,19.149155397383627,6.776068516618752,11.866000872222788,2.5859684081991894,62.741999999969266
312478.4627,14.700435621506033,6.1408708408505905,9.013875484912035,1.5961374785370015,62.742999999958556
312478.4637,10.341238614854413,5.6792176464930995,6.375861617907363,0.8625144743379285,62.744000000006054
312478.4647,6.2512864972800815,5.4677506876322495,4.093831550433344,0.46985667534281506,62.74499999999534
312478.4657,2.5865582763213606,5.561998269641142,2.283446729680122,0.47984730134369336,62.74599999998463
312478.4667,-0.529178900046718,5.990899391944694,1.026443223225418,0.92528570283999,62.74699999997392
312478.4677,-3.01041373624321,6.75353316979239,0.3654163751814888,1.8065477246426374,62.74799999996321
312478.4687,-4.813098593953122,7.818372848018377,0.3015178289974436,3.0906599443761125,62.74900000001071
312478.4697,-5.934850455184878,9.125155647161648,0.7952307670028873,4.7130985167824795,62.75
312478.4707,-6.412227426735483,10.589222404208211,1.770128088113652,6.582179200947701,62.75099999998929
312478.4717,-6.315405289235254,12.107956841972323,3.1192672452532055,8.585672770079654,62.75199999997858
312478.4727,-5.740787756967406,13.56876444246726,4.713657523179522,10.59908125863211,62.75299999996787
312478.4737,-4.802241512000265,14.857893166440057,6.412070393769111,12.4948640419147,62.75399999995716
312478.4747,-3.62173891343048,15.869325530168243,8.071365914816147,14.151822224127399,62.75500000000466
312478.4757,-2.32021007702046,16.512970482436966,9.556486169737521,15.463842578547178,62.755999999993946
312478.4767,-1.009351286835295,16.72145392718846,10.749321502604253,16.34726867446727,62.756999999983236
312478.4777,0.21498504207857336,16.45494159059427,11.555780538984964,16.746300142216842,62.757999999972526
312478.4787,1.2773695300377925,15.703614073320134,11.910577821497059,16.636008198983006,62.758999999961816
312478.4797,2.1251069636842863,14.487633337720005,11.779475104773168,16.022778417714903,62.76000000000931
312478.4807,2.7282694648890518,12.854671428353889,11.15895217296537,14.94222878152591,62.7609999999986
312478.4817,3.077661731061005,10.875293736608878,10.073517277893764,13.454879614988458,62.76199999998789
312478.4827,3.1811197156788835,8.636679529810111,8.571073618683474,11.640050299738563,62.76299999997718
312478.4837,3.058688584678066,6.235303862579355,6.716917397281468,9.588607146108274,62.76399999996647
312478.4847,2.737310018742875,3.7692843556955635,4.587040489707627,7.395273692414221,62.76499999995576
312478.4857,2.2456657354745877,1.3311067894956685,2.2614385428489365,5.151231546753785,62.76600000000326
312478.4867,1.6097731144039318,-0.9986150779961607,-0.18191776956913605,2.9376860961599136,62.76699999999255
312478.4877,0.8498164759186688,-3.155810934422067,-2.6718985696492914,0.8209533324909278,62.76799999998184
312478.4887,-0.021463530046269483,-5.09569254750909,-5.1474284271249475,-1.1505457215394717,62.76899999997113
312478.4897,-0.9986924299436615,-6.793398238879781,-7.55890418040861,-2.9472004093668556,62.76999999996042
312478.4907,-2.0821697160592736,-8.24259616819196,-9.867833154630521,-4.557070401843349,62.771000000007916
312478.4917,-3.274828208453305,-9.452304000060911,-12.04491021310555,-5.982933864494212,62.771999999997206
312478.4927,-4.578273480398542,-10.442357137098401,-14.06692565766428,-7.23794720078606,62.772999999986496
312478.4937,-5.988446359103455,-11.23808524793567,-15.913023127026634,-8.34047266968265,62.773999999975786
312478.4947,-7.491506306486774,-11.864825071615037,-17.56089443358391,-9.308703530389664,62.774999999965075
312478.4957,-9.060522647307582,-12.342900239491277,-18.983500028254486,-10.155723461753064,62.77600000001257
312478.4967,-10.65348497488882,-12.683636525978164,-20.14683963884214,-10.885577857982131,62.77700000000186
312478.4977,-12.213011106337614,-12.886860441739787,-21.00917454217568,-11.49081588960263,62.77799999999115
312478.4987,-13.667954053742132,-12.940163125517463,-21.521933931269444,-11.95179655168596,62.77899999998044
312478.4997,-14.936906554198758,-12.820017266074103,-21.63234068671787,-12.237856552501464,62.77999999996973
312478.5007,-15.933393447514018,-12.494632229894533,-21.287587237238075,-12.310232962970865,62.78099999995902
312478.5017,-16.572349982118002,-11.92824236059374,-20.440201595031688,-12.126440046458395,62.78200000000652
312478.5027,-16.777327892395334,-11.086364906049996,-19.054087211898775,-11.645637372139467,62.78299999999581
312478.5037,-16.4877673036648,-9.941453326782565,-17.110614757079404,-10.83441172834389,62.7839999999851
312478.5047,-15.665632563902344,-8.478320115148126,-14.614100914402762,-9.672340196732595,62.78499999997439
312478.5057,-14.30073910291517,-6.698716039497017,-11.596034217714973,-8.156711735577424,62.78599999996368
312478.5067,-12.414194722588572,-4.62452879606092,-8.117499362736988,-6.305858922242848,62.787000000011176
312478.5077,-10.059534011768427,-2.2991959495138965,-4.269401245036877,-4.160682849469327,62.788000000000466
312478.5087,-7.3213246653191435,0.21289826807110673,-0.17028418613605273,-1.784129572312933,62.788999999989755
312478.5097,-4.311250654478622,2.829072583180046,4.038238084567675,0.7414214470471562,62.789999999979045
312478.5107,-1.1619080018495087,5.452869327204709,8.198201338564312,3.3186878659738053,62.790999999968335
312478.5117,1.9812377482657397,7.98008001216071,12.143710675304597,5.8415706498330975,62.791999999957625
312478.5127,4.969108040948388,10.305753204436838,15.710443192233503,8.202272143335483,62.79300000000512
312478.5137,7.658737512471112,12.331555528712286,18.745499699353555,10.298811831236923,62.79399999999441
312478.5147,9.922672893730956,13.97281109701881,21.116822064215533,12.042256603999062,62.7949999999837
312478.5157,11.65726785051096,15.16456514725375,22.721414698321905,13.363000125713041,62.79599999997299
312478.5167,12.789188856420173,15.866102721890247,23.491700748566426,14.215509224674424,62.79699999996228
312478.5177,13.279602541042413,16.06349496073022,23.399497585222093,14.58109636325273,62.79800000000978
312478.5187,13.125719514134172,15.769930503038848,22.457298048917586,14.468462690413155,62.79899999999907
312478.5197,12.359604375612504,15.02379971252883,20.71677486124588,13.911967956212536,62.79999999998836
312478.5207,11.044404443059433,13.884714441225139,18.264664000530427,12.967800960001934,62.80099999997765
312478.5217,9.268377760150422,12.427844697641959,15.21640631192746,11.708425798029502,62.80199999996694
312478.5227,7.137292629062146,10.737116199641028,11.708114168307185,10.215844968775286,62.80299999995623
312478.5237,4.765908107011124,8.897923101043034,7.887564059562684,8.574333784949323,62.804000000003725
312478.5247,2.269314688623336,6.990056951732277,3.9049841294745993,6.863349998848001,62.804999999993015
312478.5257,-0.24508970547575065,5.081531135577948,-0.09559818853325917,5.151302789084648,62.805999999982305
312478.5267,-2.684290655962657,3.223891305299922,-3.983758310529832,3.4907778115426633,62.806999999971595
312478.5277,-4.974460190245977,1.4494549795174123,-7.648274756610458,1.9156681245660545,62.807999999960884
312478.5287,-7.06351123554059,-0.22926840092593195,-11.000563937184584,0.44046863629085903,62.80900000000838
312478.5297,-8.921269958886493,-1.8179434452642556,-13.975804968115803,-0.9382269528172864,62.80999999999767
312478.5307,-10.537369626561556,-3.3367497224069833,-16.531838534783198,-2.2382114141808738,62.81099999998696
312478.5317,-11.917194106504418,-4.815091682012885,-18.646139375472515,-3.4865226765316857,62.81199999997625
312478.5327,-13.076389003470121,-6.285239216928606,-20.311343459905697,-4.713235867697773,62.81299999996554
312478.5337,-14.034595187107378,-7.775573633878774,-21.529940738692474,-5.944862528241293,62.81400000001304
312478.5347,-14.809129874433147,-9.304160928661993,-22.308809925922198,-7.198078092449814,62.81500000000233
312478.5357,-15.409337686094277,-10.873350188050205,-22.654267033288946,-8.47447413911476,62.81599999999162
312478.5367,-15.8322586070681,-12.466001414020527,-22.568225187161037,-9.756937229708145,62.81699999998091
312478.5377,-16.060119087759507,-14.043792659977507,-22.045927442256524,-11.008100085565166,62.8179999999702
312478.5387,-16.05996057994252,-15.547855683702625,-21.075530828908505,-12.171108239091415,62.81899999995949
312478.5397,-15.785495635193527,-16.90176159428232,-19.639607485709927,-13.172715659200371,62.820000000006985
312478.5407,-15.181047528712114,-18.016645217641656,-17.718409103216185,-13.928488541152747,62.820999999996275
312478.5417,-14.187208464571398,-18.79804178733138,-15.294536464279972,-14.349680439417627,62.821999999985565
312478.5427,-12.74766576809076,-19.15383317244952,-12.35848755980229,-14.351165558768747,62.822999999974854
312478.5437,-10.816513648733586,-19.002580629546753,-8.914442957818633,-13.859697922547264,62.823999999964144
312478.5447,-8.365303427872012,-18.281469091325885,-4.98559786681858,-12.82171444715151,62.82500000001164
312478.5457,-5.389094283358843,-16.95310979392752,-0.618372194523635,-11.209925111561695,62.82600000000093
312478.5467,-1.910849011255209,-15.010541975742065,4.1150786886444415,-9.028031605979065,62.82699999999022
312478.5477,2.0163327403758764,-12.479931834989056,9.116477303384103,-6.313078154449864,62.82799999997951
312478.5487,6.309452106302523,-9.42067311549478,14.26338741661435,-3.135149457037951,62.8289999999688
312478.5497,10.85839672169049,-5.922829058105149,19.413527138427252,0.4056290778629222,62.82999999995809
312478.5507,15.531111181934069,-2.1020976166492753,24.411200201069267,4.184587260541588,62.83100000000559
312478.5517,20.18076236326499,1.9072922738367761,29.095400080783186,8.06007157911037,62.83199999999488
312478.5527,24.65431927230562,5.961157471434979,33.30896646070253,11.882451611729808,62.83299999998417
312478.5537,28.80183127205671,9.914682038833215,36.9080544452167,15.503818058371541,62.83399999997346
312478.5547,32.485620522085824,13.631690472931139,39.7711260422923,18.78755608191718,62.83499999996275
312478.5557,35.5886108092888,16.99308950402416,41.806696323280974,21.616990332797602,62.836000000010245
312478.5567,38.02109489840116,19.90377754592803,42.959161857741215,23.902385010131717,62.836999999999534
312478.5577,39.725388182827906,22.297467764775504,43.21219804763437,25.585735119241793,62.837999999988824
312478.5587,40.67801346481476,24.139067817655395,42.589420221371626,26.64298899060531,62.838999999978114
312478.5597,40.88929087186211,25.42448749253757,41.15224137693675,27.083577572475303,62.839999999967404
312478.5607,40.400445891952565,26.177982785741275,38.995104932283404,26.9473705138123,62.84099999995669
312478.5617,39.27857408425358,26.447368676294023,36.23850060281896,26.299409376549963,62.84200000000419
312478.5627,37.60999140186714,26.2976217562649,33.020363862297664,25.222962702485013,62.84299999999348
312478.5637,35.49263599332429,25.80353022130518,29.486596162115116,23.81158793087014,62.84399999998277
312478.5647,33.02825788959647,25.04211999092473,25.781511279171056,22.160958451747344,62.84499999997206
312478.5657,30.315130762158443,24.08558577708395,22.03900647249397,20.36121405404462,62.84599999996135
312478.5667,27.44194576040477,22.99538556290548,18.37517636373266,18.490520471672674,62.84700000000885
312478.5677,24.483409188386688,21.818023829246602,14.882940533071444,16.610386443171663,62.84799999999814
312478.5687,21.497877634471113,20.58286666067206,11.629057009158009,14.763098705762292,62.84899999998743
312478.5697,18.527145176571416,19.302118939382442,8.653662378109376,12.971415505926073,62.84999999997672
312478.5707,15.598269498019638,17.972871424777097,5.972237511995998,11.240429370137042,62.85099999996601
312478.5717,12.72711002884756,16.580915621384015,3.57966924517498,9.561292723254239,62.8519999999553
312478.5727,9.923072996907704,15.105847581722411,1.455884722962897,7.916316768008373,62.853000000002794
312478.5737,7.194433400422372,13.526855402812956,-0.42760481993247035,6.284822683955771,62.853999999992084
312478.5747,4.553544947503654,11.82852131927907,-2.1009871079704117,4.649057306226457,62.85499999998137
312478.5757,2.021261940899391,10.005973900230169,-3.589994251029434,2.9994892196326326,62.85599999997066
312478.5767,-0.3700192414375445,8.068798058686669,-4.910972113871036,1.338874856636229,62.85699999995995
312478.5777,-2.57514520805016,6.043242840489981,-6.067695537240551,-0.3153799900368074,62.85800000000745
312478.5787,-4.537068986354185,3.972445822501311,-7.050260022457841,-1.9308536816080706,62.85899999999674
312478.5797,-6.189820511992202,1.9146003979696447,-7.836156644265672,-3.4618138445360085,62.85999999998603
312478.5807,-7.463383089877875,-0.06079253944418036,-8.39340284062284,-4.852848572955155,62.86099999997532
312478.5817,-8.29006130349987,-1.8782455075928361,-8.685380638728935,-6.044070246101321,62.86199999996461
312478.5827,-8.611750214990423,-3.46266731457048,-8.676847843061397,-6.977365525205709,62.86300000001211
312478.5837,-8.387395739492762,-4.746180278748885,-8.340455336245324,-7.603044587557752,62.8640000000014
312478.5847,-7.599884308288084,-5.674689536205138,-7.663038275220956,-7.886186864412635,62.86499999999069
312478.5857,-6.26162227984283,-6.213535496148287,-6.650957380439982,-7.811995352876615,62.86599999997998
312478.5867,-4.4181607564755385,-6.351640629221471,-5.333848245634926,-7.3895558846924185,62.866999999969266
312478.5877,-2.1493811791248865,-6.103700981648308,-3.7662839585061256,-6.653543611142683,62.867999999958556
312478.5887,0.43203331736285555,-5.510157543264998,-2.0270551645425834,-5.66361237173986,62.869000000006054
312478.5897,3.1848758014582095,-4.634894804945299,-0.2160027759048656,-4.501424808890664,62.86999999999534
312478.5907,5.9462298121446215,-3.560832742232753,1.5514206480477974,-3.2655104423807786,62.87099999998463
312478.5917,8.540374668107022,-2.3837825950778635,3.151457744520353,-2.064353027976829,62.87199999997392
312478.5927,10.789141430540921,-1.205106139931262,4.46062721808299,-1.0082864140843761,62.87299999996321
312478.5937,12.522939879974844,-0.12383602231766878,5.364848233463763,-0.200902267529537,62.87400000001071
312478.5947,13.591606576525976,0.7710304869612408,5.768309832493879,0.26926886920197113,62.875
312478.5957,13.874229369819572,1.4073656857307395,5.601294136989952,0.33605565111045427,62.87599999998929
312478.5967,13.287184093737494,1.7352559774106655,4.826244278978507,-0.038739481959310436,62.87699999997858
312478.5977,11.789767032977577,1.7303796115340289,3.4415175277157406,-0.8619237901143243,62.87799999996787
312478.5987,9.387008170665428,1.395126751835363,1.4824668836469161,-2.1080132380119303,62.87899999995716
312478.5997,6.12948634032236,0.7573849222837475,-0.9802687306982526,-3.720936969760231,62.88000000000466
312478.6007,2.1102161972770066,-0.13286636568005294,-3.845137121001107,-5.618201032369151,62.880999999993946
312478.6017,-2.5410846295376746,-1.2088019176401719,-6.986343328253938,-7.697142791939134,62.881999999983236
312478.6027,-7.665833564007633,-2.3933168363641575,-10.262250988511397,-9.842720152055259,62.882999999972526
312478.6037,-13.085856060321483,-3.606270895890584,-13.524798966483091,-11.93614510871578,62.883999999961816
312478.6047,-18.613331897035703,-4.771712925263943,-16.629136412230924,-13.863602003934593,62.88500000000931
312478.6057,-24.06063310812285,-5.824398033961074,-19.44267276707474,-15.524293381211999,62.8859999999986
312478.6067,-29.249323439217473,-6.71498873119591,-21.852807412708575,-16.837129979113335,62.88699999998789
312478.6077,-34.01770576322353,-7.413468322880566,-23.772739563312992,-17.745518648156363,62.88799999997718
312478.6087,-38.22647261296017,-7.910477723965531,-25.144949101603363,-18.219889253508676,62.88899999996647
312478.6097,-41.762218240729474,-8.216496864838392,-25.942164658007602,-18.257820568703348,62.88999999995576
312478.6107,-44.538787680445424,-8.359008403816123,-26.165874303384587,-17.881854432845273,62.89100000000326
312478.6117,-46.49664745405632,-8.37798307671535,-25.84266356718585,-17.135304799278003,62.89199999999255
312478.6127,-47.60064326789831,-8.32019280537445,-25.01886297904971,-16.0765527794052,62.89299999998184
312478.6137,-47.83664489142908,-8.232973185684582,-23.754134058635593,-14.772452715776042,62.89399999997113
312478.6147,-47.207654860394214,-8.15810978278125,-22.114704790381207,-13.291545047441986,62.89499999996042
312478.6157,-45.72996920708754,-8.126507558090404,-20.16697564101489,-11.697772825613308,62.896000000007916
312478.6167,-43.429925234648216,-8.154221211023552,-17.972154721343827,-10.045330595997813,62.896999999997206
312478.6177,-40.34166012336916,-8.240284250764677,-15.582452481658601,-8.375144152805708,62.897999999986496
312478.6187,-36.50614742691632,-8.366589989736251,-13.039185520834357,-6.713300607467633,62.898999999975786
312478.6197,-31.971593374031208,-8.499866546308601,-10.372923983402538,-5.071538270875364,62.899999999965075
312478.6207,-26.795081240258945,-8.595571167517322,-7.605589265136172,-3.449685977445388,62.90100000001257
312478.6217,-21.045170613624677,-8.603328140667566,-4.754191224879179,-1.839733578612487,62.90200000000186
312478.6227,-14.805008612880387,-8.47336917624399,-1.8357086806712986,-0.2310401027500577,62.90299999999115
312478.6237,-8.175408298516162,-8.163321905066237,1.1275176217021892,1.3839389953295944,62.90399999998044
312478.6247,-1.277307101936558,-7.644642494446917,4.10258039211267,3.004086421091297,62.90499999996973
312478.6257,5.746959419067029,-6.908007648821639,7.041688371596469,4.614893591020435,62.90599999995902
312478.6267,12.7340468438524,-5.967068038190354,9.879360602061793,6.18516568544036,62.90700000000652
312478.6277,19.501989794637655,-4.8601115563085315,12.53161695216342,7.665622465238677,62.90799999999581
312478.6287,25.854738248413486,-3.649377018577176,14.897457134765865,8.989670323855792,62.9089999999851
312478.6297,31.588780743193837,-2.4179787621562214,16.862694144167993,10.076404706069336,62.90999999997439
312478.6307,36.50157676446718,-1.2646291845060926,18.30596957075769,10.835676151965764,62.91099999996368
312478.6317,40.401320739745486,-0.2965579276440471,19.106550736175432,11.174839844836407,62.912000000011176
312478.6327,43.117396531105186,0.37879705398995966,19.153315217582257,11.006628552597979,62.913000000000466
312478.6337,44.510770819234416,0.6626268148094548,18.354186198100262,10.257459988542255,62.913999999989755
312478.6347,44.48352813474813,0.47335689003145975,16.645206365784052,8.875424725428081,62.914999999979045
312478.6357,42.98677524613491,-0.24573002433053573,13.998436661024437,6.837206584927973,62.915999999968335
312478.6367,40.02623721584626,-1.520526852206584,10.42793986072125,4.153263808260522,62.916999999957625
312478.6377,35.66502412532536,-3.3423231856816127,5.9932514743400755,0.8707394267232899,62.91800000000512
312478.6387,30.02325276739006,-5.666559173991789,0.7999388834852617,-2.926239887055543,62.91899999999441
312478.6397,23.27444339190404,-8.41423796829803,-5.002914019318196,-7.118993423934763,62.9199999999837
312478.6407,15.638856839615649,-11.475893498213546,-11.228206874910457,-11.55932567808844,62.92099999997299
312478.6417,7.374170182603321,-14.717792682909062,-17.658972046410945,-16.07683069719999,62.92199999996228
312478.6427,-1.235911420984174,-17.989864859284374,-24.058620858591397,-20.48792235502587,62.92300000000978
312478.6437,-9.894360111497292,-21.134713143561036,-30.1825668527938,-24.605905660384213,62.92399999999907
312478.6447,-18.30401604090298,-23.996984744726575,-35.79040144710647,-28.2513206400464,62.92499999998836
312478.6457,-26.180416322448156,-26.432366122805593,-40.65776487320473,-31.26177603054061,62.92599999997765
312478.6467,-33.26347022954769,-28.315524090648267,-44.58709666861858,-33.500545493418,62.92699999996694
312478.6477,-39.327307600099175,-29.546428907412807,-47.41656028086535,-34.86331820310606,62.92799999995623
312478.6487,-44.187797882284165,-30.054657892127434,-49.026604075166226,-35.28266634047192,62.929000000003725
312478.6497,-47.707442376729794,-29.80147152377284,-49.343829633231024,-34.72999740813051,62.929999999993015
312478.6507,-49.797562193855526,-28.77965913937178,-48.34206756527334,-33.214979455821336,62.930999999982305
312478.6517,-50.417918528784895,-27.011348192582314,-46.040789466123684,-30.782641266072634,62.931999999971595
312478.6527,-49.57409043566051,-24.54414082110753,-42.5011910274785,-27.508537267384856,62.932999999960884
312478.6537,-47.31308173572616,-21.446068485068405,-37.820447159658116,-23.492511283951227,62.93400000000838
312478.6547,-43.7177209733196,-17.799928545118686,-32.12475110353198,-18.851681603280287,62.93499999999767
312478.6557,-38.900450071315966,-13.697580317500526,-25.56179739460461,-13.713295355062781,62.93599999998696
312478.6567,-32.99706835692109,-9.234732906761964,-18.29335102412926,-8.208062250618923,62.93699999997625
312478.6577,-26.1609148405188,-4.506659421723282,-10.488466557105113,-2.464481996947614,62.93799999996554
312478.6587,-18.557844317168257,0.39486635393953606,-2.317791594076556,3.395462553522797,62.93900000001304
312478.6597,-10.36219743743761,5.383278590955951,6.050776081023512,9.259047539977363,62.94000000000233
312478.6607,-1.7537992756653258,10.377612359538091,14.45499066748162,15.023971969519568,62.94099999999162
312478.6617,7.084136335825204,15.30178026599022,22.739812725041944,20.598108152154555,62.94199999998091
312478.6627,15.966451039105335,20.083064646797183,30.757866996477993,25.898156426059792,62.9429999999702
312478.6637,24.707180727062052,24.65024790321558,38.369175146024645,30.847633812245974,62.94399999995949
312478.6647,33.12077666360457,28.931843039936386,45.440604700244165,35.37468596321742,62.945000000006985
312478.6657,41.02378429064442,32.85487062240877,51.84548802099911,39.41021360242128,62.945999999996275
312478.6667,48.237289721440916,36.34455886618338,57.46381970595836,42.88674889813974,62.946999999985565
312478.6677,54.59033279164233,39.32522770018421,62.183342908980414,45.738410165569526,62.947999999974854
312478.6687,59.92434073325402,41.72246757587762,65.90169585486807,47.902116584001476,62.948999999964144
312478.6697,64.09847396121953,43.466555388139064,68.52962494270147,49.32007408048885,62.95000000001164
312478.6707,66.99561323466057,44.49688111156265,69.99509882376333,49.94336759532995,62.95100000000093
312478.6717,68.52857407016398,44.76700793863844,70.2479981972842,49.73633277403924,62.95199999999022
312478.6727,68.64602672140485,44.24987260430929,69.26492720697773,48.68124967542107,62.95299999997951
312478.6737,67.33754198873318,42.9425647147792,67.05360964727564,46.782817230404326,62.9539999999688
312478.6747,64.63718351695697,40.870113117146914,63.656307450931926,44.07184019177948,62.95499999995809
312478.6757,60.625129235989746,38.08775685881373,59.15173505394332,40.607594710352004,62.95600000000559
312478.6767,55.42692512025474,34.68128523584355,53.655039733062836,36.478432717911865,62.95699999999488
312478.6777,49.21014433624178,30.765187073538822,47.31556705142832,31.80033106985419,62.95799999998417
312478.6787,42.17842965336143,26.47853985258333,40.31231865559726,26.71327550885204,62.95899999997346
312478.6797,34.563118255277764,21.978776882770322,32.84721901552467,21.37557436513337,62.95999999996275
312478.6807,26.61286508976538,17.433675570440286,25.13651784495877,15.956402425712046,62.961000000010245
312478.6817,18.581872648494198,13.012091828689115,17.400844845126713,10.627060986015726,62.961999999999534
312478.6827,10.717482376902316,8.874106485231833,9.85458354953335,5.551586681818581,62.962999999988824
312478.6837,3.247970291861908,5.161334368424537,2.695325369336355,0.8774336887832742,62.963999999978114
312478.6847,-3.6285933525169245,1.9881658951699257,-3.905807452948542,-3.273019260196537,62.964999999967404
312478.6857,-9.753617142334962,-0.5653391444171084,-9.81222497068681,-6.809428196427794,62.96599999995669
312478.6867,-15.014718523201726,-2.458302340770799,-14.92768646260054,-9.678310441520791,62.96700000000419
312478.6877,-19.349423295896013,-3.691192078472243,-19.199411637979306,-11.865307073741668,62.96799999999348
312478.6887,-22.74558064058481,-4.30508916370737,-22.61824438911939,-13.394661368182947,62.96899999998277
312478.6897,-25.23849818629184,-4.37807658405619,-25.21587065296923,-14.325928812600601,62.96999999997206
312478.6907,-26.905062196128195,-4.0190170787736745,-27.059338440499875,-14.748172368491396,62.97099999996135
312478.6917,-27.85534724333427,-3.3592014293521135,-28.243354908209223,-14.77211491803886,62.97200000000885
312478.6927,-28.22241619985245,-2.542528865175564,-28.881021206741863,-14.520898649307647,62.97299999999814
312478.6937,-28.151147135445104,-1.7150021479746784,-29.093793159005994,-14.120221473692048,62.97399999998743
312478.6947,-27.786986533534858,-1.014372437931611,-29.001512425673166,-13.688671760845745,62.97499999997672
312478.6957,-27.265512488568024,-0.560748006871865,-28.71333317735397,-13.329059539502081,62.97599999996601
312478.6967,-26.703598957927586,-0.44888817406006315,-28.320275093866435,-13.12144671983078,62.9769999999553
312478.6977,-26.19281154677151,-0.7427481370225824,-27.889973532193494,-13.118419630244786,62.978000000002794
312478.6987,-25.795451882492824,-1.4726362042675634,-27.463987011530953,-13.342939118529038,62.978999999992084
312478.6997,-25.543421458555834,-2.635111393065829,-27.057780679127298,-13.78886622734187,62.97999999998137
312478.7007,-25.439819953972126,-4.195508230842566,-26.66325501644789,-14.424017419764116,62.98099999997066
312478.7017,-25.462951308197198,-6.092749315392837,-26.253455339251747,-15.195375563280177,62.98199999995995
312478.7027,-25.572205598471033,-8.245915642015854,-25.788901717290614,-16.035892868940234,62.98300000000745
312478.7037,-25.715134739060314,-10.56190725710265,-25.224839192677088,-16.872187556123812,62.98399999999674
312478.7047,-25.834958490412067,-12.943454616460183,-24.518637554077728,-17.63236961045188,62.98499999998603
312478.7057,-25.87773084457345,-15.29673993514831,-23.636574660031993,-18.253238462634833,62.98599999997532
312478.7067,-25.79846487274365,-17.53795675880313,-22.559316326559706,-18.686175419361113,62.98699999996461
312478.7077,-25.56564873539228,-19.598267173370736,-21.285550841856153,-18.901197884348303,62.98800000001211
312478.7087,-25.163772543902127,-21.426795772447736,-19.833432615127617,-18.8888362873607,62.9890000000014
312478.7097,-24.593705948503427,-22.99150942757501,-18.239717746555634,-18.659718901233596,62.98999999999069
312478.7107,-23.87099747389706,-24.278051015775496,-16.55671184339607,-18.241982218008722,62.99099999997998
312478.7117,-23.022385621147535,-25.286801832482173,-14.847373814646799,-17.676842429064877,62.991999999969266
312478.7127,-22.080996881000736,-26.028621190544236,-13.179106734945872,-17.01284550558197,62.992999999958556
312478.7137,-21.08083884760602,-26.519835838516872,-11.61689986345604,-16.299441717682623,62.994000000006054
312478.7147,-20.051264651045887,-26.777114543692303,-10.216551606507457,-15.580592811488067,62.99499999999534
312478.7157,-19.012081542542106,-26.81285888385891,-9.018695332551882,-14.889110658406889,62.99599999998463
312478.7167,-17.9699024109895,-26.63167108749631,-8.044269434813918,-14.242346253351991,62.99699999997392
312478.7177,-16.916202080456724,-26.228331328919907,-7.291927979035165,-13.639705657631133,62.99799999996321
312478.7187,-15.827354505365385,-25.58754367511534,-6.737693096967098,-13.062279165560481,62.99900000001071
312478.7197,-14.666711389539502,-24.68550977589817,-6.336924337301353,-12.474650633978904,63.0
312478.7207,-13.388559253016236,-23.493182916976053,-6.028445834948559,-11.828727398712884,63.00099999998929
312478.7217,-11.943583327126237,-21.980863352541146,-5.740452610437156,-11.069220051342594,63.00199999997858
312478.7227,-10.285294209954465,-20.12363854642054,-5.397634328109286,-10.140226585853028,63.00299999996787
312478.7237,-8.376754739968232,-17.90706528487197,-4.9288266177823346,-8.992254493615967,63.00399999995716
312478.7247,-6.1968924920669375,-15.33244573486733,-4.274439436370551,-7.588959445432507,63.00500000000466
312478.7257,-3.7457035301137056,-12.421071399077263,-3.392925130921675,-5.912895928983551,63.005999999993946
312478.7267,-1.0477442389899236,-9.216895881622479,-2.265634843222383,-3.9696622450046304,63.006999999983236
312478.7277,1.8465381950138087,-5.787241227865836,-0.8995625027156413,-1.7899713275535054,63.007999999972526
312478.7287,4.861884454015602,-2.221329418324141,0.6723236329700384,0.5706244448109826,63.008999999961816
312478.7297,7.901728691248376,1.3733578911155964,2.3932305755965753,3.0344010319853187,63.01000000000931
312478.7307,10.853912872304207,4.8766729092529895,4.187000534600021,5.506337830461385,63.0109999999986
312478.7317,13.598172856164474,8.162932130603059,5.9644860811829385,7.880798950352319,63.01199999998789
312478.7327,16.01477915216141,11.109006482473326,7.631258268892134,10.049440783642737,63.01299999997718
312478.7337,17.993591837815053,13.602686611740003,9.095933655703902,11.909641841409861,63.01399999996647
312478.7347,19.442734706607805,15.550595609209404,10.27834272552091,13.372693529431173,63.01499999995576
312478.7357,20.296114078125154,16.88494740493665,11.116773356081465,14.371005765477017,63.01600000000326
312478.7367,20.51910134358423,17.568542056635504,11.573607727754899,14.863667784559977,63.01699999999255
312478.7377,20.111856630999633,17.59754064828053,11.638821249950134,14.839853882677845,63.01799999998184
312478.7387,19.109979080451865,17.001758248742473,11.33101317259955,14.319761862479584,63.01899999997113
312478.7397,17.5824074228713,15.842434750036878,10.695871087448944,13.352999513081732,63.01999999996042
312478.7407,15.62674024974871,14.207669292024933,9.802213020314246,12.014569689868885,63.021000000007916
312478.7417,13.362375229805071,12.205912807322079,8.735977963211482,10.398824865329702,63.021999999997206
312478.7427,10.922058808512816,9.958085055574024,7.592726648144492,8.611946305474131,63.022999999986496
312478.7437,8.442574516879272,7.589001018956637,6.469350871756472,6.763633746792763,63.023999999975786
312478.7447,6.0553662284704,5.218845539902886,5.4557588617403345,4.958756317690517,63.024999999965075
312478.7457,3.8778864785507916,2.9554196979336163,4.627299761890534,3.2897086133369275,63.02600000001257
312478.7467,2.006380431142793,0.8877994713261868,4.0386132266441095,1.830138426148006,63.02700000000186
312478.7477,0.5106714378285385,-0.9180949323941215,3.7194483463189814,0.6305726349828459,63.02799999999115
312478.7487,-0.5686812094663135,-2.4217080141153264,3.672803899484514,-0.2837208170643691,63.02899999998044
312478.7497,-1.2207085642160331,-3.6077392492851783,3.875518283377293,-0.9125154123121206,63.02999999996973
312478.7507,-1.4619348041508822,-4.483837811130032,4.281204350103921,-1.2781605095884787,63.03099999995902
312478.7517,-1.3321717263826853,-5.076429575604628,4.825204457788364,-1.4211884894829885,63.03200000000652
312478.7527,-0.8887081448032416,-5.425173857295775,5.431055526510934,-1.3944941903391443,63.03299999999581
312478.7537,-0.19953273627708779,-5.576665708780601,6.017820410792744,-1.256713534373814,63.0339999999851
312478.7547,0.6637008889815308,-5.578055679698071,6.507572849943356,-1.0654919539267471,63.03499999997439
312478.7557,1.6322590891847657,-5.4712477520096465,6.832324589710346,-0.8713276284459153,63.03599999996368
312478.7567,2.6458264804958977,-5.288259436908238,6.939753969486525,-0.7126007682570025,63.037000000011176
312478.7577,3.656414643782198,-5.048193863149916,6.797227507032296,-0.6122660882477602,63.038000000000466
312478.7587,4.6303603268655715,-4.756095858738184,6.393785958030463,-0.5765049941346437,63.038999999989755
312478.7597,5.548304024553901,-4.403760549681994,5.739975560575441,-0.5954252120007912,63.039999999979045
312478.7607,6.4032598250074235,-3.9723543877550926,4.865622535075461,-0.6456797325648966,63.040999999968335
312478.7617,7.197093321337214,-3.4365157648858244,3.8158526112287134,-0.6946757790661582,63.041999999957625
312478.7627,7.935895361590866,-2.7694448691037863,2.645827147436899,-0.7058783087741729,63.04300000000512
312478.7637,8.624858130268867,-1.9483860629048473,1.4147865899739995,-0.6445980800372335,63.04399999999441
312478.7647,9.263314446185595,-0.9598615992152939,0.1800490780959533,-0.4836031355088013,63.0449999999837
312478.7657,9.84058560442031,0.19596246785230506,-1.0083982510360487,-0.20790990022461042,63.04599999997299
312478.7667,10.333198991964498,1.5023108274887715,-2.112153632447128,0.1818056765475147,63.04699999996228
312478.7677,10.703892381692194,2.9246241484780873,-3.107072422909141,0.6675937734722194,63.04800000000978
312478.7687,10.902631668518454,4.411381084142009,-3.9841045973657123,1.2146430357156517,63.04899999999907
312478.7697,10.86965194221102,5.896915640142197,-4.748247928676493,1.7737371228982708,63.04999999998836
312478.7707,10.540310064688137,7.306018539939518,-5.415772349695708,2.285556611940834,63.05099999997765
312478.7717,9.851332817344105,8.559919981518751,-6.010059281444195,2.686428921447466,63.05199999996694
312478.7727,8.747879059356155,9.583098085179758,-6.556551250848458,2.91496855111909,63.05299999995623
312478.7737,7.190724337685082,10.310258106485223,-7.077406231140176,2.918944146544845,63.054000000003725
312478.7747,5.162833741804588,10.692792566702375,-7.586487506211388,2.6616688143125917,63.054999999993015
312478.7757,2.6746186348045184,10.704065933002475,-8.08528959321992,2.127240336120201,63.055999999982305
312478.7767,-0.23272676928455985,10.342966695610386,-8.560306770724402,1.3240561030126405,63.056999999971595
312478.7777,-3.4862511074129934,9.635325450180739,-8.982202478183368,0.28618459432941756,63.057999999960884
312478.7787,-6.982867527413106,8.632995076194026,-9.30695025666326,-0.9276239320309297,63.05900000000838
312478.7797,-10.593569660350807,7.4106092884545465,-9.478909009383111,-2.237279595391937,63.05999999999767
312478.7807,-14.170000457647445,6.060257376145356,-9.435588313975737,-3.546812159405909,63.06099999998696
312478.7817,-17.55291112728658,4.684514235384531,-9.11367444735587,-4.7515036507401165,63.06199999997625
312478.7827,-20.58186586519861,3.388426124168709,-8.455743687689594,-5.746082772770857,63.06299999996554
312478.7837,-23.105423880877677,2.271158013026817,-7.417001296015577,-6.433258616803459,63.06400000001304
312478.7847,-24.99097548218712,1.4180474408105417,-5.971361774209938,-6.7318282443383195,63.06500000000233
312478.7857,-26.133429218559794,0.8937783048280351,-4.1162314854761695,-6.58362237714929,63.06599999999162
312478.7867,-26.462040640066185,0.7372887446975993,-1.8754646676315068,-5.958653231261726,63.06699999998091
312478.7877,-25.94483147936636,0.9588695243391043,0.6998719775188111,-4.857989201292746,63.0679999999702
312478.7887,-24.590256222209753,1.5397080574828352,3.533088217289349,-3.314087462613696,63.06899999995949
312478.7897,-22.446011600991486,2.433907660652482,6.5257530659864225,-1.388547985312562,63.070000000006985
312478.7907,-19.595131193556902,3.572783309779118,9.563592357090783,0.832511220952626,63.070999999996275
312478.7917,-16.149739022350083,4.8710259402579865,12.523926414317993,3.2450401492505856,63.071999999985565
312478.7927,-12.24303133721629,6.2341571317051425,15.28402032446063,5.735008413982688,63.072999999974854
312478.7937,-8.020196710813583,7.566581044388079,17.729624413091877,8.187004916542254,63.073999999964144
312478.7947,-3.629058527639299,8.77949157364361,19.762955065460634,10.492714166179939,63.07500000001164
312478.7957,0.7887752967236928,9.797914336383101,21.309409126492746,12.558516962711725,63.07600000000093
312478.7967,5.1055421670525165,10.566252980668486,22.322415119837306,14.311553195683075,63.07699999999022
312478.7977,9.213157368024962,11.051858538151565,22.785991401662002,15.703736683750183,63.07799999997951
312478.7987,13.026859694898153,11.246334552837316,22.71478959928238,16.713411480096283,63.0789999999688
312478.7997,16.4865000664677,11.164510676100727,22.15163176113621,17.34456658715646,63.07999999995809
312478.8007,19.555533389716732,10.841242025321282,21.162779883535993,17.62375957686424,63.08100000000559
312478.8017,22.217992745442967,10.326399179969853,19.831385090127863,17.595116682156505,63.08199999999488
312478.8027,24.47391114726574,9.678584258254814,18.249730888510285,17.31395662929466,63.08299999998417
312478.8037,26.333791979485543,8.95822573885398,16.51099463052202,16.839710591124913,63.08399999997346
312478.8047,27.81280208111135,8.220757438356356,14.701292958715099,16.228869251592926,63.08499999996275
312478.8057,28.925364918600373,7.510570483990949,12.892746450280569,15.52867464680746,63.086000000010245
312478.8067,29.680765851014666,6.856343139698128,11.13819853874702,14.772190750743846,63.086999999999534
312478.8077,30.08025441000588,6.268210414241523,9.468063401925948,13.975241112353693,63.087999999988824
312478.8087,30.115953129853608,5.737047691399761,7.8895719323307745,13.135508660628998,63.088999999978114
312478.8097,29.77167684258815,5.235928701119352,6.388453609976756,12.23387113260528,63.089999999967404
312478.8107,29.025551515474394,4.723599051414975,4.932857076286282,11.237817269916956,63.09099999995669
312478.8117,27.854119527446688,4.1496037890768465,3.4790959150623046,10.106576434018057,63.09200000000419
312478.8127,26.237449322870994,3.4605409462759953,1.978629342537498,8.797418516140876,63.09299999999348
312478.8137,24.16464886165543,2.6067990787800333,0.38556726138365055,7.272459276472691,63.09399999998277
312478.8147,21.63912636184577,1.549086561506716,-1.3360628390819522,5.505250559506381,63.09499999997206
312478.8157,18.682954392725236,0.26407877680783176,-3.2060281387615666,3.4864507543582155,63.09599999996135
312478.8167,15.33977345069022,-1.2514055196257272,-5.223229721327724,1.2279569434157658,63.09700000000885
312478.8177,11.675810990255126,-2.9781438155946622,-7.363160485706904,-1.234971919282151,63.09799999999814
312478.8187,7.77877772403582,-4.87442273914178,-9.577769170226302,-3.8438761284666016,63.09899999998743
312478.8197,3.7546164179213637,-6.8781677993019,-11.797785018474519,-6.519592264772843,63.09999999997672
312478.8207,-0.2777018913964541,-8.911114908731694,-13.937318388259145,-9.166907530118635,63.10099999996601
312478.8217,-4.192935374757809,-10.884646572202287,-15.90033006981511,-11.680978528803445,63.1019999999553
312478.8227,-7.8673161044791176,-12.706750000794155,-17.588377726246037,-13.954944415517542,63.103000000002794
312478.8237,-11.186601382581195,-14.289441527384946,-18.9089195880123,-15.888041547301668,63.103999999992084
312478.8247,-14.053702482457838,-15.555952723469172,-19.78339587726034,-17.393470595705754,63.10499999998137
312478.8257,-16.395183986021802,-16.446993483792212,-20.154323393451477,-18.405283195330735,63.10599999997066
312478.8267,-18.16601895651702,-16.925494263232803,-19.990727077042216,-18.883642295407604,63.10699999995995
312478.8277,-19.35213864121786,-16.979375270618938,-19.29138591898738,-18.817960202570543,63.10800000000745
312478.8287,-19.97051588541724,-16.62208064156625,-18.08557472537804,-18.227616496132352,63.10899999999674
312478.8297,-20.06674986286305,-15.890831929263083,-16.431218475756303,-17.1601854676814,63.10999999998603
312478.8307,-19.710354096551253,-14.84277657079881,-14.410619766596403,-15.68733750280802,63.11099999997532
312478.8317,-18.988167301910394,-13.5494116590209,-12.124148654354173,-13.898798146322337,63.11199999996461
312478.8327,-17.99648602938623,-12.089831285706707,-9.682476029265107,-11.894931189389904,63.11300000001211
312478.8337,-16.83264165402991,-10.543460352139476,-7.198067907117736,-9.778640231524998,63.1140000000014
312478.8347,-15.586799491860923,-8.982987648807809,-4.776725499523506,-7.647344310956013,63.11499999999069
312478.8357,-14.334738800840087,-7.468191051513501,-2.5099480244807593,-5.585771366135255,63.11599999997998
312478.8367,-13.132280402883096,-6.041259542646065,-0.46881265178876874,-3.6602295862914653,63.116999999969266
312478.8377,-12.011871995687368,-4.7240687979402365,1.3000833090342918,-1.9148692325606578,63.117999999958556
312478.8387,-10.981634598065815,-3.5176735285591914,2.7762744361393485,-0.3702505987352687,63.119000000006054
312478.8397,-10.026936629826368,-2.404059414178556,3.964564194614366,0.97569338358786,63.11999999999534
312478.8407,-9.114317582089024,-1.349971800881997,4.891781936977389,2.1444466354399316,63.12099999998463
312478.8417,-8.197354688753247,-0.31242949320106306,5.601525417624836,3.171818584321159,63.12199999997392
312478.8427,-7.223875665303195,0.7546394656807512,6.147448576050535,4.101522886125444,63.12299999996321
312478.8437,-6.1437870682086455,1.8933201243803532,6.585793399557855,4.978106433074928,63.12400000001071
312478.8447,-4.916724374081823,3.1349219269129,6.967934968035169,5.839970942137596,63.125
312478.8457,-3.518742988364349,4.494189028557733,7.333703440262979,6.713218125260319,63.12599999998929
312478.8467,-1.9473581851553077,5.965128879405487,7.706166284686139,7.6069658429627705,63.12699999997858
312478.8477,-0.22439823186669944,7.518926068046447,8.08840636168904,8.510634902595339,63.12799999996787
312478.8487,1.603656122841864,9.10420920407528,8.462630991784529,9.393508756178978,63.12899999995716
312478.8497,3.467930958683859,10.649711622262217,8.791713531337555,10.206640642760185,63.13000000000466
312478.8507,5.28185121479592,12.069133853726724,9.023025108710605,10.886947053077256,63.130999999993946
312478.8517,6.9478626893054445,13.267799696361955,9.094183933505981,11.363105900956338,63.131999999983236
312478.8527,8.365581905987925,14.150519310277936,8.940155519124009,11.562694105964415,63.132999999972526
312478.8537,9.440628913560522,14.629949408378494,8.500998237655427,11.419870448350407,63.133999999961816
312478.8547,10.093325510171695,14.634684319099506,7.729478427970165,10.882848191382537,63.13500000000931
312478.8557,10.2664460468852,14.11632797962472,6.597784645200762,9.920414107158878,63.1359999999986
312478.8567,9.931289399776169,13.054884259566167,5.1026510358647945,8.52683503206351,63.13699999998789
312478.8577,9.091491081775853,11.461953043056823,3.26834741128175,6.724641706425911,63.13799999997718
312478.8587,7.784199378297128,9.381417815209947,1.1471940339843063,4.564977982314145,63.13899999996647
312478.8597,6.078479257608671,6.887538112303807,-1.1825069833288258,2.1254322836197446,63.13999999995576
312478.8607,4.071059804789864,4.080595376056,-3.620987006065841,-0.49449465394077025,63.14100000000326
312478.8617,1.8797812081595748,1.0804611599564211,-6.05360415214326,-3.179909106279306,63.14199999999255
312478.8627,-0.36469668183053794,-1.981358519643608,-8.358948435699036,-5.80846733938347,63.14299999998184
312478.8637,-2.5282096318231413,-4.970516853243737,-10.41774895958311,-8.259045762005258,63.14399999997113
312478.8647,-4.482628289915577,-7.758704908064137,-12.121796638591158,-10.420374914933488,63.14499999996042
312478.8657,-6.114810972596117,-10.231865688961827,-13.38209329042301,-12.198879402636061,63.146000000007916
312478.8667,-7.334223722611345,-12.29706691927069,-14.13550923370725,-13.525042699437455,63.146999999997206
312478.8677,-8.078613454755542,-13.887490610356988,-14.349369625609482,-14.357756182570421,63.147999999986496
312478.8687,-8.31730657990591,-14.965180455539567,-14.02358117907112,-14.686301893439047,63.148999999975786
312478.8697,-8.051928180315647,-15.521401214856498,-13.190137153253833,-14.529839845364627,63.149999999965075
312478.8707,-7.314573984838033,-15.574686786663591,-11.910077944923035,-13.934501750587684,63.15100000001257
312478.8717,-6.163696338416356,-15.166864154896041,-10.26821444994401,-12.968411624488473,63.15200000000186
312478.8727,-4.678164447121856,-14.357518831735328,-8.366119915225768,-11.71513901233638,63.15299999999115
312478.8737,-2.9501099479281447,-13.217497095328143,-6.31404471157597,-10.266225130850016,63.15399999998044
312478.8747,-1.077257757909188,-11.822109485529815,-4.222493685042887,-8.713493633976674,63.15499999996973
312478.8757,0.8445381684818426,-10.244702923113183,-2.1942200410575357,-7.1418598305382,63.15599999995902
312478.8767,2.727884649089381,-8.551206242415375,-0.31733251646423766,-5.623285609628907,63.15700000000652
312478.8777,4.499008748275179,-6.796133053142031,1.339909762656444,-4.212399351369385,63.15799999999581
312478.8787,6.101095769931554,-5.020359497785238,2.7322152603900585,-2.9441239223665603,63.1589999999851
312478.8797,7.495613274563184,-3.2507998185673532,3.8381012608360248,-1.833449281950033,63.15999999997439
312478.8807,8.661640813480897,-1.501899497623174,4.658492770274313,-0.8772698927210485,63.16099999996368
312478.8817,9.59342935493707,0.22132543803684374,5.213329594672906,-0.05800246638225977,63.162000000011176
312478.8827,10.296590353961848,1.9191344255918892,5.536619182778444,0.651473301981709,63.163000000000466
312478.8837,10.783444750724763,3.5923382476504906,5.670512902697609,1.2821326226436809,63.163999999989755
312478.8847,11.068134296835948,5.237604336838272,5.659063284044386,1.8630274868944259,63.164999999979045
312478.8857,11.16210491972342,6.843382743345037,5.542332291316701,2.416055316768552,63.165999999968335
312478.8867,11.070514370095893,8.386973548117574,5.351465530903539,2.951849084784689,63.166999999957625
312478.8877,10.790000760207866,9.833131307501302,5.105230808109681,3.467237333614797,63.16800000000512
312478.8887,10.308087275482144,11.134435079726856,4.8083540763271655,3.9445511972222014,63.16899999999441
312478.8897,9.60430841171911,12.233460812325223,4.4517887749197875,4.352856697846423,63.1699999999837
312478.8907,8.652944495099458,13.066595954579677,4.014846089158158,4.650984521638417,63.17099999997299
312478.8917,7.427064756116013,13.569154223403078,3.4689150371257673,4.792037081080831,63.17199999996228
312478.8927,5.903424352682583,13.681300135854968,2.7823326196665596,4.728893456041615,63.17300000000978
312478.8937,4.067653725248217,13.35419352047243,1.925842553007622,4.420122906114724,63.17399999999907
312478.8947,1.9191308757348982,12.555724144111212,0.8780185166557409,3.8356682339914165,63.17499999998836
312478.8957,-0.5250560989602304,11.275230320257332,-0.369969445829209,2.961676440956924,63.17599999997765
312478.8967,-3.2275689051879075,9.526680984920382,-1.8107991867770121,1.8039343511461785,63.17699999996694
312478.8977,-6.130078603202252,7.349940105542404,-3.4190797929747756,0.389503250851563,63.17799999995623
312478.8987,-9.154524548674885,4.809911872035731,-5.151332011041511,-1.2336744987985482,63.179000000003725
312478.8997,-12.206370788613631,1.9935672656487016,-6.947925721346982,-2.9992203558484505,63.179999999993015
312478.9007,-15.179652503094376,-0.994942670880486,-8.736828919177722,-4.8266316813119445,63.180999999982305
312478.9017,-17.96341673259067,-4.040694567993133,-10.43883066555703,-6.6270855669740145,63.181999999971595
312478.9027,-20.449009734105037,-7.025378633064391,-11.973741629036573,-8.310203809151789,63.182999999960884
312478.9037,-22.537563667234952,-9.835020914617523,-13.266966518158988,-9.791145039263085,63.18400000000838
312478.9047,-24.146998585425575,-12.367362806269043,-14.255794336241761,-10.997349069715357,63.18499999999767
312478.9057,-25.2178863285598,-14.53824704132912,-14.894770320142072,-11.874284491534834,63.18599999998696
312478.9067,-25.717618605746996,-16.286451018151002,-15.159596350291013,-12.389641305954353,63.18699999997625
312478.9077,-25.642473533304035,-17.576554370235552,-15.04914669263589,-12.535557261125847,63.18799999996554
312478.9087,-25.017368690918897,-18.399614099515297,-14.58536951313456,-12.328655343070473,63.18900000001304
312478.9097,-23.893305649906104,-18.77162913534838,-13.811053588935785,-11.80788204684711,63.19000000000233
312478.9107,-22.34272974803739,-18.729986426563684,-12.785653242664003,-11.030350721037784,63.19099999999162
312478.9117,-20.45322811841368,-18.32827194783854,-11.579561337179856,-10.065590171253943,63.19199999998091
312478.9127,-18.320148877662525,-17.629983444423463,-10.267380281931008,-8.98875631016989,63.1929999999702
312478.9137,-16.03882892230763,-16.70178217200479,-8.920848009977421,-7.873468123894396,63.19399999995949
312478.9147,-13.697156282427652,-15.60695832620812,-7.6021185341147035,-6.784968028328616,63.195000000006985
312478.9157,-11.369161165797877,-14.39975551130102,-6.358070041353289,-5.774276593530129,63.195999999996275
312478.9167,-9.110230298518818,-13.121106275301782,-5.2162194484487365,-4.87391518348757,63.196999999985565
312478.9177,-6.954381200989462,-11.796182582839167,-4.182669540450404,-4.0956164235144366,63.197999999974854
312478.9187,-4.913831700788658,-10.433976709285432,-3.2423177784525423,-3.4302463964189958,63.198999999964144
312478.9197,-2.9808747018578576,-9.028918055881629,-2.3613336296327803,-2.8499431758158393,63.20000000001164
312478.9207,-1.1318409034259236,-7.564320649283532,-1.4916855364341322,-2.312255230392024,63.20100000000093
312478.9217,0.6672749643461395,-6.0172655996220445,-0.57729162808585,-1.7658621776312202,63.20199999999022
312478.9227,2.4541153415228036,-4.36437162989077,0.43879944417109973,-1.1572992874221264,63.20299999997951
312478.9237,4.2628887850014054,-2.587810226676054,1.6069027189072687,-0.4380021774834561,63.2039999999688
312478.9247,6.117668089988377,-0.6808899345312384,2.963615231301713,0.42904997645866366,63.20499999995809
312478.9257,8.026767437332364,1.3474295764268334,4.525878694239636,1.4637814566479843,63.20600000000559
312478.9267,9.978806751930424,3.4696319169833876,6.286807509422188,2.665144732154633,63.20699999999488
312478.9277,11.940909175236694,5.638728528214385,8.213742176739094,4.009350273474983,63.20799999998417
312478.9287,13.859270096655775,7.78951809884574,10.24878077373752,5.450425139702036,63.20899999997346
312478.9297,15.662103486635685,9.841987426854185,12.311806956324606,6.9230964154420995,63.20999999996275
312478.9307,17.26473582992383,11.70660231525563,14.305794307148492,8.34776614843289,63.211000000010245
312478.9317,18.576402659170107,13.291040756333846,16.123946813935113,9.637135609535175,63.211999999999534
312478.9327,19.508128584473013,14.507765477897404,17.65805510846267,10.703868993419004,63.212999999988824
312478.9337,19.980955954277498,15.281734503638006,18.807325395189626,11.468576730540246,63.213999999978114
312478.9347,19.933741438400155,15.557516880723085,19.486884827575793,11.867357479065946,63.214999999967404
312478.9357,19.329768742425482,15.305119860779577,19.635188863176964,11.858170056019471,63.21599999995669
312478.9367,18.161526975310892,14.523940453750887,19.219651049968782,11.42540939505792,63.21700000000419
312478.9377,16.45316852045605,13.244418712236856,18.239974922695207,10.582224560013088,63.21799999999348
312478.9387,14.260372105306521,11.527177002278634,16.728876176499003,9.370326407914435,63.21899999998277
312478.9397,11.667575989367064,9.459659345484747,14.750121244904305,7.857267709618515,63.21999999997206
312478.9407,8.78278995936685,7.150515834478882,12.394053214255962,6.131416868145321,63.22099999996135
312478.9417,5.730419802001389,4.722187074133695,9.771004382352443,4.295064908858049,63.22200000000885
312478.9427,2.6427225507612246,2.3023124445261245,7.00318504044091,2.4562830712335058,63.22299999999814
312478.9437,-0.34936263852476845,0.014697439918595297,4.2157722414714005,0.7202679095221132,63.22399999998743
312478.9447,-3.1252067707216837,-2.029381423406787,1.5279878532029159,-0.8190393348985912,63.22499999997672
312478.9457,-5.582524448016454,-3.738784949972265,-0.9550538500687782,-2.086297140995524,63.22599999996601
312478.9467,-7.643759298299737,-5.048382932972549,-3.149031172233513,-3.030407188254372,63.2269999999553
312478.9477,-9.260289665935518,-5.922699104677006,-4.995082055099711,-3.627952638963135,63.228000000002794
312478.9487,-10.41412957129228,-6.3570446997813015,-6.462100566909705,-3.884135242340975,63.228999999992084
312478.9497,-11.117035945298936,-6.376087309276038,-7.546539145997136,-3.8311514473609054,63.22999999998137
312478.9507,-11.407175570817058,-6.030037004327411,-8.269830736384549,-3.524189068632213,63.23099999997066
312478.9517,-11.343730605099491,-5.388848562483685,-8.673768562760506,-3.0354493945315566,63.23199999995995
312478.9527,-11.000008324258022,-4.535016404934684,-8.81436914523106,-2.4467834858764093,63.23300000000745
312478.9537,-10.455750962965599,-3.555660696480045,-8.754878263500366,-1.8416581270623147,63.23399999999674
312478.9547,-9.78940293844538,-2.534657515184492,-8.558647275231605,-1.2972243303799693,63.23499999998603
312478.9557,-9.071079835577137,-1.5455481275780325,-8.282602344926355,-0.8772440425657492,63.23599999997532
312478.9567,-8.356898076688056,-0.6458742659926104,-7.971952746836635,-0.6265405913331842,63.23699999996461
312478.9577,-7.685175100191765,0.1265632454704832,-7.656644486216491,-0.5674843437845638,63.23800000001211
312478.9587,-7.074812238671537,0.755221335903344,-7.349876277686322,-0.6988221448515652,63.2390000000014
312478.9597,-6.525946145568859,1.2440293155135402,-7.048775482627674,-0.9969272191387598,63.23999999999069
312478.9607,-6.022722145521665,1.614452517652568,-6.737103929711122,-1.4193080134407303,63.24099999997998
312478.9617,-5.5378273678904035,1.9007681634562046,-6.389650382142251,-1.909993178000654,63.241999999969266
312478.9627,-5.038244295123458,2.1440910439638285,-5.977789056105882,-2.4062270954213916,63.242999999958556
312478.9637,-4.49156388573834,2.3858064977867395,-5.475559751359345,-2.845783836352677,63.244000000006054
312478.9647,-3.8721436122059414,2.6611220158536733,-4.865567227970478,-3.174149390591218,63.24499999999534
312478.9657,-3.16641475425057,2.99343160401152,-4.144011321486559,-3.350838010506871,63.24599999998463
312478.9667,-2.3767330553327604,3.3901007323394667,-3.324243693157546,-3.3541967802250983,63.24699999997392
312478.9677,-1.5233183322019026,3.840133016555363,-2.4383938392244917,-3.1842042914590007,63.24799999996321
312478.9687,-0.6440266802191374,4.313987323837834,-1.536801637649829,-2.8629695775616177,63.24900000001071
312478.9697,0.20807619274263978,4.765594828148114,-0.6852171396124433,-2.4328665344216254,63.25
312478.9707,0.9691426175068156,5.136401278567148,0.040041509735074164,-1.9524744730082744,63.25099999998929
312478.9717,1.5705627087479128,5.361052450119259,0.5585669500075693,-1.490714169864971,63.25199999997858
312478.9727,1.9459956675870116,5.3741707673406625,0.7933962399414218,-1.11974945960624,63.25299999996787
312478.9737,2.038716971729412,5.1175550801335,0.6788950798428637,-0.90734946084149,63.25399999995716
312478.9747,1.8085387813746152,4.547084880176253,0.16823350857722655,-0.9094638207983556,63.25500000000466
312478.9757,1.237586975494465,3.6386298382311453,-0.7602879801967999,-1.1637474048973815,63.255999999993946
312478.9767,0.3343152237768173,2.392353537240894,-2.0987131307917943,-1.6846832795276292,63.256999999983236
312478.9777,-0.8647047119723077,0.8349481564212436,-3.807203231860549,-2.460802219654336,63.257999999972526
312478.9787,-2.2954718063475936,-0.9804696745018943,-5.814404134392802,-3.454297984181042,63.258999999961816
312478.9797,-3.8697466823964874,-2.97685126623519,-8.02046915980312,-4.603109547635959,63.26000000000931
312478.9807,-5.480530543104955,-5.0579198945131925,-10.302558931066988,-5.8253064143368105,63.2609999999986
312478.9817,-7.009399256993701,-7.114699896760914,-12.522412577396231,-7.0253937330537335,63.26199999998789
312478.9827,-8.33508024713376,-9.033310542164207,-14.535394147463894,-8.101971248193236,63.26299999997718
312478.9837,-9.34253699260487,-10.703343449602277,-16.200281388072618,-8.956051617437536,63.26399999996647
312478.9847,-9.931771641337178,-12.026085681179788,-17.388994127900787,-9.499281451345746,63.26499999995576
312478.9857,-10.025575750052653,-12.92186352821718,-17.99546281221356,-9.66131829777584,63.26600000000326
312478.9867,-9.575550715303915,-13.335862990761608,-17.94291376711801,-9.395697445949567,63.26699999999255
312478.9877,-8.56587433784075,-13.241924061645179,-17.188989146278296,-8.683665793312965,63.26799999998184
312478.9887,-7.0144934187347205,-12.643993463223886,-15.728312689965382,-7.535652039305129,63.26899999997113
312478.9897,-4.971654957536314,-11.57513637146856,-13.592339034040737,-5.990264476511196,63.26999999996042
312478.9907,-2.515928318718281,-10.094231208006152,-10.846562919388308,-4.11093820028034,63.271000000007916
312478.9917,0.2519050317520347,-8.280681492371027,-7.585392854345298,-1.9805705240963951,63.271999999997206
312478.9927,3.2165300386525884,-6.227655180514761,-3.925190314936192,0.305333907097171,63.272999999986496
312478.9937,6.25664720695068,-4.034488377092763,0.0038776456923915966,2.6463556101804335,63.273999999975786
312478.9947,9.253627727804997,-1.798955215247923,4.066440648177294,4.944970130401183,63.274999999965075
312478.9957,12.099515085715277,0.38989654480470193,8.130236489896738,7.113757121350436,63.27600000001257
312478.9967,14.703689942482145,2.457713147154172,12.073442679291812,9.081361356176977,63.27700000000186
312478.9977,16.997654643579008,4.349102163648985,15.790458959647205,10.796690624946741,63.27799999999115
312478.9987,18.93758264347653,6.029869639386118,19.19574317882141,12.23101574037221,63.27899999998044
312478.9997,20.50449800322701,7.487099811276823,22.22550805755908,13.377848272110532,63.27999999996973
312479.0007,21.70217953224944,8.727161862101703,24.837304843708466,14.250691436631127,63.28099999995902
312479.0017,22.553100986975956,9.771928376884798,27.007729830410998,14.878967255233457,63.28200000000652
312479.0027,23.092902189493934,10.653659524605581,28.72867057833526,15.302598406535427,63.28299999999581
312479.0037,23.36401849787369,11.409129274498953,30.002642750981156,15.565849132629213,63.2839999999851
312479.0047,23.409165250119173,12.073633629782773,30.837842832057774,15.71109399170226,63.28499999997439
312479.0057,23.265373310972805,12.675520165085105,31.243549741251343,15.773180133479622,63.28599999996368
312479.0067,22.959202164953535,13.231813660414005,31.226449282562154,15.774978714260621,63.287000000011176
312479.0077,22.503625353021512,13.745391169116656,30.78833593503444,15.724591273337369,63.288000000000466
312479.0087,21.896902716965393,14.203993856704994,29.92547927563824,15.614500468959472,63.288999999989755
312479.0097,21.12354291675547,14.581169173825984,28.629744668356597,15.422749243243322,63.289999999979045
312479.0107,20.157239036283876,14.83903485187512,26.89135020982496,15.11601885093658,63.290999999968335
312479.0117,18.965451746915353,14.93256608164411,24.702945788107197,14.654275691239098,63.291999999957625
312479.0127,17.51513920109075,14.814948074967107,22.064535887877625,13.99648969257752,63.29300000000512
312479.0137,15.779008077774073,14.443423926810045,18.988652719943683,13.106810004866288,63.29399999999441
312479.0147,13.741598524377132,13.785013512292146,15.505132740282646,11.960528874899868,63.2949999999837
312479.0157,11.404523450257141,12.821488488550537,11.664863884453903,10.549177577994142,63.29599999997299
312479.0167,8.790259192913258,11.553060401792505,7.54195230959601,8.884178160534216,63.29699999996228
312479.0177,5.944022657878573,10.00036624958815,3.2338987597168702,6.998613848230754,63.29800000000978
312479.0187,2.9334561813953077,8.204505899848392,-1.140437586910085,4.946865696298719,63.29899999999907
312479.0197,-0.15394266075608332,6.2250815226537455,-5.445093993588383,2.802075202504211,63.29999999998836
312479.0207,-3.215484530353931,4.136391056953445,-9.533261075531875,0.6516111638054726,63.30099999997765
312479.0217,-6.1396723928998185,2.02211547103386,-13.255117356362366,-1.409077713579337,63.30199999996694
312479.0227,-8.813757096785343,-0.031005691904248102,-16.46664545701723,-3.2836753743912674,63.30299999995623
312479.0237,-11.131791176710287,-1.9399098942735642,-19.038715881626285,-4.882612065417926,63.304000000003725
312479.0247,-13.002448099668339,-3.631711083198492,-20.865672370060324,-6.130364342597084,63.304999999993015
312479.0257,-14.355885634145746,-5.049333588814022,-21.872672874370128,-6.971745873922472,63.305999999982305
312479.0267,-15.149013721641811,-6.155731623665864,-22.0211314351038,-7.376581094796579,63.306999999971595
312479.0277,-15.368671535995016,-6.936281391030075,-21.311760674020295,-7.342301680912013,63.307999999960884
312479.0287,-15.032411519389585,-7.3991105281101275,-19.78491814773298,-6.8941998654659775,63.30900000000838
312479.0297,-14.18681142931707,-7.573331725620124,-17.518193412413748,-6.083294085727119,63.30999999999767
312479.0307,-12.903467140056287,-7.505353885969218,-14.621414281344723,-4.981989753761632,63.31099999998696
312479.0317,-11.27303653935697,-7.253634596423315,-11.229477461483157,-3.677928886934292,63.31199999997625
312479.0327,-9.397887092010619,-6.882393004986144,-7.49359891286845,-2.2665961961222285,63.31299999996554
312479.0337,-7.384028670455201,-6.454906804072604,-3.571714711893165,-0.8433688597874655,63.31400000001304
312479.0347,-5.333076422998643,-6.027060320504549,0.38116903193606894,0.504249287088602,63.31500000000233
312479.0357,-3.3349795446957637,-5.6417880802079585,4.22188500570819,1.7034865020595695,63.31599999999162
312479.0367,-1.462171679094007,-5.324971567599923,7.826559847721023,2.7016202929171382,63.31699999998091
312479.0377,0.23434485052193088,-5.0832044774171266,11.096048640217676,3.4692681928236526,63.3179999999702
312479.0387,1.726661629443232,-4.9036573523901685,13.958978736039422,4.001364243036817,63.31899999995949
312479.0397,3.009277437048672,-4.7560641121139415,16.372262368107215,4.315758165686693,63.320000000006985
312479.0407,4.096197773249577,-4.5966410524162935,18.31917722311684,4.449605192702933,63.320999999996275
312479.0417,5.016173481475135,-4.373554317063551,19.805341029393773,4.453929032528582,63.321999999985565
312479.0427,5.806612888718688,-4.033393885211399,20.853098375892806,4.386917520048538,63.322999999974854
312479.0437,6.5068298219835246,-3.5280065279476327,21.494977044803214,4.3066327645842675,63.323999999964144
312479.0447,7.151351579023905,-2.820997629590573,21.766943937407248,4.263873094307894,63.32500000001164
312479.0457,7.764000371054344,-1.893236755475854,21.70219055000433,4.295907337170988,63.32600000000093
312479.0467,8.35337999719625,-0.746792273583655,21.32610541759811,4.421714599296296,63.32699999999022
312479.0477,8.91025467159515,0.5931323282034067,20.65295358303559,4.639213242547174,63.32799999997951
312479.0487,9.407113354903093,2.078497677864875,19.684594894639435,4.924765845518573,63.3289999999688
312479.0497,9.799989806994615,3.640986031516811,18.411352662263177,5.235021822126462,63.32999999995809
312479.0507,10.0323779614563,5.1966216356431705,16.81491387308093,5.510928086246375,63.33100000000559
312479.0517,10.0408669466037,6.652057925339354,14.872924673513678,5.683523297736287,63.33199999999488
312479.0527,9.761941451910028,7.911972030857236,12.564761733052986,5.680953790218017,63.33299999998417
312479.0537,9.13926886233039,8.886896550993905,9.877829561953495,5.436026576444749,63.33399999997346
312479.0547,8.130737008471236,9.500771824310263,6.81366880417067,4.89355880523972,63.33499999996275
312479.0557,6.714521305253034,9.697523582274197,3.3931674635823312,4.016799138068326,63.336000000010245
312479.0567,4.893546156171286,9.446058859454848,-0.33975463592089944,2.7922831173963982,63.336999999999534
312479.0577,2.6978544851980995,8.743218887685806,-4.316475695630873,1.2326332359648453,63.337999999988824
312479.0587,0.18459666499578287,7.614417332377313,-8.444311496420308,-0.6229894244805725,63.338999999978114
312479.0597,-2.5644232582016633,6.111907330656257,-12.609536691879098,-2.7108505533050415,63.339999999967404
312479.0607,-5.447472337418918,4.310840613195509,-16.682627047763727,-4.946862425407521,63.34099999995669
312479.0617,-8.349494557502931,2.303485369348214,-20.525342279470816,-7.232680414652593,63.34200000000419
312479.0627,-11.150026346161566,0.1921369322039077,-23.9990842640054,-9.463119997898119,63.34299999999348
312479.0637,-13.731723340782356,-1.9186291489554181,-26.97383323236479,-11.5342135695624,63.34399999998277
312479.0647,-15.988739640199197,-3.9296593775738553,-29.33689795980869,-13.351167810833457,63.34499999997206
312479.0657,-17.834212891478767,-5.754192436839025,-31.0007214473304,-14.835495127163632,63.34599999996135
312479.0667,-19.206191857800732,-7.323490072803936,-31.909060596413372,-15.930675248255005,63.34700000000885
312479.0677,-20.071489361383783,-8.590659308207016,-32.040999447949964,-16.605847125776883,63.34799999999814
312479.0687,-20.427138362923785,-9.532377669145562,-31.41244702459656,-16.8572224364787,63.34899999998743
312479.0697,-20.299353403466977,-10.148439595754754,-30.074994195760546,-16.70713141873255,63.34999999997672
312479.0707,-19.740131859233312,-10.459253635810219,-28.11223778958925,-16.200837870454748,63.35099999996601
312479.0717,-18.821846942295192,-10.50161557623248,-25.633902038938878,-15.401470791829922,63.3519999999553
312479.0727,-17.630366160951404,-10.323243231125787,-22.76827631239751,-14.383594866531709,63.353000000002794
312479.0737,-16.257357667669947,-9.976668630935443,-19.65362625594581,-13.22606387579625,63.353999999992084
312479.0747,-14.792510488756983,-9.51313240232124,-16.42931033976965,-12.004858651884188,63.35499999998137
312479.0757,-13.316387416978909,-8.977108867857112,-13.227339027385865,-10.786599131105634,63.35599999997066
312479.0767,-11.894552699448663,-8.402011029390126,-10.1650498699025,-9.623340188230722,63.35699999995995
312479.0777,-10.573478722217118,-7.807490612456488,-7.339446032798744,-8.549121652561281,63.35800000000745
312479.0787,-9.378550810601002,-7.198573642504337,-4.823571321645316,-7.578558496355011,63.35899999999674
312479.0797,-8.314275716863625,-6.566674513664698,-2.6650895508987498,-6.707546338419985,63.35999999998603
312479.0807,-7.366578732848597,-5.89233133315135,-0.8870207895482762,-5.915941358296916,63.36099999997532
312479.0817,-6.50686859145153,-5.149322819758978,0.5096169284822066,-5.171874142556921,63.36199999996461
312479.0827,-5.697378750018515,-4.309680718169328,1.5416843465854666,-4.437193836935523,63.36300000001211
312479.0837,-4.897175011190902,-3.349016403958801,2.238864453933441,-3.6734285068743966,63.3640000000014
312479.0847,-4.0681642047431055,-2.251545786630961,2.638285468975777,-2.847600750956761,63.36499999999069
312479.0857,-3.180451920417007,-1.0142263390524446,2.779435270437596,-1.9372589056701854,63.36599999997998
312479.0867,-2.216477271944186,0.3504888180487358,2.6999141356403538,-0.9341713200752448,63.366999999969266
312479.0877,-1.1734909364915942,1.8136314719661284,2.4324510526049723,0.15372475295269825,63.367999999958556
312479.0887,-0.06412497891276435,3.330603956385056,2.003444192057444,1.3023417481365958,63.369000000006054
312479.0897,1.0849894321122406,4.843939450448912,1.4330961522144374,2.4734402295920037,63.36999999999534
312479.0907,2.2363885823103598,6.287706366233679,0.7370196610983044,3.618407735838719,63.37099999998463
312479.0917,3.3463649825029824,7.593147177144967,-0.07098965385111694,4.683426241908293,63.37199999997392
312479.0927,4.3704594570391855,8.695002411633165,-0.9754608875324474,5.615483264189983,63.37299999996321
312479.0937,5.269234398498678,9.537884899904546,-1.9555768546999273,6.368583418894974,63.37400000001071
312479.0947,6.013667199048109,10.082046967485438,-2.981898114564189,6.9094843838056885,63.375
312479.0957,6.589532856658756,10.307927129115109,-4.014023465708823,7.222317586881042,63.37599999998929
312479.0967,7.0002410770047465,10.218969383280829,-4.99963400013959,7.311556522120292,63.37699999997858
312479.0977,7.26774667792831,9.84236761076018,-5.875220539887366,7.202954695284883,63.37799999996787
312479.0987,7.43134778194373,9.22758467583774,-6.568608944121516,6.942275434470674,63.37899999995716
312479.0997,7.5444048406049875,8.442711582184137,-7.003193339854611,6.591857547990505,63.38000000000466
312479.1007,7.669233210844439,7.568945394059485,-7.1035849920492335,6.2252821608212034,63.380999999993946
312479.1017,7.87062072859809,6.693654586628183,-6.8022055730877895,5.920604954977631,63.381999999983236
312479.1027,8.208579303430842,5.902648133988192,-6.046217227945962,5.752774459258906,63.382999999972526
312479.1037,8.731039671181522,5.272355054306827,-4.8041032359613745,5.785954983481294,63.383999999961816
312479.1047,9.467230279412563,4.862644846014616,-3.0712018179313785,6.066501895124924,63.38500000000931
312479.1057,10.422440635657193,4.710973224906027,-0.8735546902210313,6.617293485007775,63.3859999999986
312479.1067,11.57475916977742,4.828425516810653,1.730442683553918,7.4340110220511635,63.38699999998789
312479.1077,12.87420541689638,5.198062102050168,4.650921195625081,8.48378688522052,63.38799999997718
312479.1087,14.244461699665717,5.775762035852715,7.77006025660041,9.706425825100155,63.38899999996647
312479.1097,15.587170494355949,6.493531941550943,10.9481244246432,11.01816667364497,63.38999999995576
312479.1107,16.788522836430584,7.265019136305635,14.031651214084052,12.31771374971156,63.39100000000326
312479.1117,17.727643340907658,7.992762350238023,16.863217243692674,13.494051521234386,63.39199999999255
312479.1127,18.286099713605033,8.576549904910413,19.292046829171433,14.435383471613196,63.39299999998184
312479.1137,18.357746169168053,8.922149427300422,21.184626770446958,15.038423239715522,63.39399999997113
312479.1147,17.85806258120575,8.949635228950145,22.43446391080369,15.217223986824653,63.39499999996042
312479.1157,16.732179450112792,8.600573079797508,22.970171768197257,14.91076491655693,63.396000000007916
312479.1167,14.960880731762533,7.843424166036741,22.76119571416486,14.088619138776831,63.396999999997206
312479.1177,12.564043134399206,6.676690962517211,21.820672473307663,12.754194965811992,63.397999999986496
312479.1187,9.60118649401715,5.129532420136284,20.2051528522101,10.94525765220843,63.398999999975786
312479.1197,6.16905547661253,3.259804993139968,18.011175838670113,8.73168047177742,63.399999999965075
312479.1207,2.396405572268649,1.1497180605318922,15.36894426506592,6.210620257237607,63.40100000001257
312479.1217,-1.5635970247245945,-1.1004945321685276,12.43359346802588,3.4995401127840298,63.40200000000186
312479.1227,-5.542753090526441,-3.380310663347074,9.374743018516364,0.727689763875686,63.40299999999115
312479.1237,-9.368233688867225,-5.577368167090249,6.365159758470716,-1.973215421173936,63.40399999998044
312479.1247,-12.87318210906821,-7.5858755789389045,3.5694257557522975,-4.478314186611985,63.40499999996973
312479.1257,-15.906686683641523,-9.314252250877052,1.133491801588427,-6.678128174065875,63.40599999995902
312479.1267,-18.34236952925859,-10.691349082651561,-0.8240926087502397,-8.485595292773887,63.40700000000652
312479.1277,-20.084974762611683,-11.670744827582478,-2.21863950885449,-9.841052328639856,63.40799999999581
312479.1287,-21.074530087020403,-12.232801659478355,-3.003050220598999,-10.714809608666226,63.4089999999851
312479.1297,-21.28787921203782,-12.384378926222679,-3.1686317647852826,-11.107188459380025,63.40999999997439
312479.1307,-20.737617835468587,-12.156324861697172,-2.743077343118899,-11.046127874564641,63.41099999996368
312479.1317,-19.468690547218685,-11.599071215078522,-1.785927598991447,-10.582687673552588,63.412000000011176
312479.1327,-17.55309900846168,-10.776825718116713,-0.38203558958183903,-9.784960543645369,63.413000000000466
312479.1337,-15.08331547051642,-9.760976066914946,1.3662889772864801,-8.73103741718637,63.413999999989755
312479.1347,-12.16507750501536,-8.62337578457337,3.3476949636260307,-7.5017376324314355,63.414999999979045
312479.1357,-8.910253303273727,-7.430172241717152,5.449991181129467,-6.173811699218603,63.415999999968335
312479.1367,-5.430412421033386,-6.236762102249975,7.567422024911781,-4.814251606266161,63.416999999957625
312479.1377,-1.8316214212270232,-5.084327744160192,9.606432932990854,-3.4762096022804356,63.41800000000512
312479.1387,1.7891795456077502,-3.9982335077102125,11.489521180777585,-2.196845323830698,63.41899999999441
312479.1397,5.346057031331498,-2.9883608140536833,13.156981341960208,-0.9972116139958068,63.4199999999837
312479.1407,8.76426315256753,-2.0512565085395544,14.5665807539344,0.1159273680572936,63.42099999997299
312479.1417,11.978947485443621,-1.1737798079452957,15.691415824247654,1.1466542850732273,63.42199999996228
312479.1427,14.93279821099709,-0.33777889020758717,16.51638354871532,2.1053088481936526,63.42300000000978
312479.1437,17.57312291781271,0.4747761582784237,17.033836074923435,3.0033417895546903,63.42399999999907
312479.1447,19.848934456935794,1.2768212977084128,17.2390565617064,3.8482571382104105,63.42499999998836
312479.1457,21.708597499130853,2.0719840129934135,17.126195389881893,4.639272245231042,63.42599999997765
312479.1467,23.098518080151422,2.851639897428589,16.685237456842348,5.364243618750734,63.42699999996694
312479.1477,23.963229089849175,3.5936169582430098,15.900441313095174,5.9982673581176815,63.42799999995623
312479.1487,24.24705280245778,4.2627472510950275,14.75051298098732,6.504180017267938,63.429000000003725
312479.1497,23.89732504416249,4.813266318740054,13.210569995040572,6.834977679788408,63.429999999993015
312479.1507,22.868965004972196,5.192859833591241,11.255736065728565,6.93795904256335,63.430999999982305
312479.1517,21.12999119609579,5.347974259390621,8.866006162082629,6.76020398294837,63.431999999971595
312479.1527,18.66743729548197,5.22986291367886,6.03185667839284,6.2548423311056816,63.432999999960884
312479.1537,15.49302778509127,4.800745557191306,2.7599631187374216,5.387464611263429,63.43400000000838
312479.1547,11.647943395395702,4.039428450250299,-0.9216594466027467,4.141988281562406,63.43499999999767
312479.1557,7.206045178585448,2.9457664580243526,-4.959754361096656,2.525324023349829,63.43599999998696
312479.1567,2.275031455887784,1.543446487977106,-9.273728145507427,0.5702845746609898,63.43699999997625
