TimeStamp,ECR,FCR,ECU,FCU,time_index
312421.7197,15.376346932403932,3.098180218473873,9.088819658467335,6.189985119018623,6.0
312421.7207,13.489623637605701,2.085476889164068,7.508271311791717,4.7426412551498585,6.00099999998929
312421.7217,11.219394580796026,0.9371634424170292,5.65183166574316,3.082483323154784,6.00199999997858
312421.7227,8.672628942445126,-0.27329874714597996,3.619390845735935,1.2974301461946904,6.002999999967869
312421.7237,5.960430534056651,-1.4738337890678146,1.5141910763491753,-0.524303802489442,6.003999999957159
312421.7247,3.189690740368575,-2.600396905174967,-0.5654622374787069,-2.301444707297837,6.005000000004657
312421.7257,0.4557745454596038,-3.6025153219744,-2.5334973031429753,-3.9658237260458735,6.005999999993946
312421.7267,-2.163139295613306,-4.447198482432819,-4.321752322145492,-5.466909857758498,6.006999999983236
312421.7277,-4.609619483761584,-5.120862682830245,-5.883578697104378,-6.774324078651467,6.007999999972526
312421.7287,-6.848216743059993,-5.629120395725824,-7.195134146274538,-7.878156122913974,6.008999999961816
312421.7297,-8.86437847217499,-5.994503320405694,-8.254363379754214,-8.787129602464839,6.010000000009313
312421.7307,-10.661280366222105,-6.25239880396718,-9.077894027221314,-9.524878805249362,6.010999999998603
312421.7317,-12.255014886999492,-6.445660722890499,-9.69627836673484,-10.124789858929262,6.011999999987893
312421.7327,-13.668732579128598,-6.618490127657706,-10.148167287058333,-10.624001205965309,6.012999999977183
312421.7337,-14.926426445587548,-6.8102545373211125,-10.474096792624362,-11.057239407246051,6.013999999966472
312421.7347,-16.04707302868525,-7.049920344347105,-10.710590432659002,-11.451178158600628,6.014999999955762
312421.7357,-17.03979462211595,-7.351709718747793,-10.885231584007986,-11.819949931597595,6.01600000000326
312421.7367,-17.900590478404357,-7.712467872792534,-11.013243049322282,-12.162316699957389,6.016999999992549
312421.7377,-18.611012934720403,-8.111050975564373,-11.095940126084766,-12.460831077651532,6.017999999981839
312421.7387,-19.138954483080582,-8.509836813361408,-11.12121478915366,-12.683109390233719,6.018999999971129
312421.7397,-19.44148512352614,-8.858240201883966,-11.065984243407627,-12.78511474405098,6.019999999960419
312421.7407,-19.469458675373133,-9.09790515539116,-10.900319760231259,-12.71613349390034,6.021000000007916
312421.7417,-19.173414290231758,-9.169066984105475,-10.592783634613916,-12.424944292560989,6.021999999997206
312421.7427,-18.510154615525735,-9.0174479056916,-10.116362605496093,-11.866543850956397,6.022999999986496
312421.7437,-17.449299576193493,-8.600982706661163,-9.454309653674233,-11.00872155867162,6.023999999975786
312421.7447,-15.979103067610932,-7.895673636028064,-8.605200924388331,-9.837773927034894,6.024999999965075
312421.7457,-14.110880443632858,-6.899946359989489,-7.586581688966599,-8.36272015237125,6.026000000012573
312421.7467,-11.881521811998766,-5.637014841759026,-6.436708581873557,-6.61751560240819,6.027000000001863
312421.7477,-9.353747457435771,-4.154949533961731,-5.2140819804962115,-4.660947865869646,6.027999999991152
312421.7487,-6.613979427503787,-2.5243623381394684,-3.9946840720069283,-2.57412209071528,6.028999999980442
312421.7497,-3.7679360013230814,-0.8338521570936686,-2.8670729828654036,-0.4556771025215034,6.029999999969732
312421.7507,-0.9342804349305127,0.8164259177862596,-1.925707964290203,1.5849017026658867,6.030999999959022
312421.7517,1.7631502145656246,2.322518156064239,-1.2630724935141469,3.4353145278143913,6.032000000006519
312421.7527,4.2038655608695725,3.5850712727900755,-0.9613017893827289,4.989125437419341,6.032999999995809
312421.7537,6.279240262462872,4.5176167616121905,-1.0840941739753762,6.154312411870928,6.033999999985099
312421.7547,7.900270367550089,5.053984834409515,-1.6696839113824553,6.8609128321573545,6.034999999974389
312421.7557,9.0038724620799,5.15416497949819,-2.7255758636078644,7.067059947319113,6.035999999963678
312421.7567,9.557162363784949,4.8080680975125905,-4.225596144950831,6.7628452869661455,6.037000000011176
312421.7577,9.559336393989133,4.0368353473187115,-6.109611318172674,5.971635844237106,6.038000000000466
312421.7587,9.041000800247174,2.891563087916422,-8.286030431030198,4.7487048227678255,6.0389999999897555
312421.7597,8.061032007621222,1.4495501792915715,-10.636951877714042,3.1772789395671244,6.039999999979045
312421.7607,6.7012789356093325,-0.1915992712114905,-13.025574705990325,1.3623404252129963,6.040999999968335
312421.7617,5.059616384271761,-1.9214895482537033,-15.305284747867239,-0.5772744598468021,6.041999999957625
312421.7627,3.2420062745634133,-3.625390433982621,-17.329669897750506,-2.517785761180841,6.043000000005122
312421.7637,1.3543070740945624,-5.192884128287977,-18.962631009168707,-4.339606920596708,6.043999999994412
312421.7647,-0.5054168611761524,-6.5259390836135855,-20.087743720090636,-5.935912576376653,6.044999999983702
312421.7657,-2.253395851073731,-7.545710615838645,-20.61609318692479,-7.219901681848822,6.045999999972992
312421.7667,-3.824903317754834,-8.1974964842274,-20.49194188218646,-8.130149695882908,6.046999999962281
312421.7677,-5.176871846792675,-8.453456773793688,-19.695787113467215,-8.6336285516813,6.048000000009779
312421.7687,-6.288213999768585,-8.312923546672897,-18.24460100804103,-8.72619585401025,6.048999999999069
312421.7697,-7.157916267138848,-7.800355740193023,-16.189298895132048,-8.430593706138321,6.0499999999883585
312421.7707,-7.801196830922171,-6.961216337563899,-13.609728273976899,-7.79222968343989,6.050999999977648
312421.7717,-8.244209123955862,-5.856240542244909,-10.607686633790266,-6.873215493449488,6.051999999966938
312421.7727,-8.51791466224104,-4.554707213029994,-7.298642081227006,-5.74529348063783,6.052999999956228
312421.7737,-8.65182638631613,-3.127407648195825,-3.8029308009553837,-4.482372847765837,6.054000000003725
312421.7747,-8.668330193990869,-1.6400185444739455,-0.2372310206076389,-3.153417972168524,6.054999999993015
312421.7757,-8.578226951818133,-0.14752900709536848,3.2929371946753423,-1.8163791668639482,6.055999999982305
312421.7767,-8.378006601609146,1.309748916524442,6.699057558673459,-0.5137374110583024,6.056999999971595
312421.7777,-8.049183033573815,2.7082281547636278,9.913358118659357,0.7299388413044872,6.0579999999608845
312421.7787,-7.559801334859986,4.041000110619793,12.890214317936978,1.9082372229947695,6.059000000008382
312421.7797,-6.867999366526733,5.315759187651125,15.605218286724,3.030984565465156,6.059999999997672
312421.7807,-5.927286160910007,6.550973549322976,18.052149135906546,4.120429231147501,6.0609999999869615
312421.7817,-4.693012189700683,7.770757755109925,20.23828248941496,5.20597490147074,6.061999999976251
312421.7827,-3.1293698648947235,8.999036248059197,22.178633751324234,6.318063866149504,6.062999999965541
312421.7837,-1.216190517837375,10.253659823840863,23.889823831232132,7.481892755727195,6.0640000000130385
312421.7847,1.0451958904040983,11.541143095490126,25.384279602499305,8.711659520013514,6.065000000002328
312421.7857,3.627699391895397,12.85262913630758,26.665432590997337,10.005985964462052,6.065999999991618
312421.7867,6.4763291935444665,14.161564164659783,27.724463746846325,11.345040910410576,6.066999999980908
312421.7877,9.508503610353998,15.423392602722071,28.53897163647115,12.689716980958664,6.067999999970198
312421.7887,12.616913879306665,16.577378198273916,29.073733338292417,13.983006225342951,6.0689999999594875
312421.7897,15.674804505744495,17.550440388546377,29.28350267844017,15.15349684472164,6.070000000006985
312421.7907,18.543301893635203,18.26268810634856,29.117571702191057,16.120697186482076,6.070999999996275
312421.7917,21.080223838006912,18.634156238295756,28.52563029023678,16.801705243670543,6.0719999999855645
312421.7927,23.14965418975277,18.592120458353534,27.464314658446362,17.118600655764403,6.072999999974854
312421.7937,24.63148399652042,18.07829704066728,25.903752542498047,17.00585558850797,6.073999999964144
312421.7947,25.430110828536407,17.055232460789878,23.833399531250258,16.417048856396335,6.0750000000116415
312421.7957,25.481552969797878,15.511253497016193,21.266518775424675,15.330225501046357,6.076000000000931
312421.7967,24.758368737998648,13.463475898525486,18.24277964878273,13.751366172504698,6.076999999990221
312421.7977,23.271960897576417,10.958546243988408,14.828627890893559,11.715605213063633,6.077999999979511
312421.7987,21.072074122040526,8.07100031762838,11.115293025639946,9.286046331766237,6.078999999968801
312421.7997,18.24353830323984,4.899341989308736,7.214527531924961,6.550249752282864,6.0799999999580905
312421.8007,14.900549211232633,1.560157853818507,3.2523938891077635,3.614682846063097,6.081000000005588
312421.8017,11.178988266207668,-1.8192356519464503,-0.638391576469233,0.5976163607168058,6.081999999994878
312421.8027,7.227445500519949,-5.108981760136763,-4.326904170986216,-2.378907965646762,6.0829999999841675
312421.8037,3.1977093590387575,-8.185004575242605,-7.692509030541559,-5.197329157723653,6.083999999973457
312421.8047,-0.764484901633343,-10.936750077415907,-10.632663184198876,-7.752313531155897,6.084999999962747
312421.8057,-4.527701608747798,-13.273695557042865,-13.069332267136398,-9.957325365852567,6.0860000000102445
312421.8067,-7.981412451197751,-15.130097921417855,-14.953458545432975,-11.749468783276345,6.086999999999534
312421.8077,-11.040501748926236,-16.467622255275888,-16.26709691144064,-13.092217499044784,6.087999999988824
312421.8087,-13.64741415865289,-17.275695181701856,-17.023052212575585,-13.975853819775388,6.088999999978114
312421.8097,-15.771917280213648,-17.569642974384653,-17.262083683673556,-14.415657831383447,6.089999999967404
312421.8107,-17.40867562103711,-17.386880930942063,-17.04796782754505,-14.448100615888361,6.0909999999566935
312421.8117,-18.57303122474282,-16.78159812328204,-16.460907966170165,-14.125480731044954,6.092000000004191
312421.8127,-19.295541050487554,-15.81851314467186,-15.589927813873013,-13.509583101102406,6.092999999993481
312421.8137,-19.615917502108193,-14.566349362448594,-14.524973426752059,-12.665020485387895,6.0939999999827705
312421.8147,-19.57704784730511,-13.091685804934832,-13.349464463297988,-11.652932287847982,6.09499999997206
312421.8157,-19.219728821749396,-11.453781999060034,-12.13398044427779,-10.525662726981654,6.09599999996135
312421.8167,-18.578649484935777,-9.700858155155078,-10.931646247483515,-9.32292605898292,6.097000000008848
312421.8177,-17.679999669650535,-7.868148228241891,-9.775605512244296,-8.069802477479708,6.097999999998137
312421.8187,-16.54088956202305,-5.977849344839142,-8.678758347114993,-6.776711232284437,6.098999999987427
312421.8197,-15.170557962596616,-4.040886581185868,-7.635711705330909,-5.441297368059793,6.099999999976717
312421.8207,-13.573144004584762,-2.0602177972372027,-6.626669519367485,-4.051966467683334,6.100999999966007
312421.8217,-11.751620306411652,-0.03523877606024308,-5.622796992194987,-2.592628213810222,6.1019999999552965
312421.8227,-9.712352785059197,2.0332691246600136,-4.592448329117726,-1.048081898062019,6.103000000002794
312421.8237,-7.469677248956658,4.1382663068571786,-3.5075639675885486,0.5905919463662488,6.103999999992084
312421.8247,-5.049873194155331,6.262270023297555,-2.3495302252932175,2.3212728573069112,6.1049999999813735
312421.8257,-2.4939721206861725,8.374401179050666,-1.1138525227585925,4.127250876833731,6.105999999970663
312421.8267,0.14104437289434207,10.42908062598052,0.1868828238422867,5.97533941296651,6.106999999959953
312421.8277,2.782934185678908,12.366621686809225,1.522106065586856,7.815933145853327,6.108000000007451
312421.8287,5.346849609205868,14.115766716330675,2.8445556096172346,9.585092023624732,6.10899999999674
312421.8297,7.739822807692759,15.598008540867983,4.093671010136803,11.20852002393923,6.10999999998603
312421.8307,9.866743919215065,16.7333433661588,5.200775047099735,12.607105436528974,6.11099999997532
312421.8317,11.63732043638373,17.44693983175562,6.09554290777075,13.703518276200722,6.11199999996461
312421.8327,12.973381035756926,17.67609587592805,6.7131157687235765,14.429237467560544,6.113000000012107
312421.8337,13.815822842970649,17.37680281093462,7.001138575871314,14.731318406378275,6.114000000001397
312421.8347,14.130505709829544,16.529250447920493,6.925995616601352,14.578217225265927,6.114999999990687
312421.8357,13.912471166289286,15.14168768771888,6.477583649486545,13.96406176890254,6.115999999979977
312421.8367,13.188001156395075,13.252192636653506,5.672094853301973,12.91089442135719,6.116999999969266
312421.8377,12.014220019960103,10.928092087876376,4.552468071987253,11.468595935456179,6.117999999958556
312421.8387,10.476164846845588,8.26298457459046,3.1863888219029946,9.712414804289375,6.119000000006054
312421.8397,8.68148325866046,5.371543659657973,1.6619547571217212,7.738252787262921,6.119999999995343
312421.8407,6.753141394581003,2.3824872339945977,0.08135073486583515,5.656072053147463,6.120999999984633
312421.8417,4.820716692556542,-0.5697259476739517,-1.4469259691153216,3.5819720610982286,6.121999999973923
312421.8427,3.0109911553282283,-3.353786630204814,-2.81660368124658,1.6296167926326413,6.122999999963213
312421.8437,1.4386371082486948,-5.850264987648412,-3.9321697081586686,-0.09823793172217068,6.12400000001071
312421.8447,0.1977910714298865,-7.959440773283659,-4.716622910080006,-1.5173686859073119,6.125
312421.8457,-0.6447586925868275,-9.607571386965072,-5.117735103027497,-2.568184020481438,6.12599999998929
312421.8467,-1.054183032647091,-10.751074576671988,-5.112244692404688,-3.2197595856797956,6.12699999997858
312421.8477,-1.0296258440641064,-11.378290403036077,-4.70759496637199,-3.471456789919114,6.127999999967869
312421.8487,-0.6034554081752785,-11.508706067724635,-3.9410556692517416,-3.3519943538542463,6.128999999957159
312421.8497,0.16216736889409825,-11.1897563902653,-2.8763081364633467,-2.9160759090714823,6.130000000004657
312421.8507,1.1810866481465843,-10.491530275639125,-1.5978082206311774,-2.2389006261286117,6.130999999993946
312421.8517,2.3507902393804776,-9.499898747184625,-0.2034450706060259,-1.4090763085239382,6.131999999983236
312421.8527,3.5612053994266666,-8.308715480634076,1.203831897071962,-0.5205970665510932,6.132999999972526
312421.8537,4.703873462418954,-7.011813580454282,2.524655355610079,0.3353729669934745,6.133999999961816
312421.8547,5.680702646973949,-5.695525992698696,3.6713715988611684,1.0781597962744394,6.135000000009313
312421.8557,6.411550106819332,-4.4323915709894806,4.574937152414112,1.6439961446536353,6.135999999998603
312421.8567,6.840004465895235,-3.2765812136048837,5.189980311356247,1.9906345011219375,6.136999999987893
312421.8577,6.936916647070781,-2.261401482098743,5.497606879236514,2.099776367350911,6.137999999977183
312421.8587,6.701442392624411,-1.3990242392581675,5.505746628205521,1.9771516559833058,6.138999999966472
312421.8597,6.159593518018791,-0.6823706525937481,5.247070865544134,1.6503099653382902,6.139999999955762
312421.8607,5.3605241394787395,-0.08886793091371709,4.774739339215177,1.1644046137525483,6.14100000000326
312421.8617,4.370981037992484,0.4143821908769322,4.156434678051446,0.5764396340328184,6.141999999992549
312421.8627,3.268504920334189,0.8646156219928939,3.4672956632094407,-0.051408798010391867,6.142999999981839
312421.8637,2.134067181294718,1.2972621022021111,2.782452598491748,-0.6587052143162745,6.143999999971129
312421.8647,1.0448564144855077,1.7403127218825387,2.169890678561737,-1.1931996877244306,6.144999999960419
312421.8657,0.06788867201470056,2.209803107971068,1.684319147008135,-1.6161607174176869,6.146000000007916
312421.8667,-0.7449894924499753,2.706893316089696,1.3626106895511432,-1.9060737590383887,6.146999999997206
312421.8677,-1.3602943820133748,3.216854411643697,1.2212087366238045,-2.0603552858565997,6.147999999986496
312421.8687,-1.7640789960636658,3.7100701072474442,1.255697094825234,-2.0949380172123546,6.148999999975786
312421.8697,-1.961082986797314,4.144949831266463,1.4425069715304817,-2.0418016174880886,6.149999999965075
312421.8707,-1.9720611382925137,4.472448405800172,1.7425228156906656,-1.9447330103826979,6.151000000012573
312421.8717,-1.8296740116071546,4.641717201112201,2.1061615722239746,-1.8537806556249814,6.152000000001863
312421.8727,-1.5734621176535384,4.606289241399317,2.4793582580297637,-1.8189998540354193,6.152999999991152
312421.8737,-1.2445057222787506,4.330138569524616,2.8098079632159,-1.8841582554969591,6.153999999980442
312421.8747,-0.8803885506130884,3.792958600276858,3.052798299374057,-2.081075121336843,6.154999999969732
312421.8757,-0.5110342227709337,2.9940749924078274,3.1760181285849853,-2.4252041206700015,6.155999999959022
312421.8767,-0.15587486924817573,1.9545389727271572,3.162842517447772,-2.912943849652636,6.157000000006519
312421.8777,0.17734622643272543,0.7171243604111734,3.013758477109689,-3.5209853123991057,6.157999999995809
312421.8787,0.4920253023223474,-0.65584160497345,2.745794361533094,-4.207798659435976,6.158999999985099
312421.8797,0.800490394363464,-2.086667488872321,2.390027646162549,-4.917143113653012,6.159999999974389
312421.8807,1.1204151248878824,-3.488156921724349,1.9874497022888322,-5.5832759737902675,6.160999999963678
312421.8817,1.4702960687529745,-4.770616402297234,1.5836414213516958,-6.1373596561137544,6.162000000011176
312421.8827,1.8645512324690843,-5.849368221201415,1.222842288125855,-6.5144376821921846,6.163000000000466
312421.8837,2.3088534447988747,-6.652065025629344,0.9420645469952166,-6.660284330786386,6.1639999999897555
312421.8847,2.7963029713008183,-7.125110671021717,0.7659062012326463,-6.537435256543165,6.164999999979045
312421.8857,3.304968561589754,-7.238567943146103,0.7026511690671345,-6.129777876177449,6.165999999968335
312421.8867,3.797192253225499,-6.989070461632057,0.7421181907385017,-5.445214067655126,6.166999999957625
312421.8877,4.220873494011459,-6.400440585367618,0.8555444024294553,-4.5160908865813125,6.168000000005122
312421.8887,4.512740230206829,-5.521929701260194,0.9975821931462323,-3.3973098247470572,6.168999999994412
312421.8897,4.603399354376761,-4.4242211684359045,1.1102696330589734,-2.162250682246287,6.169999999983702
312421.8907,4.423758161702121,-3.1935477224876654,1.128627243894192,-0.8968603262965298,6.170999999972992
312421.8917,3.9122429431237866,-1.9244537902483054,0.9873581018230086,0.30756157278827345,6.171999999962281
312421.8927,3.022128058829393,-0.7118615667133664,0.6280021669807629,1.3622162475956048,6.173000000009779
312421.8937,1.728241323017259,0.3568346243695266,0.005832495493918538,2.1885673176127667,6.173999999999069
312421.8947,0.032335560568769905,1.2089246185353593,-0.9042123183713522,2.725280640008668,6.1749999999883585
312421.8957,-2.033488913680659,1.7921405312420524,-2.103188269165581,2.9336857927286735,6.175999999977648
312421.8967,-4.405768033467448,2.07850193558783,-3.5658871004861705,2.8012387844073836,6.176999999966938
312421.8977,-6.991313677664796,2.0659161480866657,-5.240956128005361,2.3426525860444842,6.177999999956228
312421.8987,-9.671521295967262,1.7774155644453489,-7.05347107500207,1.5985818187088088,6.179000000003725
312421.8997,-12.309111427855093,1.2581382358821884,-8.909801936214107,0.6319792653034605,6.179999999993015
312421.9007,-14.756840067143475,0.5703708116925522,-10.704389153790533,-0.4775375011162319,6.180999999982305
312421.9017,-16.86751891621278,-0.21284592966847032,-12.327857973566578,-1.6407824629285581,6.181999999971595
312421.9027,-18.504548624365988,-1.01491686661464,-13.675761399885264,-2.766895183552765,6.1829999999608845
312421.9037,-19.552099887215732,-1.7629954588804324,-14.65717043257945,-3.771292451037603,6.184000000008382
312421.9047,-19.924086141108546,-2.3946858654457728,-15.202331738524148,-4.582933567400083,6.184999999997672
312421.9057,-19.571157688981067,-2.863506738551052,-15.268688051896394,-5.150222654485186,6.1859999999869615
312421.9067,-18.485103380924805,-3.1426070459344735,-14.844698787743516,-5.445003450539211,6.186999999976251
312421.9077,-16.700258781437828,-3.2264008769081727,-13.951094489960022,-5.464286181308312,6.187999999965541
312421.9087,-14.291770081597932,-3.1299961115627926,-12.639430483137192,-5.229564424069239,6.1890000000130385
312421.9097,-11.370828284449885,-2.886510663401775,-10.988050650550914,-4.783811357496546,6.190000000002328
312421.9107,-8.077244377970032,-2.542578328466044,-9.095808435513662,-4.186467060481576,6.190999999991618
312421.9117,-4.569960087104177,-2.1525237608683443,-7.074096637220412,-3.5069201531077376,6.191999999980908
312421.9127,-1.0162601248534548,-1.7718154864484468,-5.037891032128538,-2.817129614413823,6.192999999970198
312421.9137,2.4194447132895727,-1.4504746491651257,-3.0966008535587832,-2.184112390694816,6.1939999999594875
312421.9147,5.5863677844132935,-1.227118800189193,-1.3455335144492402,-1.6630318480761952,6.195000000006985
312421.9157,8.356786681255555,-1.1242545096343557,0.14127950050646626,-1.291560471676065,6.195999999996275
312421.9167,10.633455440643026,-1.1453064907524175,1.3162779541341476,-1.086063606444382,6.1969999999855645
312421.9177,12.354458151104037,-1.273696767324187,2.161157431019107,-1.0399718890833927,6.197999999974854
312421.9187,13.49520371303645,-1.4740823530670288,2.687035428804856,-1.1244958199109059,6.198999999964144
312421.9197,14.06751384189116,-1.6956441056834848,2.9320326259097085,-1.2916075123798205,6.2000000000116415
312421.9207,14.116007170747329,-1.8771140484690891,2.9565386752251333,-1.4789942118441664,6.201000000000931
312421.9217,13.71220850166838,-1.9530536563525442,2.836639667265862,-1.61649704567476,6.201999999990221
312421.9227,12.946993477671896,-1.8607685131607852,2.6563449394298595,-1.6334051095237463,6.202999999979511
312421.9237,11.922099320615741,-1.5471778234191327,2.4993494863418335,-1.4658931814079552,6.203999999968801
312421.9247,10.741481915297438,-0.9749570830122326,2.4410962105650658,-1.0638788452384145,6.2049999999580905
312421.9257,9.50327539998609,-0.12733883556528408,2.541857850640703,-0.39663260154235735,6.206000000005588
312421.9267,8.293016620121684,0.9889166018420806,2.8414468120904743,0.5434031916988418,6.206999999994878
312421.9277,7.178644003819151,2.342693629009098,3.3559939015341183,1.7389560665594512,6.2079999999841675
312421.9287,6.207584822232294,3.8799443960664166,4.077030963349528,3.1485855510935017,6.208999999973457
312421.9297,5.406026474421196,5.527252992503419,4.972888049248992,4.709600794286397,6.209999999962747
312421.9307,4.780248326152987,7.197224969394879,5.992194975333098,6.34295162284312,6.2110000000102445
312421.9317,4.319692377939361,8.795210354172196,7.069081302618141,7.9596221103096685,6.211999999999534
312421.9327,4.001292859636942,10.226739884415611,8.129516602297718,9.46791364201117,6.212999999988824
312421.9337,3.794481672915432,11.404985860556453,9.098138541207563,10.780922797810131,6.213999999978114
312421.9347,3.6662476253434493,12.257557443353141,9.904888216800957,11.82350589812748,6.214999999967404
312421.9357,3.5856552289113575,12.732005519987753,10.490812048715178,12.538077818608706,6.2159999999566935
312421.9367,3.5273192904871356,12.79953801196778,10.812492434611121,12.888711938984109,6.217000000004191
312421.9377,3.473474106048028,12.456620365439283,10.844724156120106,12.863178902766101,6.217999999993481
312421.9387,3.4144550730812684,11.724340911025491,10.581243991149018,12.472767246459721,6.2189999999827705
312421.9397,3.347606642403148,10.645636729118804,10.033527557555772,11.74994857224055,6.21999999997206
312421.9407,3.2748227907423986,9.280681458579936,9.227869034162987,10.74416209018378,6.22099999996135
312421.9417,3.19909414256453,7.700911991226654,8.201135668994999,9.51617711917074,6.222000000008848
312421.9427,3.1205615912679994,5.982299022291238,6.995722137456054,8.13162940556455,6.222999999998137
312421.9437,3.032646218897061,4.198534454949487,5.654306508030248,6.6544043879223596,6.223999999987427
312421.9447,2.9188316840733637,2.4148100481633823,4.215022186872935,5.140550217953981,6.224999999976717
312421.9457,2.750616779874404,0.6827963577669154,2.7076076001104337,3.633344524449445,6.225999999966007
312421.9467,2.4870379948210095,-0.9626945811005928,1.1509829840761785,2.1600174238515293,6.2269999999552965
312421.9477,2.0759962598976904,-2.5050528405286587,-0.4474569968464571,0.7304611825184172,6.228000000002794
312421.9487,1.4574252944822923,-3.9451146436385263,-2.0907385520608366,-0.6619487108531296,6.228999999992084
312421.9497,0.5681311298008429,-5.298415757600292,-3.789500264807647,-2.037515077559984,6.2299999999813735
312421.9507,-0.6520650596438524,-6.590767085498116,-5.557784566617462,-3.425667330435136,6.230999999970663
312421.9517,-2.2534150545957474,-7.852638259716823,-7.407899087770921,-4.859181156503708,6.231999999959953
312421.9527,-4.269214298330752,-9.112959738549652,-9.344937000950988,-6.367787021524674,6.233000000007451
312421.9537,-6.70936222138687,-10.39301781761237,-11.361604820258695,-7.971856485151153,6.23399999999674
312421.9547,-9.555205255956887,-11.70111351197427,-13.433998540622552,-9.676858212371522,6.23499999998603
312421.9557,-12.7562720542414,-13.028585486538764,-15.518894115767473,-11.469209065988691,6.23599999997532
312421.9567,-16.22936379209679,-14.347665784267646,-17.552982452190914,-13.314015872390753,6.23699999996461
312421.9577,-19.860265597887153,-15.611457687706178,-19.45429491229086,-15.155022727178638,6.238000000012107
312421.9587,-23.508116074946354,-16.756115073832017,-21.12585035088261,-16.91686446418979,6.239000000001397
312421.9597,-27.012231956732833,-17.70508257468184,-22.46132985359175,-18.509499932409977,6.239999999990687
312421.9607,-30.200956852800466,-18.37504728978338,-23.35237278766629,-19.834481132980766,6.240999999979977
312421.9617,-32.90190865056494,-18.683076220835957,-23.696908810251234,-20.792527368686656,6.241999999969266
312421.9627,-34.952858279272704,-18.554286471209533,-23.407813401806298,-21.291735757194235,6.242999999958556
312421.9637,-36.212397229873105,-17.92933026262751,-22.42111276714353,-21.255684461024288,6.244000000006054
312421.9647,-36.5695502549816,-16.770980641250404,-20.702974832271618,-20.63068044711622,6.244999999995343
312421.9657,-35.95156385161815,-15.069176366177619,-18.254806839962182,-19.39147035503247,6.245999999984633
312421.9667,-34.32924416647478,-12.844019193355681,-15.115929911873655,-17.544865070736375,6.246999999973923
312421.9677,-31.719417060808492,-10.146400836220048,-11.363503621452189,-15.130913492433734,6.247999999963213
312421.9687,-28.184320137785193,-7.0561527373225355,-7.109610587074063,-12.22148122507427,6.24900000001071
312421.9697,-23.827989909919605,-3.6778387535276242,-2.4956603398551125,-8.916324603461053,6.25
312421.9707,-18.789953809696996,-0.13452717817368157,2.3154901414591618,-5.336977167084766,6.25099999998929
312421.9717,-13.236753973549876,3.4399365414128935,7.149097313569699,-1.6189629002172679,6.25199999997858
312421.9727,-7.351998053325643,6.909499179663646,11.829019995479154,2.0970005307023025,6.252999999967869
312421.9737,-1.325736824498524,10.144580153931848,16.188299060890767,5.67405873520723,6.253999999957159
312421.9747,4.6559997426055455,13.030127042159625,20.078982383063032,8.987771757303559,6.255000000004657
312421.9757,10.420718908694692,15.472374518361887,23.380417881995637,11.933448880914623,6.255999999993946
312421.9767,15.817357057611297,17.403762005599603,26.00537611620878,14.431677929139886,6.256999999983236
312421.9777,20.722039763288358,18.785642506354797,27.903559615958937,16.43163523766803,6.257999999972526
312421.9787,25.041413206494084,19.608625049454552,29.062290557760612,17.911974547735127,6.258999999961816
312421.9797,28.713480625729062,19.890615489687974,29.50441925733573,18.879321165435766,6.260000000009313
312421.9807,31.7061056990366,19.672833377203577,29.28373962078385,19.364619707658974,6.260999999998603
312421.9817,34.0135488507675,19.014265630747506,28.478411233711864,19.41777813649788,6.261999999987893
312421.9827,35.65156328552418,17.985153164205077,27.183051276383583,19.10119891237966,6.262999999977183
312421.9837,36.6516803981475,16.660181533933997,25.50025794320828,18.482875940829697,6.263999999966472
312421.9847,37.055350332600085,15.112054208146374,23.53235189170502,17.629755521770253,6.264999999955762
312421.9857,36.908570836717125,13.406067007264744,21.374071998340188,16.602009490889127,6.26600000000326
312421.9867,36.25754104405756,11.59618112515977,19.106842188680524,15.448754821291645,6.266999999992549
312421.9877,35.14572762441136,9.722922468774701,16.795049849085004,14.20558810249715,6.267999999981839
312421.9887,33.612545289322924,7.813234206374794,14.484561252353316,12.89410262508438,6.268999999971129
312421.9897,31.693651839738145,5.882197828786658,12.203467116686479,11.523340775876871,6.269999999960419
312421.9907,29.42266120649047,3.9363371819247552,9.96482494908998,10.092926955647043,6.271000000007916
312421.9917,26.83390698083504,1.9780502015550627,7.770966516746422,8.597447312430592,6.271999999997206
312421.9927,23.965761695920467,0.010591717478097496,5.618788001280093,7.031510358983845,6.272999999986496
312421.9937,20.863946935256276,-1.9570299197088121,3.5053516316010245,5.394850399915491,6.273999999975786
312421.9947,17.58426359770152,-3.905873215547607,1.4331091179053754,3.6968309489868005,6.274999999965075
312421.9957,14.194231033807613,-5.804158736540849,-0.5858897580171227,1.9597684831133904,6.276000000012573
312421.9967,10.773242215824082,-7.606064541185445,-2.527321406871103,0.22062161214909776,6.277000000001863
312421.9977,7.411007392539386,-9.252468548300529,-4.353791736598978,-1.4692355306379359,6.277999999991152
312421.9987,4.204253670700167,-10.673677474164007,-6.0160573317841655,-3.0462317053451287,6.278999999980442
312421.9997,1.2518523271481998,-11.793967306219075,-7.456181606159006,-4.438668992886694,6.279999999969732
312422.0007,-1.351262077649096,-12.537559717787392,-8.612329428062763,-5.572300899979147,6.280999999959022
312422.0017,-3.520856977492421,-12.835492772755488,-9.424719918120385,-6.376901477759558,6.282000000006519
312422.0027,-5.190217783047404,-12.63272982014928,-9.842121774232366,-6.793186464868746,6.282999999995809
312422.0037,-6.316333310272283,-11.894799717078335,-9.828202405104154,-6.779388043005403,6.283999999985099
312422.0047,-6.884790416829251,-10.61328029259814,-9.367038959418275,-6.3167949652247914,6.284999999974389
312422.0057,-6.9128066661422025,-8.809524286506816,-8.46716668209891,-5.413649384225155,6.285999999963678
312422.0067,-6.449979534706084,-6.536175112656241,-7.163671559442872,-4.106933569159824,6.287000000011176
312422.0077,-5.5765274547703845,-3.8762149253063325,-5.518017197113012,-2.4617705312493583,6.288000000000466
312422.0087,-4.399023420066113,-0.9395111338831279,-3.615512450362373,-0.5683841270909785,6.2889999999897555
312422.0097,-3.0438544755355417,2.142941657528438,-1.5605552709515127,1.4632049252125598,6.289999999979045
312422.0107,-1.6488576786518867,5.226671502654979,0.5299929485272671,3.5103529450788535,6.290999999968335
312422.0117,-0.3537637952485752,8.162678027667203,2.5347611253916202,5.446259613720569,6.291999999957625
312422.0127,0.7097938762252732,10.806961042073807,4.336471992055668,7.149018374037376,6.293000000005122
312422.0137,1.4278894387801542,13.029848514400465,5.830443908898522,8.510477168954088,6.293999999994412
312422.0147,1.712732168751427,14.724354352153359,6.932237688103178,9.444142574224381,6.294999999983702
312422.0157,1.5091997804930768,15.812878116971824,7.5837650414502935,9.891439097901419,6.295999999972992
312422.0167,0.7989192591121522,16.25170380320269,7.7573104691421575,9.8257788557044,6.296999999962281
312422.0177,-0.3984562463003239,16.032949442906425,7.457106107428344,9.254091542332448,6.298000000009779
312422.0187,-2.026886409206389,15.183845179295737,6.718321368989114,8.21569221694812,6.298999999999069
312422.0197,-3.9983598699549665,13.76345323769878,5.603564915069482,6.77860336223431,6.2999999999883585
312422.0207,-6.199710222068161,11.857166699264114,4.197223076552471,5.033675341051128,6.300999999977648
312422.0217,-8.50125006426521,9.569514183795441,2.598154663995069,3.087044249453525,6.301999999966938
312422.0227,-10.766489880085324,7.015936775566406,0.9114085196836198,1.0516099124054454,6.302999999956228
312422.0237,-12.862123911265716,4.314279035808761,-0.7602867146669464,-0.9617040129048712,6.304000000003725
312422.0247,-14.667455011926176,1.576741156417644,-2.3244990872944755,-2.8521383577983284,6.304999999993015
312422.0257,-16.082495224393707,-1.0970255867951126,-3.7058344880147662,-4.536030221950726,6.305999999982305
312422.0267,-17.034111942906403,-3.625126004984913,-4.85086676398777,-5.95191314298435,6.306999999971595
312422.0277,-17.479778025091104,-5.946555025881868,-5.730860584384049,-7.063393008413617,6.3079999999608845
312422.0287,-17.40870988232541,-8.022093639618111,-6.342106372804616,-7.859624153346387,6.309000000008382
312422.0297,-16.84041880537624,-9.833024410042187,-6.703917220302407,-8.35344073831236,6.309999999997672
312422.0307,-15.82093459033539,-11.377936815077879,-6.854560936006181,-8.577420406164064,6.3109999999869615
312422.0317,-14.41716481900842,-12.668074682633948,-6.84559463804846,-8.578349036384914,6.311999999976251
312422.0327,-12.71000881226677,-13.721811861266966,-6.73521575738138,-8.410698845828493,6.312999999965541
312422.0337,-10.786938043627615,-14.558915297865868,-6.58132795005024,-8.129813626736004,6.3140000000130385
312422.0347,-8.734776602064672,-15.195260210456432,-6.435035204461922,-7.785507165790103,6.315000000002328
312422.0357,-6.633365015363773,-15.638600028642797,-6.335221277109249,-7.416723251823469,6.315999999991618
312422.0367,-4.55067431499767,-15.885870857116783,-6.304750368817975,-7.047784389909155,6.316999999980908
312422.0377,-2.539766999854494,-15.922339005780623,-6.348650955297907,-6.686583835640683,6.317999999970198
312422.0387,-0.637795097724942,-15.722697957843522,-6.454435412635106,-6.3248692547940255,6.3189999999594875
312422.0397,1.1329961509450588,-15.254008368996937,-6.594484521595699,-5.940546862105013,6.320000000006985
312422.0407,2.7625049475694827,-14.480172680338232,-6.730210505490782,-5.501724181898437,6.320999999996275
312422.0417,4.248681598639955,-13.367464981585446,-6.8175265727359635,-4.972028560931607,6.3219999999855645
312422.0427,5.592679149887985,-11.890514108293013,-6.813013681954855,-4.316605230182718,6.322999999974854
312422.0437,6.793892961183201,-10.038076068743154,-6.680100321334933,-3.5081262998937017,6.323999999964144
312422.0447,7.845544192284637,-7.817937260928124,-6.394566216176478,-2.5321377902668187,6.3250000000116415
312422.0457,8.731400348715095,-5.2603624187722176,-5.948746811656528,-1.3911361190993707,6.326000000000931
312422.0467,9.42410058021098,-2.419634056142343,-5.353945824817051,-0.10689207092242752,6.326999999990221
312422.0477,9.885376920244259,0.6265893825338616,-4.64074535801957,1.2792833278626332,6.327999999979511
312422.0487,10.06825287159864,3.7801588893683333,-3.857119019718018,2.7084278468654857,6.328999999968801
312422.0497,9.921078889304209,6.927405840110955,-3.0644817317809983,4.1078483961178796,6.3299999999580905
312422.0507,9.393052957845846,9.945832405792112,-2.3320275657405394,5.396738885359731,6.331000000005588
312422.0517,8.44069530859641,12.711979640457582,-1.7298920717218473,6.49298284285598,6.331999999994878
312422.0527,7.034618061796994,15.109805738842205,-1.3218092306615432,7.320498283790999,6.3329999999841675
312422.0537,5.165867002798286,17.03884385798091,-1.1580014119107052,7.816414987871625,6.333999999973457
312422.0547,2.8511213216974687,18.421415032770938,-1.2690359632698267,7.937376564513599,6.334999999962747
312422.0557,0.13611838118522365,19.20824699095634,-1.6613038766399564,7.6643317614605415,6.3360000000102445
312422.0567,-2.903182336295483,19.381987262306154,-2.3146312037075374,7.0053148442707425,6.336999999999534
312422.0577,-6.161982364210341,18.95828596996625,-3.1823360330454036,5.995900717735868,6.337999999988824
312422.0587,-9.510627324053129,17.984342338555468,-4.193811739891194,4.697238931237969,6.338999999978114
312422.0597,-12.800997775585845,16.535038384691493,-5.259473287451952,3.191800674777715,6.339999999967404
312422.0607,-15.874882679721402,14.707001516377465,-6.277671364962771,1.5771919723947798,6.3409999999566935
312422.0617,-18.573712005037187,12.611123959454762,-7.14298190020947,-0.041426877532970655,6.342000000004191
312422.0627,-20.74888097463614,10.36420325064298,-7.755135577444434,-1.559639304450271,6.342999999993481
312422.0637,-22.271823189887673,8.080441520670142,-8.027777862939285,-2.8820393711129393,6.3439999999827705
312422.0647,-23.042991384692524,5.863545067891977,-7.89625252352032,-3.9297180959877416,6.34499999997206
312422.0657,-22.99898354908671,3.80009968324375,-7.323681145164071,-4.6462903640149396,6.34599999996135
312422.0667,-22.117201892337345,1.954767981959095,-6.304760660564877,-5.001919216723474,6.347000000008848
312422.0677,-20.41763907949928,0.3676753741848246,-4.8669064885983,-4.994981923314748,6.347999999998137
312422.0687,-17.961631347729902,-0.9458611471272724,-3.0686111852396114,-4.651243798923763,6.348999999987427
312422.0697,-14.84767877253387,-1.9933318078072273,-0.9951444842732021,-4.020639908036864,6.349999999976717
312422.0707,-11.20468487580615,-2.8010457833183673,1.2480341530938495,-3.1719889942814343,6.350999999966007
312422.0717,-7.183187520520021,-3.408625738814696,3.5435683038591903,-2.1861566085470834,6.3519999999552965
312422.0727,-2.9453202481875187,-3.8625915266156903,5.771463803871798,-1.1483269385550412,6.353000000002794
312422.0737,1.3456574833682475,-4.20971488257651,7.8184882131387345,-0.14012162783489307,6.353999999992084
312422.0747,5.535400209097511,-4.49083459668283,9.586874575496918,0.7676885302702507,6.3549999999813735
312422.0757,9.487281454179035,-4.735761193381696,11.001562177747163,1.5211972444710875,6.355999999970663
312422.0767,13.089287183038222,-4.959778097475299,12.015347288431744,2.0875493072986937,6.356999999959953
312422.0777,16.258509291164756,-5.162075049682006,12.611515087393927,2.4569295381218774,6.358000000007451
312422.0787,18.942980435335624,-5.326246413287536,12.803760980239776,2.642200009661488,6.35899999999674
312422.0797,21.12084052884812,-5.422772288767682,12.633462371948921,2.6762614552770274,6.35999999998603
312422.0807,22.79706977066998,-5.413195401637063,12.164606486432346,2.607435805535549,6.36099999997532
312422.0817,23.998239958167012,-5.2555318870608625,11.476892659566145,2.4933574620783894,6.36199999996461
312422.0827,24.765904758969025,-4.910326663220732,10.657688623084775,2.394002749643487,6.363000000012107
312422.0837,25.149355123049595,-4.346696628576666,9.79361471809411,2.3645663848593137,6.364000000001397
312422.0847,25.198498933324284,-3.5477040322685327,8.96254939246146,2.448903300330935,6.364999999990687
312422.0857,24.957582300438293,-2.514468035361606,8.226792753109285,2.674193163272089,6.365999999979977
312422.0867,24.460358875205387,-1.2685480817039343,7.627998752616264,3.047359731800768,6.366999999969266
312422.0877,23.727145172245734,0.14769433590849776,7.184303877031492,3.553600369212759,6.367999999958556
312422.0887,22.76399165636211,1.672845859331978,6.889859415642151,4.157170174407417,6.369000000006054
312422.0897,21.56397245660698,3.2301808195352373,6.7167374887912885,4.804341147819742,6.369999999995343
312422.0907,20.11037387178196,4.73306602820778,6.618951270887077,5.4282416747690405,6.370999999984633
312422.0917,18.38136549182072,6.0915365843005045,6.538129596468267,5.955096491680375,6.371999999973923
312422.0927,16.355587117799292,7.219426831254933,6.410234567435237,6.311250293428256,6.372999999963213
312422.0937,14.017994320727787,8.041379588005261,6.172622097488182,6.430282530939886,6.37400000001071
312422.0947,11.365283889842766,8.499062574251985,5.770727417723474,6.259513936280201,6.375
312422.0957,8.410269095157435,8.555993125477201,5.163711266813551,5.765267319470558,6.37599999998929
312422.0967,5.184688089678318,8.200503841984911,4.32852157954232,4.936369832023988,6.37699999997858
312422.0977,1.7400949159930048,7.446559854324645,3.2619973538053526,3.785558662261341,6.377999999967869
312422.0987,-1.8533157460622736,6.332345419321507,1.9808482972365131,2.348659593153277,6.378999999957159
312422.0997,-5.50988242804748,4.916753204552065,0.5195647811644599,0.6816274189302932,6.380000000004657
312422.1007,-9.133372345236024,3.2741126149531676,-1.0734747218230034,-1.144252851067694,6.380999999993946
312422.1017,-12.623140675308187,1.4876638228873298,-2.741248483201963,-3.048525501929363,6.381999999983236
312422.1027,-15.880961755111052,-0.3575950607168059,-4.424103190201693,-4.948474310136116,6.382999999972526
312422.1037,-18.817866555896828,-2.182000971881934,-6.065872978232042,-6.766102819561057,6.383999999961816
312422.1047,-21.360314808601824,-3.917580509296371,-7.619440769070234,-8.43450130072682,6.385000000009313
312422.1057,-23.455092533893374,-5.513062553271344,-9.05114002129076,-9.902982137749692,6.385999999998603
312422.1067,-25.072450216122846,-6.937079582072715,-10.343520345677748,-11.140491862307467,6.386999999987893
312422.1077,-26.20717093312609,-8.179268944709147,-11.496175165537194,-12.136983201320161,6.387999999977183
312422.1087,-26.877463918794017,-9.249194395306775,-12.524535944836012,-12.902636847817169,6.388999999966472
312422.1097,-27.121796565550003,-10.173225118383781,-13.456754508381406,-13.465039640507745,6.389999999955762
312422.1107,-26.99398488298372,-10.989712861106927,-14.329000574281029,-13.864631833464912,6.39100000000326
312422.1117,-26.55703805503414,-11.742977520450307,-15.179674838128,-14.148910626087329,6.391999999992549
312422.1127,-25.876379223637947,-12.476730776167852,-16.043161003039405,-14.36600269516084,6.392999999981839
312422.1137,-25.01312908830937,-13.227624229018161,-16.94380021477953,-14.558282555937785,6.393999999971129
312422.1147,-24.01813462571349,-14.019597240030494,-17.8907618638863,-14.756709695304227,6.394999999960419
312422.1157,-22.92735231429296,-14.859621218958097,-18.874406009166453,-14.976485818972305,6.396000000007916
312422.1167,-21.759060646143976,-15.735299051456822,-19.864592025480235,-15.214501205441572,6.396999999997206
312422.1177,-20.513193532487282,-16.614594149936107,-20.81119896994383,-15.448859070348975,6.397999999986496
312422.1187,-19.17287244844783,-17.447751305795965,-21.64690399175986,-15.640556788104426,6.398999999975786
312422.1197,-17.707991916670682,-18.171251966416875,-22.292037392748785,-15.73718358378763,6.399999999965075
312422.1207,-16.08050233214804,-18.71344138055398,-22.661119194348167,-15.678287659037226,6.401000000012573
312422.1217,-14.25085717078302,-19.00129451350596,-22.67050359004404,-15.401892238188235,6.402000000001863
312422.1227,-12.184966069847585,-18.967668637027028,-22.246432457587783,-14.85151709262702,6.402999999991152
312422.1237,-9.860933905516113,-18.55833493355457,-21.33274007701593,-13.983002167096448,6.403999999980442
312422.1247,-7.274875347839223,-17.738095004299275,-19.89746486840423,-12.770439263398446,6.404999999969732
312422.1257,-4.445174049488026,-16.49536975065693,-17.93770979316439,-11.21059579897156,6.405999999959022
312422.1267,-1.414698313563906,-14.844789949302024,-15.482243483084186,-9.325354142029832,6.407000000006519
312422.1277,1.7493227377546066,-12.827506283383277,-12.591535267983566,-7.161877552961246,6.407999999995809
312422.1287,4.957835246193895,-10.509153359743607,-9.355150153400333,-4.790431185914344,6.408999999985099
312422.1297,8.104748990341287,-7.9756262692289175,-5.886672350745274,-2.300012780182336,6.409999999974389
312422.1307,11.073598468073929,-5.3270377288734885,-2.3165550233355234,0.2078394750128611,6.410999999963678
312422.1317,13.745511986398965,-2.6703983702677196,1.2165124917962913,2.626515725540625,6.412000000011176
312422.1327,16.007791559850745,-0.1116852885937129,4.574989248131608,4.852406739082349,6.413000000000466
312422.1337,17.76233962268596,2.251977419536454,7.631816456661286,6.792843853453682,6.4139999999897555
312422.1347,18.93317420275911,4.339313454623598,10.278900712702892,8.373178648866757,6.414999999979045
312422.1357,19.472352014024775,6.090431429497092,12.434024354528285,9.542352345816374,6.415999999968335
312422.1367,19.363761629181255,7.470411776524049,14.045605334959472,10.276445516863042,6.416999999957625
312422.1377,18.62444291826047,8.470638553029218,15.094927230889542,10.57988842175299,6.418000000005122
312422.1387,17.303315713584627,9.107787709794954,15.595692877939893,10.484232805937134,6.418999999994412
312422.1397,15.477438425788987,9.420607554061235,15.591000353899432,10.044615990574064,6.419999999983702
312422.1407,13.246143255889816,9.464837152799975,15.148074229950371,9.334265235102983,6.420999999972992
312422.1417,10.723587044691198,9.3067838308505,14.351285851740917,8.437573621460936,6.421999999962281
312422.1427,8.030397262677818,9.01620468533896,13.294144865120408,7.442410348095128,6.423000000009779
312422.1437,5.2851678255607695,8.659197216960868,12.071026348260327,6.432395634451019,6.423999999999069
312422.1447,2.5965623403582674,8.291795086260862,10.76940630610027,5.479867015330995,6.4249999999883585
312422.1457,0.05671309643152091,7.954887768727025,9.463312656538346,4.640190157189708,6.425999999977648
312422.1467,-2.2635303180528683,7.6709453278786555,8.208566105419806,3.9479308214549533,6.426999999966938
312422.1477,-4.317135098353881,7.44284538125331,7.040198865841934,3.415218726982598,6.427999999956228
312422.1487,-6.081053949342032,7.254886875456823,5.972217569783659,3.0324171126385426,6.429000000003725
312422.1497,-7.554111911852235,7.075855523040825,4.999641801239594,2.770985052079288,6.429999999993015
312422.1507,-8.752915558979188,6.863800356079965,4.102524464786486,2.588205207438977,6.430999999982305
312422.1517,-9.706277507465066,6.572010016871182,3.251466613638898,2.433268635161715,6.431999999971595
312422.1527,-10.44878751691137,6.155557880759588,2.413996092529697,2.2540780684053128,6.4329999999608845
312422.1537,-11.014236210861522,5.577728549540933,1.5611000688818455,2.0040643623594225,6.434000000008382
312422.1547,-11.429601687313356,4.815650112187218,0.6731935651534188,1.648313827264058,6.434999999997672
312422.1557,-11.710242939412453,3.8645355599552778,-0.2551302066112204,1.168376474638321,6.4359999999869615
312422.1567,-11.856813915527765,2.7400749986981143,-1.21209323957648,0.5652594806694137,6.436999999976251
312422.1577,-11.854231247229201,1.4787041595843435,-2.1678147185616843,-0.13970689855281665,6.437999999965541
312422.1587,-11.672815113776927,0.13568606141015827,-3.0756117790439133,-0.9062301929250031,6.4390000000130385
312422.1597,-11.2714974993332,-1.2188392530644576,-3.8754217550900067,-1.6785194684448244,6.440000000002328
312422.1607,-10.602777438893149,-2.5054786079121314,-4.499030777027833,-2.390517239967403,6.440999999991618
312422.1617,-9.61891988182375,-3.6423561833361187,-4.876606710051525,-2.972386969173611,6.441999999980908
312422.1627,-8.278761549065374,-4.5523860452489355,-4.9438968327353106,-3.3576160949825185,6.442999999970198
312422.1637,-6.554416771180481,-5.170347371329809,-4.649375781437299,-3.490029915504443,6.4439999999594875
312422.1647,-4.437175770020057,-5.449076402511771,-3.960624435821857,-3.330016172435607,6.445000000006985
312422.1657,-1.9419573585222554,-5.364169442723125,-2.8692860648560727,-2.859333431316802,6.445999999996275
312422.1667,0.8901890912074493,-4.916730681432568,-1.3940758052658606,-2.084011144576415,6.4469999999855645
312422.1677,3.991854187175883,-4.133883693931924,0.4184992040112072,-1.0350324637117587,6.447999999974854
312422.1687,7.271417271439743,-3.066978208794347,2.495836552277907,0.23329544823508006,6.448999999964144
312422.1697,10.61745134188141,-1.7876434532796814,4.743251474520844,1.647155510308577,6.4500000000116415
312422.1707,13.90504481946697,-0.3820447499411582,7.049986128521356,3.1188799081709195,6.451000000000931
312422.1717,17.003515200560432,1.0561289025425165,9.296706478410146,4.553936536941962,6.451999999990221
312422.1727,19.784853722192768,2.433298372855199,11.363837527252992,5.858596437171809,6.452999999979511
312422.1737,22.132167235772126,3.663543552711866,13.140009017428174,6.947570095096489,6.453999999968801
312422.1747,23.947380653130015,4.675373071115501,14.529874394875431,7.750903556847708,6.4549999999580905
312422.1757,25.157530890414357,5.417096959954703,15.460626487157237,8.219496972335355,6.456000000005588
312422.1767,25.719114621136256,5.860321482225656,15.886657856122117,8.328741394888063,6.456999999994878
312422.1777,25.62013456598868,6.001268129378196,15.791989850528907,8.079951376638085,6.4579999999841675
312422.1787,24.879704719925638,5.859829697565275,15.190304726395338,7.499483352967313,6.458999999973457
312422.1797,23.545302823933817,5.476494764046044,14.122639267409923,6.635652247755289,6.459999999962747
312422.1807,21.687976310906386,4.907476481383889,12.653014299905953,5.553769433767644,6.4610000000102445
312422.1817,19.39599465027208,4.218552421102838,10.862461398079041,4.32980358019144,6.461999999999534
312422.1827,16.767578304868163,3.47824256849669,8.84204787553146,3.043294603213177,6.462999999988824
312422.1837,13.903409070815862,2.7510107713987977,6.6855805087004105,1.770217361154997,6.463999999978114
312422.1847,10.899631249675819,2.091165343222753,4.482679990755116,0.5764894569401465,6.464999999967404
312422.1857,7.841987654733806,1.5380581324923257,2.3128612577686702,-0.4872531775338809,6.4659999999566935
312422.1867,4.801605578278967,1.1130457823337427,0.24113574586635875,-1.3891213161812106,6.467000000004191
312422.1877,1.8327685479802105,0.818495536993885,-1.6845173000616571,-2.117366880316971,6.467999999993481
312422.1887,-1.0272019805253727,0.6389087652675357,-3.433664806255439,-2.679606410358372,6.4689999999827705
312422.1897,-3.7560536056417093,0.5440190988888103,-4.991986895189992,-3.0999935734248507,6.46999999997206
312422.1907,-6.343008620400949,0.49352020780057687,-6.3581683397329,-3.414668750985631,6.47099999996135
312422.1917,-8.78395689893265,0.44291086224921905,-7.539558928470462,-3.6659887233128563,6.472000000008848
312422.1927,-11.076052277615545,0.3498288121638485,-8.5471721496497,-3.8961638734484563,6.472999999998137
312422.1937,-13.212392266856913,0.18019187200871936,-9.390655593135556,-4.14099163380971,6.473999999987427
312422.1947,-15.177453681673953,-0.08652003724141862,-10.073862954508257,-4.4243667739458745,6.474999999976717
312422.1957,-16.943879011813273,-0.4534255003506624,-10.59158680020043,-4.754172125051858,6.475999999966007
312422.1967,-18.47106745900486,-0.9042864669761111,-10.927880479643395,-5.1200148386772595,6.4769999999552965
312422.1977,-19.70583432235218,-1.4036913437504124,-11.056220077491805,-5.4930867969914265,6.478000000002794
312422.1987,-20.585181627248094,-1.8994154650624664,-10.94155125410719,-5.828211659528068,6.478999999992084
312422.1997,-21.040993584387333,-2.3267771366304384,-10.544052414158987,-6.067916598426969,6.4799999999813735
312422.2007,-21.006255685998273,-2.614602203947784,-9.824246948448938,-6.148156317621685,6.480999999970663
312422.2017,-20.422217810164362,-2.6922409435105443,-8.74893404806553,-6.00514147836124,6.481999999959953
312422.2027,-19.245798023418022,-2.496964939010242,-7.297297082584357,-5.582600826004713,6.483000000007451
312422.2037,-17.456468020374786,-1.9810202995048947,-5.46650284565042,-4.838748696593333,6.48399999999674
312422.2047,-15.061879921296695,-1.1176326222826145,-3.2761297267522362,-3.752243390085388,6.48499999998603
312422.2057,-12.101586806199842,0.0946528320483851,-0.7708566348607939,-2.3265063585388583,6.48599999997532
312422.2067,-8.648367992145474,1.6297632763655903,1.9790011081911059,-0.5919195647118841,6.48699999996461
312422.2077,-4.80688022910514,3.434294470218598,4.879322209851634,1.3943851926903321,6.488000000012107
312422.2087,-0.7095981085971919,5.430158239452413,7.816362209591522,3.551204493525286,6.489000000001397
312422.2097,3.4897418310635198,7.5194981172258535,10.663042718361043,5.778233424919237,6.489999999990687
312422.2107,7.624742525066633,9.591474451810457,13.286887367994675,7.962931177303749,6.490999999979977
312422.2117,11.5263438888415,11.530341299324096,15.558970338847093,9.988700601980057,6.491999999969266
312422.2127,15.033425244458645,13.224112035699816,17.363125922699556,11.743668991003602,6.492999999958556
312422.2137,18.003150689450653,14.573051074042846,18.60461936166594,13.129292838909263,6.494000000006054
312422.2147,20.320202832495102,15.4972412117377,19.217505774242344,14.068018059326858,6.494999999995343
312422.2157,21.90413581480354,15.942558890233549,19.17000374528416,14.509308474900795,6.495999999984633
312422.2167,22.714234580897358,15.884535147345575,18.46737446521419,14.43350177541469,6.496999999973923
312422.2177,22.75147970355088,15.329774346361813,17.152011248563642,13.853149661782618,6.497999999963213
312422.2187,22.05746610000254,14.314827257283945,15.30068809467427,12.8117287413158,6.49900000001071
312422.2197,20.710386622022252,12.90264824803819,13.01916696577479,11.379848983955371,6.5
312422.2207,18.818443420783588,11.176985942133301,10.43459815105241,9.649314285059855,6.50099999998929
312422.2217,16.511267903935472,9.235241823823097,7.686344419042739,7.725583248933631,6.50199999997858
312422.2227,13.930094025813151,7.1804644412450775,4.915999162446469,5.719319391852298,6.502999999967869
312422.2237,11.217524769525975,5.113215684890991,2.2574382754574973,3.7377953545358507,6.503999999957159
312422.2247,8.507749745634598,3.124043991370914,-0.17226146316683663,1.8769185728500752,6.505000000004657
312422.2257,5.918011918298637,1.2872279703787737,-2.2802875118827464,0.21457635293638566,6.505999999993946
312422.2267,3.5419900111324916,-0.34367965582900123,-4.0033409623335166,-1.194136429590517,6.506999999983236
312422.2277,1.445573277444132,-1.7381603281910183,-5.310275466999857,-2.319430352816037,6.507999999972526
312422.2287,-0.3347244216081707,-2.8887558045439072,-6.201969889678539,-3.1569186373330176,6.508999999961816
312422.2297,-1.790711779376047,-3.8089007575240523,-6.708529772654161,-3.725374133643362,6.510000000009313
312422.2307,-2.939070673064871,-4.528861301484213,-6.884152064567049,-4.062443548388843,6.510999999998603
312422.2317,-3.8159656139854685,-5.090257433104659,-6.800193026429131,-4.218806445855043,6.511999999987893
312422.2327,-4.470332216177153,-5.53977632413563,-6.537131825775333,-4.251406828483293,6.512999999977183
312422.2337,-4.956566580822408,-5.922750646931736,-6.176208155285147,-4.216462375566216,6.513999999966472
312422.2347,-5.327367450330257,-6.277275605203904,-5.791523810195881,-4.1629637505757096,6.514999999955762
312422.2357,-5.627439628563341,-6.629470732644867,-5.44333517476783,-4.127313679699577,6.51600000000326
312422.2367,-5.8886560336532625,-6.990365052796335,-5.173132758839281,-4.129629496210931,6.516999999992549
312422.2377,-6.127108890037564,-7.3547099601312045,-5.000918478330283,-4.172056421289198,6.517999999981839
312422.2387,-6.342275282676953,-7.701820823039097,-4.924869609725848,-4.239229754952658,6.518999999971129
312422.2397,-6.518299415484661,-7.998336253406574,-4.923341936999261,-4.300803227309089,6.519999999960419
312422.2407,-6.627175712620014,-8.202584434379402,-4.958936462915145,-4.315749907240394,6.521000000007916
312422.2417,-6.63342490117112,-8.270078727108219,-4.984156114820938,-4.237962081275748,6.521999999997206
312422.2427,-6.499708087991959,-8.159546592590731,-4.94802998902518,-4.022545065175162,6.522999999986496
312422.2437,-6.19273560105293,-7.838838365591578,-4.802996801708183,-3.6321298057145763,6.523999999975786
312422.2447,-5.688806019295224,-7.290071256537758,-4.511324078334455,-3.0425270864312455,6.524999999965075
312422.2457,-4.9783576477515314,-6.51343819442186,-4.050396007793052,-2.247112149975109,6.526000000012573
312422.2467,-4.069024195310925,-5.52924333136246,-3.4163246238420077,-1.2594558599476644,6.527000000001863
312422.2477,-2.986846880474617,-4.377903034883086,-2.625513531411452,-0.11389438337236686,6.527999999991152
312422.2487,-1.7754899473296044,-3.1178553872661507,-1.714013169342076,1.1360637431337588,6.528999999980442
312422.2497,-0.4935156577235605,-1.8215322888564462,-0.7347306690683184,2.4213769442608557,6.529999999969732
312422.2507,0.7900230015059366,-0.5697452340014237,0.24722645141339927,3.6628338288985782,6.530999999959022
312422.2517,2.001238787181876,0.5550009079954559,1.1606064837987833,4.77764299985446,6.532000000006519
312422.2527,3.0677526879752968,1.4756384980647872,1.9348637013989463,5.686626107977264,6.532999999995809
312422.2537,3.925086970749992,2.127432569245819,2.5071178167987522,6.321325975621794,6.533999999985099
312422.2547,4.522465815521313,2.4639762489825094,2.82852751813039,6.630344375176434,6.534999999974389
312422.2557,4.827438373295959,2.4617013568651425,2.869441244563219,6.584294119210413,6.535999999963678
312422.2567,4.828856150653054,2.1224570583792772,2.622809452650284,6.178880583511258,6.537000000011176
312422.2577,4.537900983604685,1.4738913646241378,2.105514135714343,5.435805787032653,6.538000000000466
312422.2587,3.9870548220791675,0.5675786266429595,1.3574760887068247,4.401396175559079,6.5389999999897555
312422.2597,3.2271083869997343,-0.524949405212649,0.4386179856707156,3.1430728535488575,6.539999999979045
312422.2607,2.322501716132244,-1.7179118894853886,-0.5760297713783088,1.7439888294511314,6.540999999968335
312422.2617,1.345455943495617,-2.918204450596744,-1.6026138182615914,0.2963317321882288,6.541999999957625
312422.2627,0.36947562271150897,-4.032905390037148,-2.5555337364099096,-1.1060845463881799,6.543000000005122
312422.2637,-0.5371375576652206,-4.976673207539962,-3.354636416309948,-2.375251841223873,6.543999999994412
312422.2647,-1.317121897554682,-5.678360138804416,-3.9318495145769994,-3.43573899420613,6.544999999983702
312422.2657,-1.928873268125353,-6.0862457690527005,-4.236634786420363,-4.230187721708453,6.545999999972992
312422.2667,-2.3493977068870313,-6.171431517948776,-4.239762709910686,-4.723047437790828,6.546999999962281
312422.2677,-2.5753234959357894,-5.929117359892268,-3.935078657651088,-4.902238957022541,6.548000000009779
312422.2687,-2.6218950059363633,-5.377688703254349,-3.339130910851564,-4.778641543147929,6.548999999999069
312422.2697,-2.5200763744251287,-4.5557535370931665,-2.488742029700864,-4.383510990556514,6.5499999999883585
312422.2707,-2.3120860902552254,-3.5174668867268255,-1.436806449463279,-3.764137220745935,6.550999999977648
312422.2717,-2.045844258290954,-2.3266419710715613,-0.2467686874999005,-2.9782184346071854,6.551999999966938
312422.2727,-1.7689263954545789,-1.0502593483278053,1.0136387111827678,-2.0875486220740864,6.552999999956228
312422.2737,-1.522669569582278,0.2479640908575049,2.278752614715626,-1.1516745134948907,6.554000000003725
312422.2747,-1.3370630376885144,1.51329995834877,3.4907868143783785,-0.2221712095767435,6.554999999993015
312422.2757,-1.226977329139084,2.7044605947599485,4.604508938843905,0.6618863271679579,6.555999999982305
312422.2767,-1.190150481617147,3.796348376762035,5.590329154278053,1.4768085978833099,6.556999999971595
312422.2777,-1.2071711440816373,4.7808504945031745,6.435511960013203,2.2152609226907827,6.5579999999608845
312422.2787,-1.243493221138349,5.665630992627336,7.143420119722891,2.8852456815664556,6.559000000008382
312422.2797,-1.2533060530226792,6.471079672687844,7.730906350860924,3.5072347914888717,6.559999999997672
312422.2807,-1.1848888915840843,7.225768916928248,8.224162989334207,4.109784174803478,6.5609999999869615
312422.2817,-0.9869183266587687,7.960925477864604,8.65350278532768,4.724122727936037,6.561999999976251
312422.2827,-0.6150886613786194,8.704529140824398,9.047658729870374,5.378319163201129,6.562999999965541
312422.2837,-0.03835936420950083,9.475693298096276,9.428245592877392,6.091679757085599,6.5640000000130385
312422.2847,0.7558341556735834,10.279959348862807,9.805014856122817,6.870013237894622,6.565000000002328
312422.2857,1.75798156520452,11.106049473337388,10.172458678763222,7.702317112451804,6.565999999991618
312422.2867,2.934938411896464,11.924479091333401,10.50818466476155,8.55930046636357,6.566999999980908
312422.2877,4.230642959091777,12.688245120011468,10.773304542807104,9.393975197695497,6.567999999970198
312422.2887,5.569127247587743,13.335597102410032,10.914873992521848,10.144338689906382,6.5689999999594875
312422.2897,6.859617289945362,13.794685927338195,10.870208151288754,10.737956684527935,6.570000000006985
312422.2907,8.003310499109926,13.989690167334475,10.572699030304122,11.098056808645191,6.570999999996275
312422.2917,8.901248415221591,13.847862365028895,9.958597103393789,11.150580639025938,6.5719999999855645
312422.2927,9.462586378157578,13.306832719853537,8.974106411666941,10.831531750696556,6.572999999974854
312422.2937,9.612510768318952,12.321466311244244,7.582092449209038,10.0939103040827,6.573999999964144
312422.2947,9.299074321863717,10.86959684464166,5.767720563234933,8.913546630835043,6.5750000000116415
312422.2957,8.49830951896156,8.956052913619638,3.5424286284877455,7.29323556032813,6.576000000000931
312422.2967,7.217131120599589,6.614543482668866,0.9457837151543491,5.264721886487311,6.576999999990221
312422.2977,5.493737586248704,3.9071636078274716,-1.9550351977618108,2.888281577319935,6.577999999979511
312422.2987,3.3954486786940383,0.9215009163052229,-5.068165916821855,0.2498647294274159,6.578999999968801
312422.2997,1.0141515092670523,-2.2344528926459883,-8.282213051252995,-2.544006241873611,6.5799999999580905
312422.3007,-1.5402527688420726,-5.439174767453583,-11.473216676593482,-5.373177947915399,6.581000000005588
312422.3017,-4.147825487732045,-8.56568717146902,-14.512860053527762,-8.11206614782544,6.581999999994878
312422.3027,-6.687283867730302,-11.490143345974362,-17.277213013821537,-10.638411651465423,6.5829999999841675
312422.3037,-9.044641052156193,-14.100174543141183,-19.655249383643856,-12.84183212222042,6.583999999973457
312422.3047,-11.121031232303954,-16.30227229371503,-21.556390313627404,-14.63142417566682,6.584999999962747
312422.3057,-12.8390389596868,-18.027566854676053,-22.916409912227486,-15.941754610148482,6.5860000000102445
312422.3067,-14.146996728262028,-19.235511466152595,-23.70118754212891,-16.736726445193064,6.586999999999534
312422.3077,-15.020910427000493,-19.915176900421592,-23.907988753963206,-17.011000884010606,6.587999999988824
312422.3087,-15.463899576112125,-20.084083461200677,-23.564185414271364,-16.78888182999716,6.588999999978114
312422.3097,-15.503276498973479,-19.784726804591383,-22.723563333341314,-16.120803694033516,6.589999999967404
312422.3107,-15.185612847447636,-19.079167733911078,-21.46058978780699,-15.07778356472396,6.5909999999566935
312422.3117,-14.57033147902959,-18.042233938298757,-19.863202124240424,-13.744384291266007,6.592000000004191
312422.3127,-13.72249817000388,-16.75400640112038,-18.024813782666428,-12.210867887465849,6.592999999993481
312422.3137,-12.705557737356798,-15.292322900610838,-16.03630235496392,-10.565286200979013,6.5939999999827705
312422.3147,-11.5747559583107,-13.7260199410796,-13.978738878060934,-8.886251600734372,6.59499999997206
312422.3157,-10.371912471210834,-12.109553715561082,-11.91753876871464,-7.237055050165484,6.59599999996135
312422.3167,-9.12206799924662,-10.479498190717946,-9.898570088748626,-5.661659782910142,6.597000000008848
312422.3177,-7.832335584247522,-8.85322800344775,-7.946558094725255,-4.182909492584446,6.597999999998137
312422.3187,-6.4930589902029086,-7.229874107801687,-6.0658953137631775,-2.803068964559977,6.598999999987427
312422.3197,-5.081144251300403,-5.593412414578504,-4.243726033933171,-1.5065839575227271,6.599999999976717
312422.3207,-3.5652058244615095,-3.917532209465206,-2.454946566454906,-0.2647283948400111,6.600999999966007
312422.3217,-1.911979116487647,-2.1717527244795245,-0.668570224825172,0.95837817059511,6.6019999999552965
312422.3227,-0.09331509821113737,-0.3281302697801869,1.1452323849126154,2.199033327280688,6.603000000002794
312422.3237,1.9069960993751658,1.632162897066672,3.0081777388771567,3.4872142583959103,6.603999999992084
312422.3247,4.087320223626499,3.7130972868301755,4.927754063978622,4.840557130323117,6.6049999999813735
312422.3257,6.423860575487716,5.899512461920576,6.892622826382982,6.259697702188942,6.605999999970663
312422.3267,8.868448000337368,8.15479937500446,8.870067167594955,7.7254809686006665,6.606999999959953
312422.3277,11.348761780082237,10.420837326649314,10.805817767193831,9.198361123187887,6.608000000007451
312422.3287,13.77107125505575,12.620264178972205,12.626352979558192,10.62009487546547,6.60899999999674
312422.3297,16.02534399924184,14.660929863864387,14.243525096475267,11.917602556234643,6.60999999998603
312422.3307,17.99233466631098,16.44216811352366,15.561132000118866,13.008654870068773,6.61099999997532
312422.3317,19.552071607997714,17.862340551122486,16.48285590471284,13.808859749812541,6.61199999996461
312422.3327,20.593015103789043,18.82697829601243,16.920847597233298,14.239291416347589,6.613000000012107
312422.3337,21.02108542155299,19.25678150514736,16.804159608208263,14.234035312304513,6.614000000001397
312422.3347,20.767758328432,19.094742992788703,16.086232516016988,13.746924664559742,6.614999999990687
312422.3357,19.796500246178205,18.311737613446876,14.750715247585413,12.756816745322734,6.615999999979977
312422.3367,18.10695792833176,16.910057070308497,12.815045603293775,11.270892299180238,6.616999999969266
312422.3377,15.736514737013561,14.924556811842656,10.331417505640523,9.325646795269236,6.617999999958556
312422.3387,12.759058530000415,12.421299589704946,7.384997575702096,6.985459032375575,6.619000000006054
312422.3397,9.28105268903453,9.49380803497329,4.089503080681027,4.338850008748006,6.619999999995343
312422.3407,5.435238577298083,6.257254368632979,0.5804923288012139,1.4927607438514658,6.620999999984633
312422.3417,1.372502417272023,2.841098476872788,-2.993075471544089,-1.434639007051997,6.621999999973923
312422.3427,-2.747406845439216,-0.6191812770906875,-6.478300462602805,-4.321966124520183,6.622999999963213
312422.3437,-6.765533708271094,-3.990549322546917,-9.728025515895402,-7.052748319686052,6.62400000001071
312422.3447,-10.532955707288442,-7.150348767744937,-12.609933884002503,-9.522940930968533,6.625
312422.3457,-13.918873589155673,-9.99306014450857,-15.014315687299474,-11.647188040039692,6.62599999998929
312422.3467,-16.8169437896184,-12.435357757634675,-16.859889850504064,-13.363309300434189,6.62699999997858
312422.3477,-19.14942343685603,-14.419112599790582,-18.097255559830284,-14.634672086540407,6.627999999967869
312422.3487,-20.868912471034704,-15.912195048424092,-18.70977167181778,-15.45031741116389,6.628999999957159
312422.3497,-21.957706423950178,-16.907144390255883,-18.711901833718944,-15.822926692172455,6.630000000004657
312422.3507,-22.424994461730236,-17.417974396338536,-18.14529415771514,-15.784923191782232,6.630999999993946
312422.3517,-22.30232903666713,-17.475554826243965,-17.07306490947968,-15.383176430441887,6.631999999983236
312422.3527,-21.63793764997189,-17.122131325332163,-15.57290677588519,-14.672903037623666,6.632999999972526
312422.3537,-20.490530451114438,-16.405609095687296,-13.729729836705404,-13.711421292975347,6.633999999961816
312422.3547,-18.923272551545235,-15.374223448427985,-11.628559721439183,-12.552413163157102,6.635000000009313
312422.3557,-16.998536731773825,-14.072153957559578,-9.348362014699939,-11.241277825654734,6.635999999998603
312422.3567,-14.77393722560953,-12.536515962025414,-6.957341317662878,-9.812031999818952,6.636999999987893
312422.3577,-12.299981158607107,-10.795996800635269,-4.510090434362463,-8.286038256009455,6.637999999977183
312422.3587,-9.619478506626214,-8.871211932167272,-2.046757985621092,-6.672640748106127,6.638999999966472
312422.3597,-6.768644674809327,-6.776658052880882,0.4058173069535156,-4.971579145309475,6.639999999955762
312422.3607,-3.7796334959027575,-4.523957057442023,2.831267912228967,-3.176857227254986,6.64100000000326
312422.3617,-0.6840729356568144,-2.12593522337958,5.2195961670996684,-1.2815824952333321,6.641999999992549
312422.3627,2.482941829280741,0.39901810973574464,7.56238269742479,0.7168163540288882,6.642999999981839
312422.3637,5.679000863778435,3.022908326100229,9.84794542431376,2.8116348213088784,6.643999999971129
312422.3647,8.851271851448013,5.704981672145915,12.057089729113176,4.982822127571223,6.644999999960419
312422.3657,11.934652921071443,8.38994538228515,14.160021638601044,7.194331243777777,6.646000000007916
312422.3667,14.85157458870112,11.007907457893623,16.114865998438006,9.393283709054078,6.646999999997206
312422.3677,17.513662929902946,13.476202053938199,17.86805399256314,11.511158206433244,6.647999999986496
312422.3687,19.82527273766902,15.703065067712089,19.356637338648348,13.467001743739832,6.648999999975786
312422.3697,21.6886899559812,17.592921934985963,20.512371331191147,15.172448360834414,6.649999999965075
312422.3707,23.01060856218133,19.052866532906872,21.26720774492816,16.538134083664755,6.651000000012573
312422.3717,23.70932837956973,19.99976540593489,21.559672205601025,17.480938294937626,6.652000000001863
312422.3727,23.722013731541377,20.367330540991336,21.341486280070253,17.93137713009837,6.652999999991152
312422.3737,23.01131004440051,20.11247667939977,20.58374434319622,17.840435056219462,6.653999999980442
312422.3747,21.570641879609582,19.22031947973509,19.281974954242227,17.18515122566244,6.654999999969732
312422.3757,19.42761003485953,17.707275883713823,17.459504753759493,15.97237543908999,6.655999999959022
312422.3767,16.645059192965338,15.621888498762415,15.168691645113622,14.240265838823632,6.657000000006519
312422.3777,13.319587054678653,13.043196841270293,12.489789058414964,12.057302153004205,6.657999999995809
312422.3787,9.57749228230878,10.076700882382868,9.52742554006229,9.518815327976249,6.658999999985099
312422.3797,5.568390399925408,6.848185190086035,6.404912079144431,6.741265004857108,6.659999999974389
312422.3807,1.4569417992668279,3.4958735129618916,3.256801093757292,3.8547082883226897,6.660999999963678
312422.3817,-2.5866866262704997,0.16154421257924967,0.2202949872874748,0.9940760470924315,6.662000000011176
312422.3827,-6.396882300938973,-3.018659368514793,-2.573778658479402,-1.7100103320941824,6.663000000000466
312422.3837,-9.822371070609947,-5.922953238771502,-5.0096558964076765,-4.140099824566837,6.6639999999897555
312422.3847,-12.734943098123974,-8.451436644345735,-6.994240028282313,-6.1996921807916285,6.664999999979045
312422.3857,-15.036428452645257,-10.531784312984326,-8.462961962390137,-7.819274503612548,6.665999999968335
312422.3867,-16.66338330885654,-12.12263913331347,-9.383393051058619,-8.960107560939308,6.666999999957625
312422.3877,-17.589150059622682,-13.21444479425827,-9.756308135339923,-9.615459831455267,6.668000000005122
312422.3887,-17.82318738630419,-13.827690050466858,-9.61412754695945,-9.809219872342023,6.668999999994412
312422.3897,-17.407807453714675,-14.008771183387458,-9.016904850552056,-9.59205629200681,6.669999999983702
312422.3907,-16.412684105175718,-13.823894614626239,-8.046249405182428,-9.03551673068152,6.670999999972992
312422.3917,-14.927686812292842,-13.351617021370071,-6.797758119741243,-8.224641696907304,6.671999999962281
312422.3927,-13.054732227968225,-12.674739010945075,-5.372661358650719,-7.249798393923086,6.673000000009779
312422.3937,-10.899415746162429,-11.872319148037562,-3.869451382986547,-6.198501620379336,6.673999999999069
312422.3947,-8.563183175385829,-11.01255311873063,-2.3762520350424854,-5.1479777545124055,6.6749999999883585
312422.3957,-6.136728225149995,-10.147170270159389,-0.9646067087978996,-4.159145076301164,6.675999999977648
312422.3967,-3.695162703358184,-9.307845676779081,0.31478392283109075,-3.2725374985772646,6.676999999966938
312422.3977,-1.2953170661327562,-8.504925171367807,1.434038166450523,-2.506503517162325,6.677999999956228
312422.3987,1.0246919567270913,-7.728532845377961,2.387673091345007,-1.8577869086476573,6.679000000003725
312422.3997,3.2437207103965235,-6.951897384794807,3.1899117597381466,-1.304362310392106,6.679999999993015
312422.4007,5.353996931479333,-6.136517758102607,3.8700620090312037,-0.8101799380426595,6.680999999982305
312422.4017,7.356152804525033,-5.23861100157472,4.466495517706082,-0.33129047641562953,6.681999999971595
312422.4027,9.253520245609485,-4.216162219788303,5.0198871216503935,0.17730877354302102,6.6829999999608845
312422.4037,11.046382841937653,-3.0358411219161447,5.56643961432451,0.7548297367535862,6.684000000008382
312422.4047,12.726874765261368,-1.6790656216642121,6.131812469806972,1.4285674249885156,6.684999999997672
312422.4057,14.275142565428247,-0.1465794100353199,6.72639505153591,2.2091301753583594,6.6859999999869615
312422.4067,15.657248735333091,1.5389416789945625,7.3424238558227355,3.0875244616931656,6.686999999976251
312422.4077,16.82511018734742,3.3325448491626486,7.95325330682116,4.034403864285803,6.687999999965541
312422.4087,17.718548952179788,5.16898475347543,8.514869465799798,5.001573458055385,6.6890000000130385
312422.4097,18.269308103837098,6.966876105142968,8.969507553737847,5.925614406541487,6.690000000002328
312422.4107,18.406675534847007,8.634640938171227,9.25101999008266,6.733281211326965,6.690999999991618
312422.4117,18.06418275589011,10.077701239128476,9.291462845783983,7.348146672575635,6.691999999980908
312422.4127,17.18672290365027,11.20624565501513,9.028242792273064,7.697844467254395,6.692999999970198
312422.4137,15.73737394752475,11.942842297382912,8.411106147270225,7.721198456207693,6.6939999999594875
312422.4147,13.70322562805211,12.229183518133972,7.408262367841661,7.37453713813347,6.695000000006985
312422.4157,11.099590901154023,12.03133124756839,6.011015195399293,6.636569925305976,6.695999999996275
312422.4167,7.972126702061447,11.342974688316078,4.236417592578763,5.511341206664588,6.6969999999855645
312422.4177,4.396580699883853,10.186401633711357,2.1276575042936003,4.028964608179274,6.697999999974854
312422.4187,0.47610170436063964,8.611101778200016,-0.24789850414080405,2.244054993504422,6.698999999964144
312422.4197,-3.663720038812503,6.690143868724995,-2.8028492089194246,0.231998345909155,6.7000000000116415
312422.4207,-7.881702566924725,4.514676656658757,-5.435723242545416,-1.9165921572618558,6.701000000000931
312422.4217,-12.029253548806075,2.187076210330614,-8.038220444076899,-4.102712233525353,6.701999999990221
312422.4227,-15.959199537693353,-0.18661732661617791,-10.503062875570143,-6.226451532929354,6.702999999979511
312422.4237,-19.534519192968776,-2.5042733807866373,-12.731730214633375,-8.194426384147109,6.703999999968801
312422.4247,-22.636247254411227,-4.6745663523356225,-14.641367112172023,-9.926470018569558,6.7049999999580905
312422.4257,-25.169896546226393,-6.622582556808051,-16.170232651895038,-11.360968755232399,6.706000000005588
312422.4267,-27.06988756312115,-8.293665618632177,-17.281206063863007,-12.458371032118048,6.706999999994878
312422.4277,-28.301665202977247,-9.655209106253743,-17.963054068721895,-13.202580364493686,6.7079999999841675
312422.4287,-28.861401249179966,-10.696313507578296,-18.229384749373466,-13.600154896442211,6.708999999973457
312422.4297,-28.773407737140904,-11.42543853762071,-18.11543896140345,-13.677454102519672,6.709999999962747
312422.4307,-28.085598133374965,-11.866379931150933,-17.673080653228958,-13.476075710884125,6.7110000000102445
312422.4317,-26.863509579101876,-12.053062624032309,-16.964521279041396,-13.047092924531583,6.711999999999534
312422.4327,-25.183523118997456,-12.023753474575257,-16.055433568879526,-12.444716922414582,6.712999999988824
312422.4337,-23.12597791354906,-11.815345501078454,-15.008164394314727,-11.720061021444119,6.713999999978114
312422.4347,-20.76886441687748,-11.458347345023158,-13.875739941770444,-10.915665684987273,6.714999999967404
312422.4357,-18.182701866866957,-10.973128350946656,-12.697270505051831,-10.061359509715643,6.7159999999566935
312422.4367,-15.427065492022027,-10.367829825701339,-11.495215426659989,-9.171888804952545,6.717000000004191
312422.4377,-12.549042912127756,-9.638170894759499,-10.274775581077526,-8.246561624105334,6.717999999993481
312422.4387,-9.583686209466432,-8.769171345212833,-9.02546043829756,-7.270939773109506,6.7189999999827705
312422.4397,-6.556307695615947,-7.738604777689044,-7.724651036477154,-6.220395650486035,6.71999999997206
312422.4407,-3.486265675949456,-6.521804466471774,-6.342771571280774,-5.065151500894745,6.72099999996135
312422.4417,-0.39172205046845165,-5.0972909699186575,-4.849511589898711,-3.7762568628033404,6.722000000008848
312422.4427,2.7052567795354943,-3.45259047184785,-3.220425096318315,-2.3318520898128265,6.722999999998137
312422.4437,5.773929045683358,-1.5895765438058092,-1.4431840019031925,-0.7230229802171559,6.723999999987427
312422.4447,8.771084464166039,0.47130032765042323,0.47721346687476507,1.0414214663229677,6.724999999976717
312422.4457,11.63878242093613,2.688434056497766,2.5148853766127934,2.931821426129285,6.725999999966007
312422.4467,14.30402159073541,4.998520321854985,4.621610735190875,4.896608339933958,6.7269999999552965
312422.4477,16.680543029460512,7.318240088572237,6.727725478941672,6.863538248717858,6.728000000002794
312422.4487,18.672745606672716,9.548141441482779,8.745389981639619,8.743214546792519,6.728999999992084
312422.4497,20.181466419628094,11.578472297698319,10.574013898036112,10.434671239603679,6.7299999999813735
312422.4507,21.111172082097525,13.296516823454676,12.10740727482583,11.832579088303468,6.730999999970663
312422.4517,21.377940308452796,14.594828198910944,13.242048621576195,12.835467126310963,6.731999999959953
312422.4527,20.917502045217468,15.379645725316003,13.88573853866051,13.354237731690729,6.733000000007451
312422.4537,19.692574125312255,15.578745853008403,13.965853713187972,13.320206243478571,6.73399999999674
312422.4547,17.698746029422452,15.148008893546871,13.43643625891327,12.691921131119038,6.73499999998603
312422.4557,14.968289721892347,14.076083560992783,12.283446056578729,11.460116169806923,6.73599999997532
312422.4567,11.571429633789602,12.386691102342537,10.527660561136283,9.650303400022729,6.73699999996461
312422.4577,7.61482553818033,10.138314945618998,8.224912940669578,7.322720376908186,6.738000000012107
312422.4587,3.2372644670554034,7.421251515064279,5.4635960894042634,4.5695783030039845,6.739000000001397
312422.4597,-1.3971936832746434,4.352231626030365,2.3596047825132715,1.5097972997549354,6.739999999990687
312422.4607,-6.1081419135790105,1.0670377148661399,-0.9508820130989345,-1.718361142488817,6.740999999979977
312422.4617,-10.70915793253155,-2.2882802298000473,-4.3201835077746225,-4.9661675613638625,6.741999999969266
312422.4627,-15.01874433378308,-5.5668644987215306,-7.59873055885921,-8.084074194649462,6.742999999958556
312422.4637,-18.87101779813918,-8.630403496078253,-10.644705907146522,-10.931345431437483,6.744000000006054
312422.4647,-22.125303122965235,-11.357613221405021,-13.332910224833356,-13.384880298344534,6.744999999995343
312422.4657,-24.673878712948166,-13.651165451747437,-15.562129942638373,-15.346516772557898,6.745999999984633
312422.4667,-26.44727845940428,-15.442528794118987,-17.260425702338328,-16.748250337544466,6.746999999973923
312422.4677,-27.416766119601924,-16.694383458847444,-18.387955271224037,-17.554992164164116,6.747999999963213
312422.4687,-27.593842853525988,-17.400494210731807,-18.93717310340619,-17.764717148719384,6.74900000001071
312422.4697,-27.026903852725166,-17.583157165452512,-18.93048859691885,-17.40608738125802,6.75
312422.4707,-25.795402428335915,-17.288552969987474,-18.41569365956471,-16.53386020172509,6.75099999998929
312422.4717,-24.002087234278743,-16.580520992409465,-17.45966587657491,-15.222580859204928,6.75199999997858
312422.4727,-21.764031618729582,-15.533399470029986,-16.1409980951882,-13.559200243563136,6.752999999967869
312422.4737,-19.203259744820127,-14.224643240951984,-14.542285389097831,-11.635335508198366,6.753999999957159
312422.4747,-16.437784890283318,-12.727928048801445,-12.742809231564237,-9.539899116516736,6.755000000004657
312422.4757,-13.57381113586956,-11.10737953893199,-10.812296322825038,-7.352760154313632,6.755999999993946
312422.4767,-10.699717482801145,-9.413433633145798,-8.806302815398722,-5.1399775831782035,6.756999999983236
312422.4777,-7.88225667757602,-7.680656477936792,-6.763596774904763,-2.9509713771892825,6.757999999972526
312422.4787,-5.16517810573541,-5.927644588544114,-4.7057005944370855,-0.8177917911041828,6.758999999961816
312422.4797,-2.5702467463498593,-4.158909846935079,-2.6385318355903244,1.2435700873284192,6.760000000009313
312422.4807,-0.10040122109424672,-2.368451025786001,-0.555867713212954,3.230094348040032,6.760999999998603
312422.4817,2.2554047463685145,-0.5445434650748517,1.5558238506298248,5.147307248469233,6.761999999987893
312422.4827,4.516282922528773,1.3248419646001484,3.7117772154907875,7.0040885436465485,6.762999999977183
312422.4837,6.703105710551938,3.2466387657134357,5.923208576275507,8.807349452820876,6.763999999966472
312422.4847,8.832525065225337,5.217944253524669,8.192148175436996,10.557222100077897,6.764999999955762
312422.4857,10.9119700764606,7.22250598771085,10.507426590511699,12.243337636703542,6.76600000000326
312422.4867,12.936159014073924,9.228871250444838,12.8422904528177,13.842647243502897,6.766999999992549
312422.4877,14.885490245318547,11.190459322865374,15.15394845092421,15.31907049925348,6.767999999981839
312422.4887,16.72647034455465,13.047612832738958,17.385143260743625,16.62505649236385,6.768999999971129
312422.4897,18.414117786532188,14.731474209248416,19.46762988090539,17.70493476634762,6.769999999960419
312422.4907,19.896068986202426,16.169337390639498,21.327237462450718,18.49973685718172,6.771000000007916
312422.4917,21.117931339457922,17.290963098306804,22.89002064300207,18.953004749048368,6.771999999997206
312422.4927,22.02929355054946,18.03523458999313,24.088884939182257,19.01698682489658,6.772999999986496
312422.4937,22.58973032777118,18.35648124924946,24.870011284258464,18.6585667612566,6.773999999975786
312422.4947,22.774133793207845,18.22981497668104,25.198413511967455,17.864282219138236,6.774999999965075
312422.4957,22.576768143046433,17.654907804305825,25.06203887648903,16.643867385359822,6.776000000012573
312422.4967,22.013570773949734,16.657780618432483,24.473958210910435,15.03188911261607,6.777000000001863
312422.4977,21.122399555175082,15.290358741851716,23.47237568384798,13.087227412719397,6.777999999991152
312422.4987,19.961134461693625,13.62776234290348,22.118400228559842,10.890359618512504,6.778999999980442
312422.4997,18.60376142145094,11.763517480469174,20.49174058122146,8.53862306070494,6.779999999969732
312422.5007,17.134774830433837,9.803075691565246,18.684691624294132,6.139832228028844,6.780999999959022
312422.5017,15.642411650032859,7.856196475094732,16.79495086466112,3.8047930402615355,6.782000000006519
312422.5027,14.211356368841347,6.028861341182564,14.91792323285658,1.639372330443584,6.782999999995809
312422.5037,12.915619384617088,4.4154388585185185,13.139227900727215,-0.26316684028840065,6.783999999985099
312422.5047,11.812284807493551,3.0918021152226745,11.52810670512947,-1.8288694030943813,6.784999999974389
312422.5057,10.936747526433187,2.1100147072324575,10.132351139933732,-3.0082207564846066,6.785999999963678
312422.5067,10.29992079615576,1.4950568649828557,8.975221626806743,-3.779239129040041,6.787000000011176
312422.5077,9.887708026936203,1.2438735101696463,8.054642799479591,-4.148248253698253,6.788000000000466
312422.5087,9.662814262604522,1.3268092314965385,7.3447403839987055,-4.148267212374111,6.7889999999897555
312422.5097,9.568745494321483,1.6912723635106806,6.799560291461324,-3.8351773953097372,6.789999999979045
312422.5107,9.535629943557465,2.2672631212119785,6.358600828427764,-3.2820345658471712,6.790999999968335
312422.5117,9.48731597377522,2.9742291385812614,5.953615068346707,-2.5720667746486225,6.791999999957625
312422.5127,9.349074217495962,3.72859234816728,5.5160195018300575,-1.7910195035944596,6.793000000005122
312422.5137,9.055169562582472,4.451235379152983,4.984188985337017,-1.0195662003928638,6.793999999994412
312422.5147,8.555578156840973,5.074248771636054,4.309932255619077,-0.3264897946609319,6.794999999983702
312422.5157,7.821204855038234,5.546320796422347,3.4635254699307576,0.23673984498397777,6.795999999972992
312422.5167,6.847099862102152,5.836291438849761,2.4368251822782554,0.639508293340832,6.796999999962281
312422.5177,5.653365808531586,5.934577272614958,1.2441727037171977,0.8734215847371523,6.798000000009779
312422.5187,4.283669355140623,5.852386216944348,-0.07897983971123451,0.9514115834452053,6.798999999999069
312422.5197,2.8015028750696405,5.618859621182312,-1.4795667471017053,0.9047211842862849,6.7999999999883585
312422.5207,1.2845591415564988,5.2764822775274345,-2.892165389194021,0.7781156667890685,6.800999999977648
312422.5217,-0.18223603970767677,4.875268898318711,-4.245475860633925,0.6238382106424882,6.801999999966938
312422.5227,-1.5143595181102112,4.466351890004091,-5.469368102057221,0.4949473153634317,6.802999999956228
312422.5237,-2.6352581179608694,4.095648611450546,-6.501786935819307,0.4387299826485055,6.804000000003725
312422.5247,-3.4831199718124592,3.7982716438113675,-7.294821883690949,0.4908716047107553,6.804999999993015
312422.5257,-4.016202451227682,3.5942645642458655,-7.819333893913893,0.6709829337144558,6.805999999982305
312422.5267,-4.216212751499403,3.4861064973610647,-8.067676801258656,0.9799443167095856,6.806999999971595
312422.5277,-4.089429856163257,3.458245245929638,-8.054243110885766,1.3993414630535679,6.8079999999608845
312422.5287,-3.6654795683496704,3.4787093710535544,-7.813782603755096,1.8930537667982603,6.809000000008382
312422.5297,-2.9939056613151735,3.502635060714905,-7.397666664696455,2.4108367359116656,6.809999999997672
312422.5307,-2.138897240022228,3.477345366644893,-6.868478899039735,2.893536118599515,6.8109999999869615
312422.5317,-1.1727137712812838,3.3484571858047634,-6.293482885090074,3.27940310303126,6.811999999976251
312422.5327,-0.16847705558299494,3.0663814619458956,-5.737633783547533,3.5108642564394237,6.812999999965541
312422.5337,0.8069389714978809,2.5925355943315402,-5.256850268705325,3.541048287971789,6.8140000000130385
312422.5347,1.6992004863758132,1.9046088355133983,-4.892241606396307,3.339389611758863,6.815000000002328
312422.5357,2.471350190171298,1.000309677727705,-4.665893434472363,2.8957145792990975,6.815999999991618
312422.5367,3.1066957957961563,-0.10082955773647918,-4.578663521226651,2.222361979403958,6.816999999980908
312422.5377,3.609453666863969,-1.3578256841481613,-4.610240152559021,1.3540808956461075,6.817999999970198
312422.5387,4.003076173175349,-2.710814640859558,-4.721490136270042,0.34566764214588475,6.8189999999594875
312422.5397,4.326425043049292,-4.085618591578853,-4.858892788744999,-0.7324720955302334,6.820000000006985
312422.5407,4.628171967191086,-5.399908338881475,-4.960643385211136,-1.800441629891711,6.820999999996275
312422.5417,4.959990338175369,-6.570394945356027,-4.963835513388832,-2.7760864878123748,6.8219999999855645
312422.5427,5.3692301723268825,-7.520374115110352,-4.812014006310633,-3.5826592337269396,6.822999999974854
312422.5437,5.891829099208109,-8.1869017482356,-4.462340685087475,-4.156180729087777,6.823999999964144
312422.5447,6.5461994957125915,-8.526904008093183,-3.8916394610554046,-4.451781857614266,6.8250000000116415
312422.5457,7.328746234270615,-8.521618267197447,-3.100683712010418,-4.448398648791096,6.826000000000931
312422.5467,8.211519058808001,-8.178913778058401,-2.1162485138026983,-4.151344113168617,6.826999999990221
312422.5477,9.142302590381279,-7.5332383573931025,-0.9906583234975357,-3.5924777235849112,6.827999999979511
312422.5487,10.047214646859866,-6.6431608352335445,0.20120265698454948,-2.8279194556582916,6.828999999968801
312422.5497,10.835642274186362,-5.5867069595775085,1.3672075651036781,-1.933487944478254,6.8299999999580905
312422.5507,11.407117879666341,-4.454896814438124,2.4051961843348026,-0.9982592211957443,6.831000000005588
312422.5517,11.659547028796707,-3.3440642080792427,3.2114549151395524,-0.11682273371391448,6.831999999994878
312422.5527,11.498063234470875,-2.347656168684352,3.6897165979393005,0.6190624909487575,6.8329999999841675
312422.5537,10.843716582178759,-1.5482621811640451,3.7598698281655443,1.1286488354503654,6.833999999973457
312422.5547,9.641208912345265,-1.0106030516699664,3.365583535567589,1.3494678033243594,6.834999999962747
312422.5557,7.864967972672395,-0.7761201363488898,2.48014314877458,1.24301729753713,6.8360000000102445
312422.5567,5.522998819276499,-0.8596556786341261,1.1099512538707408,0.7983476041556311,6.836999999999534
312422.5577,2.658148817017428,-1.2485186094196727,-0.7046464004224696,0.03322049093231023,6.837999999988824
312422.5587,-0.6533460545217237,-1.9040062958325215,-2.8913089687474742,-1.0072586528275507,6.838999999978114
312422.5597,-4.3059232646336545,-2.765222926861484,-5.350273119948789,-2.25440155408662,6.839999999967404
312422.5607,-8.171022937671214,-3.754821580751038,-7.961165908685639,-3.6217361764842013,6.8409999999566935
312422.5617,-12.105145495569127,-4.786119999026227,-10.591475037546687,-5.012304035403954,6.842000000004191
312422.5627,-15.958953316833068,-5.7709165643184175,-13.105949691088123,-6.326782101142263,6.842999999993481
312422.5637,-19.586651268261832,-6.627274580326654,-15.37612900285157,-7.471686973345827,6.8439999999827705
312422.5647,-22.85487209104823,-7.286554966876282,-17.289193593803244,-8.366921135249967,6.84499999997206
312422.5657,-25.6503554739294,-7.699058345906859,-18.755408033891303,-8.951993307578762,6.84599999996135
312422.5667,-27.88583718269879,-7.837778961360272,-19.71356101221871,-9.190379694725406,6.847000000008848
312422.5677,-29.50374362292261,-7.699960846567421,-20.134001645357145,-9.071676712924884,6.847999999998137
312422.5687,-30.477499642226256,-7.306362560463791,-20.019095965727445,-8.61141040789299,6.848999999987427
312422.5697,-30.810482151602805,-6.698359450331218,-19.401165374237976,-7.848592133788439,6.849999999976717
312422.5707,-30.53286724315585,-5.9332199904353695,-18.338195905787785,-6.841322301433821,6.850999999966007
312422.5717,-29.69680311313141,-5.0780650828846605,-16.90780197896447,-5.660923575615168,6.8519999999552965
312422.5727,-28.370477733006116,-4.203139614440163,-15.200072646095991,-4.385214613411677,6.853000000002794
312422.5737,-26.631726277287992,-3.375082525052925,-13.310009070302383,-3.0916031004903295,6.853999999992084
312422.5747,-24.56183240685654,-2.6508699218125815,-11.330272205936717,-1.850676453325955,6.8549999999813735
312422.5757,-22.240119965034133,-2.073026907395323,-9.34489957858671,-0.7209008497757352,6.855999999970663
312422.5767,-19.739814485668514,-1.6665659467159144,-7.424526682098439,0.2550883892146532,6.856999999959953
312422.5777,-17.12549008669656,-1.4379267423215374,-5.623475031519555,1.0522963416268223,6.858000000007451
312422.5787,-14.452224386952201,-1.3759831335347386,-3.9788633609809554,1.6631723399991705,6.85899999999674
312422.5797,-11.766382429529157,-1.4549674994000914,-2.511681884560485,2.095513834571321,6.85999999998603
312422.5807,-9.10776139191002,-1.6389640976342212,-1.2295639180020208,2.3687740839125766,6.86099999997532
312422.5817,-6.512670931092826,-1.887459691030545,-0.13081519942351855,2.5092424565431033,6.86199999996461
312422.5827,-4.0174158263190725,-2.1613291155597003,0.7908636569275335,2.544681309266817,6.863000000012107
312422.5837,-1.6615996113301252,-2.4285863544698074,1.5415896252371617,2.4990572062851064,6.864000000001397
312422.5847,0.5093145712090698,-2.669253111219191,2.1230686530887395,2.3879912257644156,6.864999999990687
312422.5857,2.4426680372336937,-2.8787849206753733,2.52947910856434,2.215474550018493,6.865999999979977
312422.5867,4.078840028184801,-3.0696409629910804,2.74589023701118,1.9722593280979828,6.866999999969266
312422.5877,5.353215220290558,-3.2707735968683576,2.7484625225552586,1.6361546308558828,6.867999999958556
312422.5887,6.199846270932357,-3.525028449359059,2.5064730642938176,1.174251350994563,6.869000000006054
312422.5897,6.556565955248066,-3.8846643617141745,1.985998526322261,0.5468889664255555,6.869999999995343
312422.5907,6.3711158100154455,-4.40540279988245,1.154892623263495,-0.2870173790464428,6.870999999984633
312422.5917,5.607709387143932,-5.139578378097607,-0.011465235595876047,-1.3638291073157582,6.871999999973923
312422.5927,4.253354638399433,-6.129069464368799,-1.5242817349819444,-2.708860680853655,6.872999999963213
312422.5937,2.3232327356159725,-7.3987292821468715,-3.3759978221978177,-4.3305665203714545,6.87400000001071
312422.5947,-0.13552554893588337,-8.951008743550593,-5.536124280885623,-6.215896837143452,6.875
312422.5957,-3.0422122440765262,-10.76236458763821,-7.948822999312428,-8.327385972146262,6.87599999998929
312422.5967,-6.283437643200625,-12.78188909572646,-10.532639906422549,-10.602383304838373,6.87699999997858
312422.5977,-9.71670674694897,-14.932395417334009,-13.182597880996589,-12.954638973523886,6.877999999967869
312422.5987,-13.17659379508228,-17.11396451275945,-15.77463377484976,-15.278233371897288,6.878999999957159
312422.5997,-16.483189350809884,-19.20972764762865,-18.172134688054157,-17.453612144825822,6.880000000004657
312422.6007,-19.452273103367204,-21.093444505288932,-20.2341171493037,-19.355279266305814,6.880999999993946
312422.6017,-21.906487139758575,-22.63826190809171,-21.824419764070054,-20.86053023744455,6.881999999983236
312422.6027,-23.686666684504576,-23.7259188102298,-22.821162550858013,-21.85849241530675,6.882999999972526
312422.6037,-24.66244049287266,-24.255611313077317,-23.12567671538576,-22.258691668988458,6.883999999961816
312422.6047,-24.74124674651761,-24.151752215803285,-22.670132700618023,-21.998389266696286,6.885000000009313
312422.6057,-23.87502064725729,-23.369951378445837,-21.42319065781217,-21.04802850861851,6.885999999998603
312422.6067,-22.063987916750087,-21.900697494933176,-19.39315773126056,-19.414288713999703,6.886999999987893
312422.6077,-19.35722864530536,-19.770424331426327,-16.628346275508992,-17.14045030527383,6.887999999977183
312422.6087,-15.849937947819555,-17.03987607023697,-13.214567040026207,-14.304009809681688,6.888999999966472
312422.6097,-11.67758014047542,-13.799925330667339,-9.269939175599665,-11.011725683787404,6.889999999955762
312422.6107,-7.007387228838835,-10.165221254472865,-4.937431480663366,-7.392502281671953,6.89100000000326
312422.6117,-2.027867402141333,-6.266232760772611,-0.3757448068490244,-3.58870878874858,6.891999999992549
312422.6127,3.0628544312645354,-2.2403862001486026,4.25071437168819,0.2533352409912256,6.892999999981839
312422.6137,8.068958205655033,1.7769351529700972,8.78194767026464,3.992908563392439,6.893999999971129
312422.6147,12.80820236987615,5.66076601263664,13.071747822026158,7.503677878078331,6.894999999960419
312422.6157,17.12171501047245,9.303619280949698,16.995611227646233,10.681013740817866,6.896000000007916
312422.6167,20.88161490432985,12.620680278575145,20.456585298223843,13.447261607102424,6.896999999997206
312422.6177,23.995979633991944,15.552771063701938,23.38865375814806,15.75459145463612,6.897999999986496
312422.6187,26.410920516428057,18.06693921399005,25.757494703641814,17.58527638771863,6.898999999975786
312422.6197,28.109781745062026,20.154753442998135,27.55868930943755,18.94948822388616,6.899999999965075
312422.6207,29.10972972161794,21.828603983481905,28.81369036593316,19.88092367020682,6.901000000012573
312422.6217,29.45621509145694,23.116488041363255,29.564057292077027,20.430766952174736,6.902000000001863
312422.6227,29.215954852170142,24.05589243267405,29.864609279301074,20.660635632090422,6.902999999991152
312422.6237,28.469180623756763,24.687454451724403,29.776227354053628,20.63523288073498,6.903999999980442
312422.6247,27.301923826987796,25.0490820214162,29.359042472289527,20.41543498438245,6.904999999969732
312422.6257,25.799058434273306,25.171146004610478,28.666680503768195,20.052477644347107,6.905999999959022
312422.6267,24.03870369784645,25.073228685915023,27.742103460553334,19.58377579808737,6.907000000006519
312422.6277,22.088415925361527,24.762736299752376,26.615403271013356,19.030732548778175,6.907999999995809
312422.6287,20.003388264080527,24.23547812487903,25.30368849384146,18.398681448685437,6.908999999985099
312422.6297,17.826652231125163,23.478100937241056,23.812977443732322,17.67888398633643,6.909999999974389
312422.6307,15.591057248401864,22.47206709591885,22.141796079173748,16.85229276941755,6.910999999963678
312422.6317,13.322616504556978,21.19869740799072,20.28599722755125,15.894611438761986,6.912000000011176
312422.6327,11.044667666120818,19.644682951901352,18.244187439560292,14.782052386530017,6.913000000000466
312422.6337,8.782218871965194,17.807414953361942,16.023081935474025,13.497125488727482,6.9139999999897555
312422.6347,6.565841321227306,15.69949411504151,13.64211323470379,12.033791695124002,6.914999999979045
312422.6357,4.434529857570611,13.35185927453054,11.136694560969204,10.401384030253261,6.915999999968335
312422.6367,2.4370755352633666,10.815112072745098,8.559677378419853,8.626828180419597,6.916999999957625
312422.6377,0.6316662281126982,8.15879580712406,5.980729567620805,6.754872187166639,6.918000000005122
312422.6387,-0.9163650307573735,5.468594711345964,3.4835780412062958,4.8462419518899145,6.918999999994412
312422.6397,-2.138510189692091,2.841633773757767,1.1612852533901301,2.9738554732220686,6.919999999983702
312422.6407,-2.968438539836501,0.38025750144418485,-0.8900595623981262,1.2174323237524676,6.920999999972992
312422.6417,-3.348225117923624,-1.8151711168530724,-2.578677751202612,-0.34299455693720426,6.921999999962281
312422.6427,-3.2348292671112944,-3.6537992025451334,-3.8247879987894295,-1.6340372103210414,6.923000000009779
312422.6437,-2.606140630969944,-5.061440064513047,-4.567906684720389,-2.595695360595729,6.923999999999069
312422.6447,-1.465922256285173,-5.986677152154507,-4.773041378885174,-3.1872076099938718,6.9249999999883585
312422.6457,0.15293840034053108,-6.405323414071127,-4.4351434201645095,-3.3914125729249625,6.925999999977648
312422.6467,2.1873173063567797,-6.322789247549425,-3.581334974679701,-3.2171586186039955,6.926999999966938
312422.6477,4.545136976121847,-5.774102463323342,-2.27062435254586,-2.6994846525183958,6.927999999956228
312422.6487,7.10908150655986,-4.821540178214277,-0.5910516950369876,-1.897506678321695,6.929000000003725
312422.6497,9.742552099127707,-3.550054342250442,1.3455565088838775,-0.890164930490257,6.929999999993015
312422.6507,12.297457569479143,-2.0608782094400184,3.410824014878839,0.22980743330583164,6.930999999982305
312422.6517,14.623255172603216,-0.46387052841856735,5.468466957787915,1.3631609775356848,6.931999999971595
312422.6527,16.57653037791481,1.1307288755961633,7.383624418802389,2.4119977309076783,6.9329999999608845
312422.6537,18.030342535291272,2.62040545233509,9.032095367853465,3.287517507335217,6.934000000008382
312422.6547,18.882572913075833,3.9176275216253202,10.308707750396648,3.9169405899201237,6.934999999997672
312422.6557,19.062591705979283,4.955627778891991,11.134125225541093,4.248982437051665,6.9359999999869615
312422.6567,18.535703829321196,5.6922239377067605,11.459540909570968,4.257393894719519,6.936999999976251
312422.6577,17.305026080548387,6.1113815882433355,11.268901477310049,3.94226469188997,6.937999999965541
312422.6587,15.410672253805087,6.2224372083121615,10.578530390722827,3.3290007460508777,6.9390000000130385
312422.6597,12.926356772950282,6.057120258567417,9.434254194109604,2.4651062493809004,6.940000000002328
312422.6607,9.953749210942785,5.664719017678626,7.906358259912466,1.415108164901932,6.940999999991618
312422.6617,6.615100804528298,5.105905411095501,6.082886986606352,0.2541335533416307,6.941999999980908
312422.6627,3.044802159390983,4.445853190716046,4.061940559375567,-0.939227646026323,6.942999999970198
312422.6637,-0.6193938331196819,3.74734014326809,1.9436934260107024,-2.090081868559129,6.9439999999594875
312422.6647,-4.24474469352402,3.0645134236527154,-0.17713762966192714,-3.133728711100642,6.945000000006985
312422.6657,-7.710811634131899,2.4379191633318786,-2.2177148746669113,-4.02088557402934,6.945999999996275
312422.6667,-10.915124726809916,1.8912612214851492,-4.111858717819356,-4.721164462154595,6.9469999999855645
312422.6677,-13.776846697880291,1.4301730477316361,-5.812830739345203,-5.224504941611404,6.947999999974854
312422.6687,-16.238268832589114,1.0430791653401357,-7.293975584084316,-5.540474735972022,6.948999999964144
312422.6697,-18.264189814541957,0.7040093768730281,-8.54729506555871,-5.695564102242797,6.9500000000116415
312422.6707,-19.83943468549845,0.37703058566848946,-9.580234231081269,-5.72880066506861,6.951000000000931
312422.6717,-20.964946162436593,0.021797716586273073,-10.411133132705535,-5.6861779423330665,6.951999999990221
312422.6727,-21.653007225681637,-0.4003872618101919,-11.063922614948897,-5.6145068905686015,6.952999999979511
312422.6737,-21.92222006364502,-0.9206696872782728,-11.562705583258388,-5.5553539687426134,6.953999999968801
312422.6747,-21.7928661169205,-1.5575349340507147,-11.926861172757052,-5.539716142653067,6.9549999999580905
312422.6757,-21.283205796905488,-2.3130628123528325,-12.167238959004358,-5.584004280220306,6.956000000005588
312422.6767,-20.40715176531021,-3.1709681013425657,-12.28388143320903,-5.687769415139636,6.956999999994878
312422.6777,-19.173579628716215,-4.096669550914911,-12.265538847537798,-5.833425048309451,6.9579999999841675
312422.6787,-17.58734225894761,-5.039422357652016,-12.091039166042528,-5.988011107537506,6.958999999973457
312422.6797,-15.651849212197073,-5.936337208208846,-11.73236788475415,-6.106832138982499,6.959999999962747
312422.6807,-13.372882143647681,-6.71791359712073,-11.159119213531168,-6.138605105254965,6.9610000000102445
312422.6817,-10.763160575420804,-7.314555780791198,-10.343821380251022,-6.031590657276272,6.961999999999534
312422.6827,-7.847066383748192,-7.6634324227140365,-9.267531028455098,-5.740072302187167,6.962999999988824
312422.6837,-4.664891413767632,-7.714996613794251,-7.925046171008961,-5.230501781102954,6.963999999978114
312422.6847,-1.2759960088519247,-7.43850622899515,-6.329109074228968,-4.48665124076945,6.964999999967404
312422.6857,2.23964448412038,-6.825973559075288,-4.513058193297669,-3.513201721955893,6.9659999999566935
312422.6867,5.78188107498934,-5.894119400536827,-2.5315336816254637,-2.3373447733721466,6.967000000004191
312422.6877,9.233005220814182,-4.684096194021794,-0.45903006196419255,-1.0081654937694149,6.967999999993481
312422.6887,12.462504122720302,-3.2589589699554473,1.6136960762649475,0.4062075813563822,6.9689999999827705
312422.6897,15.333705099231002,-1.6990808906130543,3.5851371151463263,1.8234788231732955,6.96999999997206
312422.6907,17.711853932619572,-0.0959107203979648,5.350037182611326,3.1536770375643277,6.97099999996135
312422.6917,19.473007102639944,1.4553670918137263,6.807296685151312,4.306684604253006,6.972000000008848
312422.6927,20.513007693010888,2.8635989901101713,7.868080059462562,5.200114350062826,6.972999999998137
312422.6937,20.755771173490697,4.049139026188572,8.463385498340228,5.7667976174849445,6.973999999987427
312422.6947,20.16013557794422,4.950342327673427,8.55036364405099,5.96117103278587,6.974999999976717
312422.6957,18.724629274891406,5.528471964155379,8.116769616118281,5.763942418768754,6.975999999966007
312422.6967,16.48967023958522,5.770564187951628,7.183090680236691,5.184569612802447,6.9769999999552965
312422.6977,13.53691915775115,5.689989375861312,5.802095833969563,4.2612852134612105,6.978000000002794
312422.6987,9.985745846228458,5.324663762009525,4.055784462369411,3.0586265480528145,6.978999999992084
312422.6997,5.98701255586225,4.733089133255293,2.0499471371237363,1.6626618075536308,6.9799999999813735
312422.7007,1.7146061721340686,3.9886025290100537,-0.09322989884790658,0.1743181323223649,6.980999999970663
312422.7017,-2.6446569896516756,3.1723857938371256,-2.2439049420695576,-1.2986051754365977,6.981999999959953
312422.7027,-6.901992882523965,2.3658993409633857,-4.273929768927692,-2.650032232751646,6.983000000007451
312422.7037,-10.877646821515352,1.643454674935259,-6.066014767927761,-3.784052259140709,6.98399999999674
312422.7047,-14.41109795406201,1.0656213588312946,-7.521934485331555,-4.622459763473242,6.98499999998603
312422.7057,-17.36971875773526,0.6740782147200954,-8.569086411686143,-5.110730927518318,6.98599999997532
312422.7067,-19.6552779792371,0.48837418630225216,-9.16486788819992,-5.221921093566662,6.98699999996461
312422.7077,-21.207867714670275,0.5048757481392536,-9.29853699550284,-4.958163161459158,6.988000000012107
312422.7087,-22.007060826516504,0.6979635959438341,-8.990453980458888,-4.349670469864658,6.989000000001397
312422.7097,-22.07034232863609,1.0233226475551218,-8.288838114592878,-3.45137882853326,6.989999999990687
312422.7107,-21.449085587688597,1.4229675720288477,-7.264398102319931,-2.3375785986055146,6.990999999979977
312422.7117,-20.22254027881803,1.8314808760493266,-6.003381037117449,-1.095068431013183,6.991999999969266
312422.7127,-18.490446343423393,2.182828083718321,-4.599717805903495,0.18450964853241572,6.992999999958556
312422.7137,-16.364974009065715,2.4170655765980418,-3.1470094492939706,1.4124305926510416,6.994000000006054
312422.7147,-13.962707644950514,2.4862757392960844,-1.731093491129177,2.5100255018515854,6.994999999995343
312422.7157,-11.397340934281923,2.3591489616798653,-0.4238529083675195,3.4145584006889833,6.995999999984633
312422.7167,-8.77363925231337,2.0237740477233657,0.721208609876657,4.0833356206867535,6.996999999973923
312422.7177,-6.1830648327341375,1.4883832999836617,1.671288913254232,4.495725875058522,6.997999999963213
312422.7187,-3.7012684500229303,0.7800074099776633,2.4143879083905966,4.65298063680605,6.99900000001071
312422.7197,-1.3874479399545736,-0.05879264406232682,2.957291875337201,4.5759632917681365,7.0
312422.7207,0.7146202563782053,-0.9747554137179688,3.3217573767565227,4.301100042438027,7.00099999998929
312422.7217,2.5742356498523606,-1.9097925185437312,3.5393855564513785,3.875035562676236,7.00199999997858
312422.7227,4.1705936185651815,-2.8072841694416124,3.6458002303952255,3.3485953742139345,7.002999999967869
312422.7237,5.489313362845413,-3.6181344664550807,3.6748015482711085,2.7707134387213976,7.003999999957159
312422.7247,6.519217724772879,-4.3059510244397154,3.65315576297554,2.1829724300315063,7.005000000004657
312422.7257,7.2498484651578385,-4.850804732024481,3.596602373817957,1.6153272396236324,7.005999999993946
312422.7267,7.670086253065188,-5.251171995148206,3.507520985493995,1.0834477280998462,7.006999999983236
312422.7277,7.768089047451894,-5.523848936756658,3.374515980194515,0.5879385590844689,7.007999999972526
312422.7287,7.532582880074633,-5.70183593905317,3.173966386692766,0.11549045963841002,7.008999999961816
312422.7297,6.955354943601153,-5.830400651043084,2.8733726456971596,-0.35819074980448384,7.010000000009313
312422.7307,6.034630513247519,-5.9617170600251805,2.4361333215886343,-0.8640223109276174,7.010999999998603
312422.7317,4.778881185473146,-6.14862834440645,1.8272235242670654,-1.4342499208219532,7.011999999987893
312422.7327,3.210527326188982,-6.438176772773667,1.0191395060137234,-2.0968234748033328,7.012999999977183
312422.7337,1.3689725575297205,-6.86557507336145,-0.0025681512858951954,-2.8700866938517584,7.013999999966472
312422.7347,-0.6875534665807954,-7.449257030261174,-1.2348223790007038,-3.7583976596528643,7.014999999955762
312422.7357,-2.8817684573378863,-8.187543860959419,-2.6541623649773034,-4.749206265521687,7.01600000000326
312422.7367,-5.119000355128545,-9.05730690858214,-4.215900557639234,-5.811968006185219,7.016999999992549
312422.7377,-7.290824427336637,-10.01481153383262,-5.855494981007467,-6.899085926796704,7.017999999981839
312422.7387,-9.280552113722516,-10.998711000755998,-7.4921152360124745,-7.948862670002144,7.018999999971129
312422.7397,-10.970244080789723,-11.934943912174637,-9.0341555358044,-8.890233468823835,7.019999999960419
312422.7407,-12.248738228842699,-12.743095675608153,-10.386243163624249,-9.64885994368411,7.021000000007916
312422.7417,-13.020044237163619,-13.343632793527314,-11.45712646989918,-10.15401310790668,7.021999999997206
312422.7427,-13.211374999486566,-13.665323710543612,-12.167719713512552,-10.345577685164528,7.022999999986496
312422.7437,-12.780071915666383,-13.652131252201269,-12.458543957464657,-10.180478929669128,7.023999999975786
312422.7447,-11.718738884668811,-13.268902618662965,-12.295838460185504,-9.637871430103427,7.024999999965075
312422.7457,-10.058025477418813,-12.505289902090508,-11.675723040562724,-8.722533860401882,7.026000000012573
312422.7467,-7.866682967209288,-11.377497147502535,-10.625959306224814,-7.4660747461425565,7.027000000001863
312422.7477,-5.248741705381531,-9.927653528577364,-9.205071973080713,-5.925756834850305,7.027999999991152
312422.7487,-2.337904511206554,-8.22083671398636,-7.4988307874614035,-4.18097221412137,7.028999999980442
312422.7497,0.7105043173185127,-6.339994306791126,-5.614336197417008,-2.3276252522521,7.029999999969732
312422.7507,3.729473907852514,-4.379212705563536,-3.6721748787957607,-0.4708839088657538,7.030999999959022
312422.7517,6.551389265858873,-2.435942329307384,-1.7972932580220873,1.2830778979024655,7.032000000006519
312422.7527,9.01941085722977,-0.6028903478558818,-0.10936086404251849,2.8356193542049155,7.032999999995809
312422.7537,10.998259997096637,1.039673137171481,1.2865512402267074,4.103688734239354,7.033999999985099
312422.7547,12.383555527013206,2.4304856204594207,2.30817383925889,5.0266666586634745,7.034999999974389
312422.7557,13.108959163197671,3.5321332813159803,2.9024174969339382,5.571370832103752,7.035999999963678
312422.7567,13.150564294838011,4.333717925527422,3.0493784992972692,5.734759796212433,7.037000000011176
312422.7577,12.52819020150526,4.851108862140979,2.7636369133981478,5.544080805460674,7.038000000000466
312422.7587,11.303500292714986,5.1247654416732615,2.0927517785237266,5.054439217556886,7.0389999999897555
312422.7597,9.575125953186465,5.2153437893479175,1.1131071321784487,4.344001849593137,7.039999999979045
312422.7607,7.471223223159651,5.19750842748404,-0.07650415103545674,3.5072623336767785,7.040999999968335
312422.7617,5.140095811621723,5.1525361788884645,-1.3629755394907157,2.646972186964337,7.041999999957625
312422.7627,2.7396664964884967,5.16041007067708,-2.6279368767074804,1.865460459191376,7.043000000005122
312422.7637,0.4266568999744841,5.2921444576585,-3.7569621067693193,1.2561162046110788,7.043999999994412
312422.7647,-1.653663343924169,5.603055262340343,-4.648138860219876,0.8957869024750782,7.044999999983702
312422.7657,-3.376371978806653,6.12759394112379,-5.219278929294526,0.8387545309370145,7.045999999972992
312422.7667,-4.643790995816204,6.87620995897893,-5.413189274802903,1.1127982355990425,7.046999999962281
312422.7677,-5.3899386263662175,7.834509260254638,-5.20061555588184,1.717653253790513,7.048000000009779
312422.7687,-5.582321411426957,8.96475470616315,-4.580695379679186,2.625949223936682,7.048999999999069
312422.7697,-5.221095025834251,10.209530245887589,-3.5789946304571485,3.7864790557866534,7.0499999999883585
312422.7707,-4.335855603017947,11.497185421939484,-2.2434245652544993,5.129434434188361,7.050999999977648
312422.7717,-2.980523966529345,12.748510474377735,-0.638528387219807,6.57306632702759,7.051999999966938
312422.7727,-1.2269350789452025,13.88398073948458,1.1612343385289539,8.031105401124488,7.052999999956228
312422.7737,0.8421690510194636,14.830862772486935,3.0785016992182634,9.420219507517391,7.054000000003725
312422.7747,3.140029658220887,15.52949778355754,5.039613619633956,10.666798420157681,7.054999999993015
312422.7757,5.581986962719905,15.938167887564738,6.980163805110356,11.71243792020728,7.055999999982305
312422.7767,8.090282896636783,16.036098141657426,8.848985885158328,12.51763751889301,7.056999999971595
312422.7777,10.597182115501235,15.824337593284051,10.610238534477581,13.063414160549417,7.0579999999608845
312422.7787,13.046244828644163,15.324476659530179,12.243463818479642,13.350749279111767,7.059000000008382
312422.7797,15.391798642281282,14.575374904457687,13.741712289667134,13.398007170199666,7.059999999997672
312422.7807,17.596859709786916,13.62827127330824,15.108035248763356,13.236666905811957,7.0609999999869615
312422.7817,19.629925283567598,12.54080857463125,16.350818203764142,12.9058777680548,7.061999999976251
312422.7827,21.461182808506,11.370609767770105,17.47855242316149,12.446462887219761,7.062999999965541
312422.7837,23.0587425478175,10.169085041539011,18.494701217087318,11.895046195434578,7.0640000000130385
312422.7847,24.38549519010573,8.97612173397119,19.393308165686822,11.278959088688064,7.065000000002328
312422.7857,25.397123608426256,7.816216555036308,20.155916862106313,10.612497321371862,7.065999999991618
312422.7867,26.041666376375115,6.696460520764878,20.75023361473115,9.894954291638001,7.066999999980908
312422.7877,26.260853295021732,5.606596252600353,21.13077981157759,9.110668476201388,7.067999999970198
312422.7887,25.99322826583136,4.521153740218944,21.241567855681385,8.231109194468916,7.0689999999594875
312422.7897,25.178863481379597,3.403455497826199,21.02061517656993,7.218807518598234,7.070000000006985
312422.7907,23.7652730201211,2.21108666507647,20.40590700216841,6.032739828454465,7.070999999996275
312422.7917,21.71397405329203,0.9022695305436379,19.342251077521674,4.634610352766075,7.0719999999855645
312422.7927,19.00703707485898,-0.5575191012513732,17.788353565737882,2.9953724502769616,7.072999999974854
312422.7937,15.652924738837859,-2.1893849664803855,15.723396953023869,1.1012874435701145,7.073999999964144
312422.7947,11.690947517302096,-3.995971447795687,13.152423456163076,-1.0411508449015983,7.0750000000116415
312422.7957,7.193761967966418,-5.9580962236616,10.10991974134513,-3.402000384214864,7.076000000000931
312422.7967,2.267495521857204,-8.03347572447491,6.661152363233068,-5.926782300516077,7.076999999990221
312422.7977,-2.95071413585999,-10.157744370745133,2.901003788588889,-8.53773720885786,7.077999999979511
312422.7987,-8.297746029517592,-12.247753470265485,-1.0497129422030418,-11.137419297842676,7.078999999968801
312422.7997,-13.591834378097708,-14.206911325251317,-5.050248883175092,-13.614392968903077,7.0799999999580905
312422.8007,-18.641745987587264,-15.932123363868456,-8.947793995021845,-15.850588256234246,7.081000000005588
312422.8017,-23.25714530739618,-17.32172888221937,-12.586623660367737,-17.729702606147168,7.081999999994878
312422.8027,-27.25937400016215,-18.2837253287752,-15.817784555529197,-19.14592460916835,7.0829999999841675
312422.8037,-30.491818876136602,-18.743532612029572,-18.50853109526589,-20.01221124754356,7.083999999973457
312422.8047,-32.82906355937745,-18.65058279627641,-20.550740285070532,-20.267378871802453,7.084999999962747
312422.8057,-34.184113735710476,-17.983121979161524,-21.86762099025219,-19.881367127959642,7.0860000000102445
312422.8067,-34.513144714166565,-16.750771652634203,-22.418184922395202,-18.858195249704856,7.086999999999534
312422.8077,-33.81742854696262,-14.994601198087633,-22.19914649712852,-17.23633636436038,7.087999999988824
312422.8087,-32.14233655981854,-12.784691815415796,-21.24414789272672,-15.086468086837108,7.088999999978114
312422.8097,-29.573559432184666,-10.215403183954283,-19.620442102342544,-12.506794443185958,7.089999999967404
312422.8107,-26.230917827642084,-7.398765276124459,-17.4233878587943,-9.616352394458909,7.0909999999566935
312422.8117,-22.26033044971601,-4.4565886598720885,-14.769294948763616,-6.546895024636062,7.092000000004191
312422.8127,-17.824645370324273,-1.5120008800954459,-11.787289209417615,-3.4340657395614542,7.092999999993481
312422.8137,-13.094112003964078,1.3188368625651337,-8.610931357984107,-0.40863201643109626,7.0939999999827705
312422.8147,-8.237269215799598,3.934103915323628,-5.370317211126455,2.4114716105531335,7.09499999997206
312422.8157,-3.4129509279762487,6.252151264937914,-2.185310319775578,4.927631391601196,7.09599999996135
312422.8167,1.2360276068009834,8.215310429881416,0.8395800371623051,7.0650646916088835,7.097000000008848
312422.8177,5.587127624217435,9.791400867818442,3.6183477806802546,8.775042870156843,7.097999999998137
312422.8187,9.540132100015205,10.972881770958825,6.084551535470214,10.034742396517837,7.098999999987427
312422.8197,13.017049067028939,11.773822647651711,8.190394202810602,10.844870554169995,7.099999999976717
312422.8207,15.96015699878601,12.22507669581124,9.904130171740801,11.225425192305176,7.100999999966007
312422.8217,18.328654596874593,12.368211252610605,11.206277482535668,11.210122692636967,7.1019999999552965
312422.8227,20.094503111364475,12.248864013779999,12.085226798710524,10.840147636876077,7.103000000002794
312422.8237,21.238110372256347,11.910241194113754,12.532888883761395,10.15793007006044,7.103999999992084
312422.8247,21.74449632119374,11.38744984529115,12.54100243659188,9.201636857908241,7.1049999999813735
312422.8257,21.600501374698542,10.703263648660025,12.098636663269081,8.000974625103911,7.105999999970663
312422.8267,20.793459719536614,9.865768898333677,11.191276746680888,6.574752205027968,7.106999999959953
312422.8277,19.31157405014063,8.8681401679766,9.801690303189304,4.930455486813164,7.108000000007451
312422.8287,17.14601542317859,7.690572769717452,7.912558407713654,3.0658665822227507,7.10899999999674
312422.8297,14.294553766787937,6.304173496749142,5.510637878643882,0.972534516468756,7.10999999998603
312422.8307,10.766323747734582,4.676404558639032,2.5920247488686177,-1.359301242606729,7.11099999997532
312422.8317,6.5871682049713645,2.777508500271533,-0.8320670651124031,-3.934899378359053,7.11199999996461
312422.8327,1.8048945790309199,0.5872308433100052,-4.729696078422707,-6.748992124317351,7.113000000012107
312422.8337,-3.5062593209515325,-1.898886642840615,-9.043465891783141,-9.780263892057874,7.114000000001397
312422.8347,-9.24261991180984,-4.664341127426042,-13.68734912619192,-12.987018543599875,7.114999999990687
312422.8357,-15.270097329050511,-7.6682339756266344,-18.54561628174785,-16.304619338161366,7.115999999979977
312422.8367,-21.42562690560346,-10.844009883349042,-23.474246748506847,-19.645123127926894,7.116999999969266
312422.8377,-27.521215167732628,-14.100610569635348,-28.30497762052401,-22.899322215001988,7.117999999958556
312422.8387,-33.35053122218335,-17.32605470347251,-32.85189987260153,-25.94117335455362,7.119000000006054
312422.8397,-38.69773858140257,-20.393222853104145,-36.92026422345372,-28.6343562980187,7.119999999995343
312422.8407,-43.348036125359336,-23.167411885954564,-40.31693447718915,-30.84048708817371,7.120999999984633
312422.8417,-47.09919211230143,-25.51504808610742,-42.861746322198556,-32.4283353514981,7.121999999973923
312422.8427,-49.77323029850898,-27.312829222843394,-44.3989125050336,-33.28327754869626,7.122999999963213
312422.8437,-51.22737517250991,-28.456514450715996,-44.80757325835377,-33.31617145814177,7.12400000001071
312422.8447,-51.36339013625156,-28.868602311065434,-44.010629126810045,-32.470866270366244,7.125
312422.8457,-50.13454685707514,-28.504229322182944,-41.98110963117822,-30.729665501875107,7.12599999998929
312422.8467,-47.54963734257309,-27.35477598900231,-38.74551588315994,-28.116227350897454,7.12699999997858
312422.8477,-43.67366741410006,-25.448868891331454,-34.38381215310674,-24.69560375405012,7.127999999967869
312422.8487,-38.62513094307452,-22.85069766132556,-29.026009354063287,-20.571365145140707,7.128999999957159
312422.8497,-32.57003506206651,-19.655802313836958,-22.845558301333515,-15.880009824299451,7.130000000004657
312422.8507,-25.713103209675136,-15.984707176876345,-16.050027599385878,-10.783091356842506,7.130999999993946
312422.8517,-18.286802306798005,-11.974961827529986,-8.86975691506226,-5.457692624518183,7.131999999983236
