TimeStamp,ECR,FCR,ECU,FCU,time_index
312446.7197,14.913868790431566,12.111705803700547,25.613700622144563,9.676563845399729,31.0
312446.7207,18.058669320963915,17.339345637726083,32.05739612021095,14.795494630647239,31.00099999998929
312446.7217,20.908456732046858,22.155681568386843,37.90618268567568,19.58826626280429,31.00199999997858
312446.7227,23.326406978042897,26.38728221861305,42.967897984827765,23.879460963230308,31.00299999996787
312446.7237,25.196852900640287,29.88877849151929,47.08415633860823,27.519437484426962,31.00399999995716
312446.7247,26.433676844582145,32.5513410244879,50.13916925888403,30.393137080183266,31.005000000004657
312446.7257,26.98633937404423,34.308552012147636,52.065640003150904,32.4262640455303,31.005999999993946
312446.7267,26.843054748038103,35.139228575620336,52.8472934977631,33.588381656052334,31.006999999983236
312446.7277,26.030884677294875,35.06701626129875,52.51788989392035,33.89273657694019,31.007999999972526
312446.7287,24.612800844308374,34.15684697584268,51.15686869492529,33.39291117411044,31.008999999961816
312446.7297,22.68203728526089,32.50862034912002,48.882053268598405,32.176676952874644,31.010000000009313
312446.7307,20.35429056759197,30.248696976295523,45.84008670179996,30.357658243435857,31.010999999998603
312446.7317,17.75850674357981,27.519965483805585,42.19544750313688,28.065591678316373,31.011999999987893
312446.7327,15.027102842230853,24.471347540635005,38.11899187352027,25.436068191227758,31.012999999977183
312446.7337,12.286497788701155,21.24762725775808,33.77697997848199,22.600661701918437,31.013999999966472
312446.7347,9.648771672895027,17.980432927858434,29.321467016087986,19.678281863076254,31.014999999955762
312446.7357,7.205139828758118,14.781066421381297,24.882784270680876,16.768444787729184,31.01600000000326
312446.7367,5.021733184802936,11.735682377672523,20.564616562924645,13.94695035464322,31.01699999999255
312446.7377,3.13793870024779,8.903084804506758,16.441922182659205,11.264208090978476,31.01799999998184
312446.7387,1.5672972681555712,6.315155729569367,12.561664895032429,8.74619010003606,31.01899999997113
312446.7397,0.3007067063069071,3.9796835223653173,8.946061601234195,6.397734763743144,31.01999999996042
312446.7407,-0.6885410820129008,1.885140941083203,5.597819092707624,4.207703614483212,31.021000000007916
312446.7417,-1.4385257838130097,0.006795238695681339,2.506660730047111,2.1553269520849585,31.021999999997206
312446.7427,-1.9920020068529725,-1.6865699129564775,-0.3436553053283441,0.21697706346423165,31.022999999986496
312446.7437,-2.38999573153374,-3.226069579843445,-2.968641689582822,-1.627410148164849,31.023999999975786
312446.7447,-2.6663917443571163,-4.636972001130251,-5.377461658920018,-3.3889829506837845,31.024999999965075
312446.7457,-2.8440808300624707,-5.934378421811807,-7.568992429457692,-5.066275132111636,31.026000000012573
312446.7467,-2.933048886583335,-7.120741743130684,-9.529981531443687,-6.643553284028022,31.027000000001863
312446.7477,-2.9305656806204032,-8.185426331564448,-11.235465407155182,-8.091372440687024,31.027999999991152
312446.7487,-2.823392138029242,-9.106283741059658,-12.651364968301802,-9.369257977247003,31.028999999980442
312446.7497,-2.5916967121154575,-9.852998332870563,-13.738929274123066,-10.430197548498196,31.029999999969732
312446.7507,-2.2141772321214983,-10.391765264034133,-14.460490821022415,-11.226426953253798,31.030999999959022
312446.7517,-1.6737449343745427,-10.690720386375277,-14.785845246588408,-11.715848468618553,31.03200000000652
312446.7527,-0.9630567976331097,-10.725461548993515,-14.698489939727354,-11.868344220832705,31.03299999999581
312446.7537,-0.08918847531358745,-10.483991481545786,-14.200958248473754,-11.671248358668478,31.0339999999851
312446.7547,0.9231771595984419,-9.970474496722138,-13.318568738400975,-11.133320209591592,31.03499999997439
312446.7557,2.0305196047323943,-9.207326075556598,-12.101064219837527,-10.286708481819923,31.03599999996368
312446.7567,3.1714775484387507,-8.235332798749944,-10.621827645838218,-9.18659916044321,31.037000000011176
312446.7577,4.270104608987071,-7.111711629871036,-8.974610282939096,-7.9084767093968384,31.038000000000466
312446.7587,5.2411696993923735,-5.906240430244439,-7.267966849280487,-6.543175671838521,31.038999999989755
312446.7597,5.997058435886245,-4.695802797271817,-5.617836426452062,-5.190132735364108,31.039999999979045
312446.7607,6.455643241887028,-3.557868012004141,-4.138912064666374,-3.9494441056602283,31.040999999968335
312446.7617,6.548361533725199,-2.5635525456636934,-2.935585132094366,-2.913469626828915,31.041999999957625
312446.7627,6.227687702088075,-1.7709699123876756,-2.093317564550798,-2.158789224109319,31.043000000005122
312446.7637,5.47321227261391,-1.2195639379938734,-1.6712786686512278,-1.7393018052754834,31.043999999994412
312446.7647,4.29564931060879,-0.92603727439502,-1.6969836836580203,-1.6811625107242558,31.044999999983702
312446.7657,2.738271488663511,-0.8823399856095276,-2.163497792223976,-1.9800897607334045,31.04599999997299
312446.7667,0.8755047790589143,-1.0559864905578853,-3.0295379325512886,-2.6013545355486802,31.04699999996228
312446.7677,-1.1913205776753364,-1.3927423540994266,-4.222537635280994,-3.4825118478527637,31.04800000000978
312446.7687,-3.340794799666706,-1.8214877945486883,-5.644462849967388,-4.538672943489193,31.04899999999907
312446.7697,-5.440309275104909,-2.2608456519250586,-7.179906115190161,-5.669871901225201,31.04999999998836
312446.7707,-7.356266270891778,-2.6269798452109656,-8.705767728962712,-6.769875975825876,31.05099999997765
312446.7717,-8.96474838770313,-2.8418443454894966,-10.1016770732769,-7.735645330045815,31.051999999966938
312446.7727,-10.161715725481042,-2.8411052885316104,-11.260230159237583,-8.476578951934902,31.052999999956228
312446.7737,-10.871822307572772,-2.580976227132194,-12.096128473311046,-8.92269651416325,31.054000000003725
312446.7747,-11.055051888278072,-2.043297549070037,-12.553398740120883,-9.030999725242598,31.054999999993015
312446.7757,-10.710557305685583,-1.2383474289575118,-12.610044502560653,-8.789422541528587,31.055999999982305
312446.7767,-9.877330257466454,-0.20507862844033964,-12.279712366212284,-8.218001688641312,31.056999999971595
312446.7777,-8.631607343824042,0.9912866435041491,-11.61022652535285,-7.367156105440292,31.057999999960884
312446.7787,-7.08120750971321,2.2641254260835315,-10.679129311705903,-6.313231651557116,31.059000000008382
312446.7797,-5.357268672658371,3.5123369251983574,-9.586636326589474,-5.1517202227500505,31.05999999999767
312446.7807,-3.6040819302653513,4.6287166486748,-8.44664692844026,-3.988776301605973,31.06099999998696
312446.7817,-1.967888847594458,5.509040839142833,-7.3766228960839015,-2.9318087335548295,31.06199999997625
312446.7827,-0.585595464687589,6.061051284869809,-6.487244191309906,-2.080006678677119,31.06299999996554
312446.7837,0.4256421743354163,6.21253706896096,-5.872762357662084,-1.515658853818975,31.06400000001304
312446.7847,0.9770917990918824,5.917791148266742,-5.602898682395468,-1.2970447206083426,31.06500000000233
312446.7857,1.0146728887165661,5.161868080913862,-5.716983306523499,-1.4535232695724318,31.065999999991618
312446.7867,0.5222605111329655,3.962270621277045,-6.220817765287415,-1.9832344756873495,31.066999999980908
312446.7877,-0.4781453970568911,2.3679281399787064,-7.086487599130784,-2.8535807728832463,31.067999999970198
312446.7887,-1.929312047299101,0.45557659930113376,-8.255078181284643,-4.00439489160667,31.068999999959487
312446.7897,-3.7443811152791238,-1.6761152158269872,-9.64198176972323,-5.353451155726802,31.070000000006985
312446.7907,-5.814609109020162,-3.9141274772903465,-11.144252044087322,-6.80376361396044,31.070999999996275
312446.7917,-8.01848067666058,-6.139685081582618,-12.649285698075921,-8.25195640815648,31.071999999985565
312446.7927,-10.231331446004182,-8.237091529983797,-14.044005247143966,-9.596904284097883,31.072999999974854
312446.7937,-12.334597190903796,-10.102016890208715,-15.223692311081706,-10.747831953415067,31.073999999964144
312446.7947,-14.223870663325725,-11.648521511849289,-16.099677611840207,-11.631130297118016,31.07500000001164
312446.7957,-15.815089018131287,-12.814229790196068,-16.60522619706646,-12.195287701774905,31.07600000000093
312446.7967,-17.048378692743274,-13.563254471359413,-16.699150082638134,-12.413531787806756,31.07699999999022
312446.7977,-17.889330242900023,-13.886693334281832,-16.366915833882626,-12.28401060724076,31.07799999997951
312446.7987,-18.3277384222614,-13.800754858820152,-15.619267883354198,-11.827589726458184,31.0789999999688
312446.7997,-18.37409666896881,-13.34279482101051,-14.488634350609098,-11.083577928404788,31.07999999995809
312446.8007,-18.054355119244157,-12.56573984564596,-13.02379645302328,-10.103896235319617,31.081000000005588
312446.8017,-17.403615798230284,-11.5315181829408,-11.283464271103703,-8.94635273644766,31.081999999994878
312446.8027,-16.45953183207047,-10.304198746561124,-9.329495041115987,-7.667764925248401,31.082999999984168
312446.8037,-15.256190620638474,-8.943549448502415,-7.220506587484444,-6.317674387072144,31.083999999973457
312446.8047,-13.819193137598912,-7.499664786441102,-5.006577018629812,-4.933325802586767,31.084999999962747
312446.8057,-12.162500165073025,-6.0091871827553405,-2.725589248753205,-3.536440989742482,31.086000000010245
312446.8067,-10.287415924202486,-4.493469770593281,-0.40158924320053874,-2.1321235515383714,31.086999999999534
312446.8077,-8.183840696787701,-2.9588182285386773,1.9547002057094198,-0.7100004524742448,31.087999999988824
312446.8087,-5.8336709502935635,-1.3987271744200556,4.3433094625738,0.7525332613913178,31.088999999978114
312446.8097,-3.2159839117962203,0.202185041626098,6.77072536433271,2.28532703578947,31.089999999967404
312446.8107,-0.3134380994933417,1.8630192332929314,9.24439316393564,3.9192953108484585,31.090999999956694
312446.8117,2.8808269325902107,3.600822127346358,11.766683287039763,5.679730948470982,31.09200000000419
312446.8127,6.356584046881532,5.424870248454727,14.329060361812925,7.579861259107557,31.09299999999348
312446.8137,10.080992445483009,7.331681591049557,16.907185872009848,9.615384392068407,31.09399999998277
312446.8147,13.994853205209816,9.301353547605318,19.45760232436187,11.760636080355496,31.09499999997206
312446.8157,18.01118830370198,11.295691008506626,21.9164938839173,13.966881407330309,31.09599999996135
312446.8167,22.016467806042296,13.258405078649847,24.20081096445599,16.16301848434964,31.097000000008848
312446.8177,25.874555741524006,15.117448877087027,26.21180482565705,18.258741100869518,31.097999999998137
312446.8187,29.433178932461132,16.789333933941748,27.84076696202617,20.149959241168826,31.098999999987427
312446.8197,32.53247079250675,18.185061298586348,28.976532287143797,21.726044531069657,31.099999999976717
312446.8207,35.014928815295875,19.217126893264197,29.514108789721426,22.878275384389543,31.100999999966007
312446.8217,36.735971359198075,19.80693876827816,29.36365968510057,23.50872328151874,31.101999999955297
312446.8227,37.57420183686086,19.891927429199736,28.459001539591704,23.53876092881117,31.103000000002794
312446.8237,37.440494638280946,19.431645518739163,26.76480058016661,22.91639161141794,31.103999999992084
312446.8247,36.28510699825228,18.412238912675527,24.28174858151208,21.621695671302188,31.104999999981374
312446.8257,34.10218634203409,16.848819715237997,21.049170537081988,19.66985582349007,31.105999999970663
312446.8267,30.931267816166788,14.78546838268015,17.144742820657395,17.111442223433244,31.106999999959953
312446.8277,26.85562030016957,12.292818017812431,12.681261183086612,14.029889754022872,31.10800000000745
312446.8287,21.997576025089085,9.46340650201019,7.8006676653230125,10.536359594116544,31.10899999999674
312446.8297,16.511242553709344,6.405198500162792,2.6657982669941376,6.7624195784957015,31.10999999998603
312446.8307,10.573221186307135,3.2338579197950357,-2.549475558459176,2.8511795949009864,31.11099999997532
312446.8317,4.372121508607545,0.06447421408524366,-7.670889405494987,-1.052340340263892,31.11199999996461
312446.8327,-1.9022476801859591,-2.996499470221521,-12.534317877444831,-4.810764381457643,31.113000000012107
312446.8337,-8.069123547650978,-5.858357629741706,-16.995313042402774,-8.30300588823185,31.114000000001397
312446.8347,-13.965658963763218,-8.451656262591355,-20.936860970768024,-11.431264110368465,31.114999999990687
312446.8357,-19.45375631225103,-10.731637619056219,-24.274736449380324,-14.12579614215941,31.115999999979977
312446.8367,-24.424415687573628,-12.679278092837293,-26.96006221996649,-16.34710465098637,31.116999999969266
312446.8377,-28.799397148030657,-14.299903966706028,-28.978941259748158,-18.08543170783678,31.117999999958556
312446.8387,-32.530259829304384,-15.619557920788468,-30.34930339443276,-19.357707352165846,31.119000000006054
312446.8397,-35.59509162686246,-16.67951961769735,-31.115364573608144,-20.20234305321597,31.119999999995343
312446.8407,-37.993457184676934,-17.52956444554919,-31.34031365948888,-20.672461402570967,31.120999999984633
312446.8417,-39.74024821953293,-18.22066760830602,-31.097996761671215,-20.828294598131546,31.121999999973923
312446.8427,-40.85920373815723,-18.797913809660425,-30.46444816942954,-20.72955188546026,31.122999999963213
312446.8437,-41.37687075456912,-19.29435026058683,-29.51011240839921,-20.42854370068355,31.12400000001071
312446.8447,-41.31769904334249,-19.72642457560173,-28.29351466295399,-19.964759300975242,31.125
312446.8457,-40.700814658176625,-20.09148851962595,-26.856975629978212,-19.361434423105106,31.12599999998929
312446.8467,-39.53881199118542,-20.36763914758253,-25.224747898485287,-18.624432080271653,31.12699999997858
312446.8477,-37.83866428743883,-20.515931163061023,-23.403695930817634,-17.743514368408032,31.12799999996787
312446.8487,-35.60460254656635,-20.484751729729624,-21.38637593354529,-16.6958306518535,31.12899999995716
312446.8497,-32.84257850004584,-20.215925522523655,-19.156121687944246,-15.451213031885047,31.130000000004657
312446.8507,-29.565733203061747,-19.651935766359983,-16.693532581384442,-13.978677118126045,31.130999999993946
312446.8517,-25.80015912543977,-18.74352467543737,-13.98361151106042,-12.253394287420905,31.131999999983236
312446.8527,-21.590184855050477,-17.456886586842817,-11.022727886843013,-10.263344272634276,31.132999999972526
312446.8537,-17.002434540463504,-15.779694642457972,-7.824592037394982,-8.014880152716406,31.133999999961816
312446.8547,-12.128017678508682,-13.725304960416006,-4.424521110983812,-5.536539702312785,31.135000000009313
312446.8557,-7.082379339792799,-11.334651261012567,-0.8814441017012101,-2.880607865822027,31.135999999998603
312446.8567,-2.002569720233085,-8.67556175721759,2.722681320495633,-0.12215822292268659,31.136999999987893
312446.8577,2.9580473153448037,-5.839477708317949,6.286106896341274,2.644445177114518,31.137999999977183
312446.8587,7.637360031381696,-2.935805379154724,9.692982877842853,5.311345320395818,31.138999999966472
312446.8597,11.873815731671003,-0.08436569579934462,12.821040216877181,7.764810123486135,31.139999999955762
312446.8607,15.516734343308316,2.593404068820673,15.550595606764446,9.893997161283782,31.14100000000326
312446.8617,18.43675909023511,4.983713353074098,17.77405970275702,11.600060685955713,31.14199999999255
312446.8627,20.53552001843999,6.989307892028247,19.405057404428046,12.804742457649592,31.14299999998184
312446.8637,21.753618679708108,8.537172140045497,20.38628324583803,13.457616957080912,31.14399999997113
312446.8647,22.076160313432318,9.584332812679103,20.695314043064425,13.541271445060586,31.14499999996042
312446.8657,21.535253390496834,10.121221695801374,20.347776097233428,13.073882044143673,31.146000000007916
312446.8667,20.20914805838923,10.172277529099828,19.397499160746637,12.108881586267566,31.146999999997206
312446.8677,18.21797182033322,9.793719142524086,17.933561934686942,10.731681153246063,31.147999999986496
312446.8687,15.716316175891947,9.0686810931602,16.07441826868337,9.053679655778984,31.148999999975786
312446.8697,12.883204484219764,8.100144193855822,13.959562465043112,7.20404839664467,31.149999999965075
312446.8707,9.910203206115536,7.002293691103614,11.739420530016002,5.3199861377433315,31.151000000012573
312446.8717,6.9886043051994395,5.891078553418129,9.564320119164552,3.5362847219276103,31.152000000001863
312446.8727,4.296690513046229,4.874813261356036,7.57347950500197,1.9751118980784903,31.152999999991152
312446.8737,1.9880896185565333,4.045652548266406,5.884956839998118,0.7369002360352586,31.153999999980442
312446.8747,0.1821295355038268,3.4726811980489196,4.587415240415197,-0.106869448718968,31.154999999969732
312446.8757,-1.0430684694325083,3.1972041251870156,3.7343949607677405,-0.5183753464615679,31.155999999959022
312446.8767,-1.654259036527944,3.23061190542942,3.341556778788442,-0.49526796886750224,31.15700000000652
312446.8777,-1.6632846654470776,3.5549540398753106,3.387092185371983,-0.06946980469847266,31.15799999999581
312446.8787,-1.123905815061075,4.126099864756393,3.8152114118527694,0.6968839921046273,31.1589999999851
312446.8797,-0.12560848648274697,4.879129238666915,4.5423464468683195,1.7179512153481222,31.15999999997439
312446.8807,1.2150045907580336,5.735394431817213,5.465468538462702,2.8925046070214186,31.16099999996368
312446.8817,2.76444533646075,6.610549747052779,6.471740181020446,4.113284083093139,31.162000000011176
312446.8827,4.383287966517395,7.4227695375474,7.448616517784865,5.276512099177762,31.163000000000466
312446.8837,5.936898318446542,8.10037491600118,8.293489533777235,6.2907065079972275,31.163999999989755
312446.8847,7.305067023626846,8.588163714961109,8.922031458408778,7.084008164251045,31.164999999979045
312446.8857,8.38980337265337,8.851879110987143,9.274534479087754,7.609396206210609,31.165999999968335
312446.8867,9.12074493994543,8.880445362770155,9.319747885574836,7.847376767187497,31.166999999957625
312446.8877,9.45787962926306,8.685825009520576,9.055960886413306,7.805979840823021,31.168000000005122
312446.8887,9.39153782203226,8.30058828596235,8.509345364313933,7.518159807800577,31.168999999994412
312446.8897,8.939867365001,7.773509252624729,7.729831944291626,7.036942429322395,31.169999999983702
312446.8907,8.144228858702784,7.16369245103449,6.785019988780651,6.428871113689264,31.17099999997299
312446.8917,7.063122112745918,6.533870535178701,5.752795851837079,5.766457946642006,31.17199999996228
312446.8927,5.765361103369332,5.943584351662743,4.713437658287973,5.120426045767803,31.17300000000978
312446.8937,4.323245530316047,5.442955917909055,3.742009737548211,4.552532050033625,31.17399999999907
312446.8947,2.8064309816802213,5.067692389069415,2.9017942261605754,4.109681555688381,31.17499999998836
312446.8957,1.2770833011760252,4.83582315719516,2.2393778487733926,3.8199043186622417,31.17599999997765
312446.8967,-0.21327051583843037,4.746486694236992,1.7818224154061235,3.69055517646618,31.176999999966938
312446.8977,-1.6249936750913478,4.780867498360011,1.5361179814471426,3.7088713629437575,31.177999999956228
312446.8987,-2.9297182827872854,4.905158383951532,1.4908716801766562,3.844770975256872,31.179000000003725
312446.8997,-4.108094102726959,5.07521204414123,1.6199482570965338,4.055545537426372,31.179999999993015
312446.9007,-5.146336179441125,5.242369558739267,1.887574582136454,4.291905123396576,31.180999999982305
312446.9017,-6.03213532575732,5.359830034699602,2.2542706739512934,4.504696786688612,31.181999999971595
312446.9027,-6.7505657387477775,5.388867273787551,2.6828892304215137,4.6515497947532785,31.182999999960884
312446.9037,-7.280622119057419,5.304212161731552,3.144042376920184,4.702710997519493,31.184000000008382
312446.9047,-7.592944912938569,5.098002152590615,3.6202684231510127,4.64541944374942,31.18499999999767
312446.9057,-7.649154450832822,4.781843577896572,4.108435004521248,4.486322344786886,31.18599999998696
312446.9067,-7.403027301250385,4.3867241611936265,4.620073060589642,4.251639176044034,31.18699999997625
312446.9077,-6.803530811201571,3.960732932954211,5.1795680277525635,3.985016407849349,31.18799999996554
312446.9087,-5.799507517502881,3.56477073408321,5.820376225493771,3.743258244056172,31.18900000001304
312446.9097,-4.345593739582456,3.2666440129307137,6.579660457001254,3.590344241019239,31.19000000000233
312446.9107,-2.40878852017618,3.134106583186995,7.491925587233518,3.5903299022816504,31.190999999991618
312446.9117,0.02502134492429661,3.2275310116659233,8.582362481910415,3.799852398769611,31.191999999980908
312446.9127,2.945314402419644,3.5929413418474745,9.860663304591547,4.261017422961248,31.192999999970198
312446.9137,6.312663789906715,4.256116528098873,11.316046254805201,4.995418994778147,31.193999999959487
312446.9147,10.056530370570403,5.218381001106314,12.914124918074068,5.9999437102419355,31.195000000006985
312446.9157,14.075532682735084,6.454543939545914,14.596085950864104,7.244843964827485,31.195999999996275
312446.9167,18.24038356746412,7.913246956688763,16.280415321025302,8.674347256750218,31.196999999985565
312446.9177,22.39943333536276,9.519750575127267,17.867159649937477,10.209822018244626,31.197999999974854
312446.9187,26.386506698790896,11.180955371954468,19.244450480210595,11.755268753003916,31.198999999964144
312446.9197,30.030490313272313,12.79223691458267,20.296781397931028,13.204673386646029,31.20000000001164
312446.9207,33.165942646035745,14.245495780377663,20.914334926698505,14.45057062254338,31.20100000000093
312446.9217,35.643876859732245,15.437702508460166,21.002527819288893,15.393037578370569,31.20199999999022
312446.9227,37.341823262466214,16.279164246511378,20.49089343284763,15.948284923735674,31.20299999997951
312446.9237,38.17231609800821,16.700760464709973,19.34045432996257,16.056039763437262,31.2039999999688
312446.9247,38.08906759545535,16.659487587736734,17.548854923248957,15.68501942494076,31.20499999995809
312446.9257,37.09028012080947,16.14180794025586,15.152712645903815,14.83596832271083,31.206000000005588
312446.9267,35.218788064984956,15.164502092219863,12.226889464927659,13.54195474442987,31.206999999994878
312446.9277,32.558992689242864,13.772955950591005,8.880660803612203,11.86587923863696,31.207999999984168
312446.9287,29.230830388285746,12.037052445907062,5.251040109591506,9.895406817272638,31.208999999973457
312446.9297,25.381271909649914,10.045059497757807,1.4937776683105324,7.735776365942693,31.209999999962747
312446.9307,21.17406296336572,7.8960898471044185,-2.227233049111127,5.501139264793077,31.211000000010245
312446.9317,16.778565433384006,5.691836750818092,-5.75125979912936,3.3052161396640676,31.211999999999534
312446.9327,12.358629125023189,3.5283502774804907,-8.931797223208848,1.252122707005711,31.212999999988824
312446.9337,8.062410053599544,1.488606423982353,-11.646463687541496,-0.5718031107641605,31.213999999978114
312446.9347,4.013954086232327,-0.36346300908777124,-13.804904310184218,-2.1044383976466627,31.214999999967404
312446.9357,0.30719354844755853,-1.9869594435219973,-15.35405603337265,-3.3120096795837592,31.215999999956694
312446.9367,-2.9972245425205895,-3.365701466335148,-16.28037017755056,-4.190578124364931,31.21700000000419
312446.9377,-5.87212493676722,-4.507505564368146,-16.608863562107587,-4.764781725374244,31.21799999999348
312446.9387,-8.321127524161394,-5.441198823036122,-16.39915491831903,-5.084001004677894,31.21899999998277
312446.9397,-10.373490561834066,-6.211716765366192,-15.73891195987322,-5.21635761634018,31.21999999997206
312446.9407,-12.077077643347057,-6.873821037181799,-14.73536080282593,-5.241157218462607,31.22099999996135
312446.9417,-13.490212741223518,-7.485099135213969,-13.505672240509721,-5.240529717005953,31.222000000008848
312446.9427,-14.673272737601907,-8.098969591367153,-12.167123631728742,-5.2910879475297525,31.222999999998137
312446.9437,-15.680869009074673,-8.758405256106968,-10.827933400101783,-5.456413726320154,31.223999999987427
312446.9447,-16.555389299994555,-9.491005935989916,-9.57957822272886,-5.781089452407058,31.224999999976717
312446.9457,-17.322516721096626,-10.305907950098218,-8.49123997451104,-6.286833223541695,31.225999999966007
312446.9467,-17.989129809983574,-11.192826623035451,-7.606806780265393,-6.971081660690067,31.226999999955297
312446.9477,-18.543737376233633,-12.123307484105865,-6.944592220443697,-7.808118450709867,31.228000000002794
312446.9487,-18.95933907471935,-13.054034974346976,-6.4996645083344955,-8.752592295801827,31.228999999992084
312446.9497,-19.198353196728537,-13.931836414147748,-6.248420029965822,-9.745030547693196,31.229999999981374
312446.9507,-19.21904154357979,-14.699844914867008,-6.1548181762684635,-10.718757659151676,31.230999999970663
312446.9517,-18.98270817454219,-15.30416522549553,-6.1775380458527,-11.607490073405422,31.231999999959953
312446.9527,-18.460869217334157,-15.700333196809153,-6.277237417632895,-12.352814769213131,31.23300000000745
312446.9537,-17.641592451568815,-15.858878039254233,-6.423097894572527,-12.910773641894664,31.23399999999674
312446.9547,-16.534287675812866,-15.769385129099211,-6.597926532072645,-13.256868647562005,31.23499999998603
312446.9557,-15.172383640200167,-15.442607082837037,-6.801244621583333,-13.38896390498214,31.23599999997532
312446.9567,-13.613539128354244,-14.910367344179948,-7.050012332248666,-13.327774701380308,31.23699999996461
312446.9577,-11.937283559329334,-14.22322410959372,-7.376891654416721,-13.114878357629074,31.238000000012107
312446.9587,-10.240241681390765,-13.446090805493142,-7.826214042352605,-12.808433847537136,31.239000000001397
312446.9597,-8.629341873627695,-12.65221972100066,-8.448066806815245,-12.477030907000332,31.239999999990687
312446.9607,-7.2136140197524306,-11.916126701263318,-9.291118746164045,-12.192281850580988,31.240999999979977
312446.9617,-6.0953304536839115,-11.306149728005291,-10.39494986800397,-12.020901237571534,31.241999999969266
312446.9627,-5.3613175134468,-10.87738099358809,-11.782717600371614,-12.017076658535522,31.242999999958556
312446.9637,-5.075258458717014,-10.665685657753274,-13.454975461327766,-12.215912279787007,31.244000000006054
312446.9647,-5.2717215679070035,-10.68342303668306,-15.385360889113834,-12.628627288540203,31.244999999995343
312446.9657,-5.952488697532006,-10.917326722837359,-17.51869617933578,-13.240023618046763,31.245999999984633
312446.9667,-7.085545071919151,-11.328794430674964,-19.771816884120106,-14.008517649610441,31.246999999973923
312446.9677,-8.606841681236205,-11.856606218652281,-22.037177937841474,-14.868780493580221,31.247999999963213
312446.9687,-10.424681904028246,-12.421853853684569,-24.18901502153262,-15.73677549807819,31.24900000001071
312446.9697,-12.426339307147796,-12.934647622475579,-26.091584066756557,-16.51674501037391,31.25
312446.9707,-14.486307923004134,-13.301991194216505,-27.608790465748957,-17.109504464297057,31.25099999998929
312446.9717,-16.475439646778078,-13.436097608719251,-28.61437249133137,-17.421269782801176,31.25199999997858
312446.9727,-18.27014981693804,-13.262371850897951,-29.001735413602216,-17.372187015535292,31.25299999996787
312446.9737,-19.76087833192133,-12.726312689744166,-28.692550921701145,-16.903756869735574,31.25399999995716
312446.9747,-20.85907865189329,-11.798686081861938,-27.64333940771795,-15.984449190356948,31.255000000004657
312446.9757,-21.502161752861525,-10.47848492086268,-25.849430842601947,-14.612973608090421,31.255999999993946
312446.9767,-21.656030646985737,-8.793399512767152,-23.345936397722816,-12.81889582326105,31.256999999983236
312446.9777,-21.315082255984567,-6.797759474740658,-20.20563494836125,-10.660542500444151,31.257999999972526
312446.9787,-20.49980284803917,-4.56814773677696,-16.533959941764877,-8.220396680299794,31.258999999961816
312446.9797,-19.25231582341788,-2.1971075372917217,-12.46153568957903,-5.598424584546107,31.260000000009313
312446.9807,-17.63043306238563,0.2144577611951056,-8.134932543641508,-2.9039702648488226,31.260999999998603
312446.9817,-15.700894178841308,2.5654719988975203,-3.706466446991822,-0.24698756924351545,31.261999999987893
312446.9827,-13.532538777591935,4.762690826817527,0.67605486521725,2.2705636119372863,31.262999999977183
312446.9837,-11.19013950955727,6.727779021165329,4.878746321426096,4.562353421998097,31.263999999966472
312446.9847,-8.729530644527124,8.402813640737639,8.789422522463775,6.563649153108078,31.264999999955762
312446.9857,-6.19450806410417,9.753726472722008,12.32310911098775,8.235082516282016,31.26600000000326
312446.9867,-3.61576877831388,10.771406123612035,15.424888483751548,9.563907835357327,31.26699999999255
312446.9877,-1.0119230866714402,11.470413049061813,18.069943533757943,10.562692750241204,31.26799999998184
312446.9887,1.607625031990826,11.88549666220654,20.260936194819497,11.26563802499084,31.26899999997113
312446.9897,4.2383488474717685,12.066319048044065,22.023113061119478,11.722956898481238,31.26999999996042
312446.9907,6.875410651297841,12.070963443500466,23.39774316749337,11.993933853937085,31.271000000007916
312446.9917,9.508310535368947,11.958920399196542,24.434642397439816,12.139408920871734,31.271999999997206
312446.9927,12.116099851589153,11.784289174339534,25.18461059980665,12.21448416987819,31.272999999986496
312446.9937,14.663839319664369,11.589902170189633,25.692594822261793,12.262218979035373,31.273999999975786
312446.9947,17.100858842582703,11.402979219861537,25.992297026948748,12.308973042734209,31.274999999965075
312446.9957,19.361189775786947,11.2327565410566,26.102777368363522,12.361881790243736,31.276000000012573
312446.9967,21.366309090798097,11.070328395866255,26.02738187781897,12.40872535991677,31.277000000001863
312446.9977,23.0300817886348,10.890708691022748,25.755068916409535,12.42020191898411,31.277999999991152
312446.9987,24.265538750404332,10.656887969674223,25.263947862641015,12.354363993574472,31.278999999980442
312446.9997,24.99290758049343,10.325451658752014,24.526602579268364,12.162747842625532,31.279999999969732
312447.0007,25.148146881353643,9.853159018156385,23.51657558525474,11.797543740132214,31.280999999959022
312447.0017,24.69113783816774,9.20377571226502,22.215256421683538,11.21903773308243,31.28200000000652
312447.0027,23.61267227250631,8.354417128520348,20.61836293264412,10.402515063327924,31.28299999999581
312447.0037,21.93944682200411,7.300698399231809,18.741232873573153,9.343856479889462,31.2839999999851
312447.0047,19.736423695084554,6.06009711809886,16.622252948251283,8.063177630100743,31.28499999997439
312447.0057,17.106136727356446,4.673105567850302,14.32393259261087,6.606047444857445,31.28599999996368
312447.0067,14.184787708569106,3.201964487390188,11.931363109182955,5.042056170089586,31.287000000011176
312447.0077,11.135267743206422,1.7270091962756466,9.548066349572748,3.4607647983500467,31.288000000000466
312447.0087,8.137524745473867,0.3408980511878344,7.28950518282603,1.9653297666966942,31.288999999989755
312447.0097,5.376954001474409,-0.8587906355542253,5.274774018233489,0.6643342936423137,31.289999999979045
312447.0107,3.031689540996075,-1.7779351971079145,3.6171871889915734,-0.33745276848641903,31.290999999968335
312447.0117,1.2598002113595315,-2.334452190460599,2.4146159270251033,-0.9485470916984655,31.291999999957625
312447.0127,0.1874329765519065,-2.4662765088199885,1.740477185928599,-1.0995614322820741,31.293000000005122
312447.0137,-0.10110773954611978,-2.137972616624519,1.636243624040362,-0.7505152781408444,31.293999999994412
312447.0147,0.42950185177602335,-1.3453223752769972,2.106225907758508,0.10408115108248885,31.294999999983702
312447.0157,1.7618769856930176,-0.11741144358865212,3.1151865645519106,1.4328984095355264,31.29599999997299
312447.0167,3.825957883726743,1.4840399921216687,4.589096529842685,3.168499333878806,31.29699999996228
312447.0177,6.502846848276008,3.3681063730834144,6.419064442484195,5.211100154314058,31.29800000000978
312447.0187,9.632176671972573,5.420597337845354,8.468181114021023,7.435112263794423,31.29899999999907
312447.0197,13.022446866091647,7.512029844729584,10.580754661878554,9.69793986863317,31.29999999998836
312447.0207,16.463522150717147,9.506963876159363,12.593190933671229,11.850299904129008,31.30099999997765
312447.0217,19.74031632873168,11.273906837354485,14.345620123865556,13.747188620062108,31.301999999966938
312447.0227,22.646599048442283,12.69493813626897,15.69329860463713,15.258557656751316,31.302999999956228
312447.0237,24.997870037719554,13.674230214815582,16.516831886008124,16.278787133969427,31.304000000003725
312447.0247,26.642343564930318,14.144743133287912,16.730368756851234,16.73415194162967,31.304999999993015
312447.0257,27.46926515550244,14.072537079794568,16.28709820370006,16.587659745812374,31.305999999982305
312447.0267,27.414025584088794,13.458364952487052,15.181622476708997,15.840877911473177,31.306999999971595
312447.0277,26.459820799008867,12.336454731829532,13.449058811861265,14.532638983699506,31.307999999960884
312447.0287,24.63590419095519,10.77064523187375,11.161012504542695,12.734794819751759,31.309000000008382
312447.0297,22.01276205515958,8.848274991468024,8.418838025014304,10.545451529186657,31.30999999999767
312447.0307,18.694788477939028,6.672420338943947,5.344837143987909,8.080336548269077,31.31099999998696
312447.0317,14.811220587158228,4.353216773232611,2.072212228125804,5.4631051679367815,31.31199999997625
312447.0327,10.506203643707853,1.999065168726517,-1.2653162043926869,2.815472533247682,31.31299999996554
312447.0337,5.928879829491499,-0.2914847794356155,-4.543313469181184,0.24805190601405275,31.31400000001304
312447.0347,1.2243349803098622,-2.4364653180010314,-7.65502202701603,-2.1473077147531066,31.31500000000233
312447.0357,-3.4738978870007515,-4.375276823872939,-10.517662105099737,-4.303052338929295,31.315999999991618
312447.0367,-8.049275294986524,-6.0711711491102,-13.076179926702139,-6.178907473341647,31.316999999980908
312447.0377,-12.405352881385209,-7.511305166702004,-15.304236587517423,-7.762154602396342,31.317999999970198
312447.0387,-16.4665514468483,-8.704476909189568,-17.20249865816706,-9.065301213594118,31.318999999959487
312447.0397,-20.176804302645714,-9.676880718611761,-18.794546853109278,-10.121494087657396,31.320000000006985
312447.0407,-23.49651838920136,-10.466404855889667,-20.120937095239654,-10.978234766183826,31.320999999996275
312447.0417,-26.398435710956697,-11.116127155398406,-21.2321084911342,-11.690106511654706,31.321999999985565
312447.0427,-28.863067823773665,-11.667729160967871,-22.180920505536896,-12.311299787271853,31.322999999974854
312447.0437,-30.87438712301059,-12.15554102494525,-23.015609667213102,-12.888721637748374,31.323999999964144
312447.0447,-32.41639487881339,-12.601849773815138,-23.773885067714204,-13.456394503710523,31.32500000001164
312447.0457,-33.471055260252264,-13.013960843168823,-24.478740142075992,-14.031700768458101,31.32600000000093
312447.0467,-34.01790158385358,-13.383311719460478,-25.13636105329153,-14.613826281114088,31.32699999999022
312447.0477,-34.0354055057611,-13.686716452199544,-25.736280071900367,-15.184519972484308,31.32799999997951
312447.0487,-33.503974826116604,-13.889592860954648,-26.253679520074616,-15.711041347528083,31.3289999999688
312447.0497,-32.41023484278702,-13.950813208549635,-26.653522859417354,-16.15093773187636,31.32999999995809
312447.0507,-30.752074124853703,-13.828645073013453,-26.895997459011657,-16.458101639148584,31.331000000005588
312447.0517,-28.543816780297483,-13.487129558983042,-26.94261770577144,-16.589424567048837,31.331999999994878
312447.0527,-25.820832772248856,-12.902190872398613,-26.762270846336847,-16.51130020150563,31.332999999984168
312447.0537,-22.642921688441266,-12.066790081161963,-26.336497612314908,-16.205243614003358,31.333999999973457
312447.0547,-19.09590214202496,-10.99452491180191,-25.663383907240252,-15.671982107197506,31.334999999962747
312447.0557,-15.290999802056634,-9.72122802898169,-24.759589708869868,-14.933528903884271,31.336000000010245
312447.0567,-11.361836459814695,-8.30431361981457,-23.66024131665885,-14.032957258476822,31.336999999999534
312447.0577,-7.459059995252311,-6.819846781372238,-22.416642544600304,-13.031829087408363,31.337999999988824
312447.0587,-3.7428970181737644,-5.357539938314171,-21.091995837419464,-12.00547512249947,31.338999999978114
312447.0597,-0.37413199750218074,-4.014092472828668,-19.755541386190608,-11.03654847313734,31.339999999967404
312447.0607,2.495803766165419,-2.8854627908039454,-18.475698790423344,-10.207457680540218,31.340999999956694
312447.0617,4.734831582188921,-2.0587788224737964,-17.312913405169216,-9.592410219720762,31.34200000000419
312447.0627,6.239467052908695,-1.6046416246084305,-16.312955907415237,-9.249850191309477,31.34299999999348
312447.0637,6.942492987395202,-1.5705521746421276,-15.501393675621058,-9.216049041138318,31.34399999998277
312447.0647,6.818365154967764,-1.9760956984318743,-14.879848849086397,-9.500507661606994,31.34499999997206
312447.0657,5.885832828986825,-2.810360036349265,-14.424490396791219,-10.083661782409441,31.34599999996135
312447.0667,4.2074877230143315,-4.031859820836083,-14.086992575311774,-10.917166313847043,31.347000000008848
312447.0677,1.8862163845387225,-5.57100641111314,-13.797950963122744,-11.926789368427853,31.347999999998137
312447.0687,-0.9412021064990232,-7.334927054009033,-13.472503654489454,-13.01769700699691,31.348999999987427
312447.0697,-4.112864284833886,-9.214218495864303,-13.017683303654392,-14.081679763150456,31.349999999976717
312447.0707,-7.452183480638651,-11.091041329398482,-12.340847563638345,-15.005684192782423,31.350999999966007
312447.0717,-10.779169461722843,-12.84783892019564,-11.358418847062568,-15.680885433912366,31.351999999955297
312447.0727,-13.921645620917548,-14.375910477590855,-10.004121047535632,-16.011482472958033,31.353000000002794
312447.0737,-16.725517866878192,-15.583086711835994,-8.235935571543983,-15.922421789050105,31.353999999992084
312447.0747,-19.06330410651979,-16.39984643057323,-6.041108842202305,-15.365354943975298,31.354999999981374
312447.0757,-20.840298268222977,-16.783364367780997,-3.4387181602793984,-14.32230177134098,31.355999999970663
312447.0767,-21.997962257003966,-16.71917952991757,-0.4795259537836132,-12.806706946421661,31.356999999959953
312447.0777,-22.514392052619336,-16.220399924751586,2.75689719421443,-10.861822913031887,31.35800000000745
312447.0787,-22.401966351398816,-15.32459167857109,6.167546671927334,-8.556602659111954,31.35899999999674
312447.0797,-21.702533025091583,-14.088715806429706,9.63338833914061,-5.979517467413999,31.35999999998603
312447.0807,-20.480697230802907,-12.58265361061709,13.02813721794266,-3.2309052194029326,31.36099999997532
312447.0817,-18.815926145080926,-10.881984950164181,16.22762634757069,-0.4145858567674739,31.36199999996461
312447.0827,-16.79426558669937,-9.06074094832675,19.11892788589832,2.3704602163655917,31.363000000012107
312447.0837,-14.500466734820938,-7.184839067475503,21.60841391968089,5.037573086711108,31.364000000001397
312447.0847,-12.01124772885732,-5.306825800320343,23.628046803363144,7.518369163137565,31.364999999990687
312447.0857,-9.390273471114137,-3.4624091388910108,25.13935846619297,9.766646368681533,31.365999999979977
312447.0867,-6.685242231955807,-1.6690739729697721,26.13479877444266,11.759922079165923,31.366999999969266
312447.0877,-3.9272394649997295,0.07314245979122515,26.636383494206072,13.498525413507393,31.367999999958556
312447.0887,-1.132280413473742,1.778859533071717,26.691828506440075,15.002409561087804,31.369000000006054
312447.0897,1.6952627110004428,3.4728962670014143,26.368593899956835,16.306075773926,31.369999999995343
312447.0907,4.5578437808441254,5.1846666763844,25.74645642455189,17.45218625113005,31.370999999984633
312447.0917,7.459167638548958,6.942060996283166,24.90936258601554,18.48457015772416,31.371999999973923
312447.0927,10.398558266503239,8.765497092546711,23.937374384902906,19.441382956081334,31.372999999963213
312447.0937,13.365968092741575,10.662807560183374,22.89949953811346,20.349158573492907,31.37400000001071
312447.0947,16.33825003216222,12.625541559430232,21.848099992392864,21.218398707616647,31.375
312447.0957,19.277172945104063,14.627114921640093,20.815406310928072,22.041183164176534,31.37599999998929
312447.0967,22.12947001386653,16.623051910417225,19.812447489176723,22.791075369692646,31.37699999997858
312447.0977,24.828987496423185,18.553346130163874,18.830457476240625,23.42535887364416,31.37799999996787
312447.0987,27.300770920870775,20.34674791903984,17.84456572148209,23.88939741940815,31.37899999995716
312447.0997,29.466710432200596,21.926583127659132,16.819344631905512,24.122687276228255,31.380000000004657
312447.1007,31.252188678971116,23.217543784076085,15.715595249442401,24.06598843736676,31.380999999993946
312447.1017,32.5930517223885,24.152781420988152,14.49762290121786,23.668799429851013,31.381999999983236
312447.1027,33.44216892401716,24.680590103830905,13.140200126803942,22.89639141486601,31.382999999972526
312447.1037,33.774867836153234,24.769993291341645,11.634440547899958,21.735646422017357,31.383999999961816
312447.1047,33.59262359617651,24.41464445166517,9.991912257300362,20.199049694039303,31.385000000009313
312447.1057,32.9245407006604,23.634606921063707,8.246492744551084,18.326357449469697,31.385999999998603
312447.1067,31.82637326438522,22.475778958670713,6.453692532406535,16.18368254815219,31.386999999987893
312447.1077,30.377067829727714,21.006955944747414,4.68742960286149,13.859990220172287,31.387999999977183
312447.1087,28.67305723628793,19.314751199431537,3.0344963640501197,11.46124992774741,31.388999999966472
312447.1097,26.82076089635846,17.496807504183018,1.5871997966016764,9.102722760210991,31.389999999955762
312447.1107,24.92793348176426,15.653902362297217,0.43484988962791243,6.900053585669629,31.39100000000326
312447.1117,23.094631701229286,13.88166438011839,-0.34509786623873284,4.959964700507885,31.39199999999255
312447.1127,21.404624350910996,12.262664369083245,-0.6953865860479019,3.3714001072877204,31.39299999998184
312447.1137,19.918047919638905,10.859617925122912,-0.585958693137323,2.1979412305763284,31.39399999997113
312447.1147,18.666010083236795,9.710338485198662,-0.01889327278404562,1.4722080655167293,31.39499999996042
312447.1157,17.647675280227304,8.824920235412257,0.9692591050113155,1.1927842603701846,31.396000000007916
312447.1167,16.83014573270996,8.18542383013983,2.30804871110539,1.3239769350578696,31.396999999997206
312447.1177,16.15119843926277,7.748104339850803,3.896644543147136,1.7984636779982364,31.397999999986496
312447.1187,15.524677675006714,7.447982524827208,5.610063628871908,2.5226146817582027,31.398999999975786
312447.1197,14.848098113165683,7.205340303851818,7.307624685648274,3.384032538014893,31.399999999965075
312447.1207,14.011809042293196,6.933540328553538,8.84292996855652,4.260649175091199,31.401000000012573
312447.1217,12.908924747844015,6.547445314271425,10.074533872412772,5.030578091686637,31.402000000001863
312447.1227,11.445153779342382,5.9716572024048675,10.876389370820121,5.581853805404717,31.402999999991152
312447.1237,9.547667398310114,5.147814709718467,11.147180186910239,5.8212054732925615,31.403999999980442
312447.1247,7.1722342440292035,4.040278586694859,10.817746134839899,5.68110633064419,31.404999999969732
312447.1257,4.308005873634405,2.639688209817275,9.855981861550282,5.124505668388852,31.405999999959022
312447.1267,0.9795513098829839,0.9640760841476689,8.268818754918357,4.146869521086897,31.40700000000652
312447.1277,-2.7540122280056423,-0.9425411508729761,6.101164148029057,2.775408871917836,31.40799999999581
312447.1287,-6.802684226530543,-3.0139379161580595,3.431945922869745,1.0656356744317557,31.4089999999851
312447.1297,-11.051684877098777,-5.16744139845263,0.36766812921341996,-0.9043677454756253,31.40999999997439
312447.1307,-15.36942921148739,-7.3111153691141855,-2.965900111250301,-3.0413747258410564,31.41099999996368
312447.1317,-19.616645596792306,-9.35167237169382,-6.433124706785665,-5.245398058568661,31.412000000011176
312447.1327,-23.65582581626326,-11.202358801770918,-9.89813811797555,-7.418220096394013,31.413000000000466
312447.1337,-27.360184183095978,-12.790068932167094,-13.233847352026457,-9.471263227679788,31.413999999989755
312447.1347,-30.621370485699448,-14.061027227767532,-16.329547529659134,-11.332078225086962,31.414999999979045
312447.1357,-33.3553185330085,-14.984524861331256,-19.09652656401634,-12.948880515438084,31.415999999968335
312447.1367,-35.50580450221672,-15.554391561028357,-21.471259286254785,-14.2927704510085,31.416999999957625
312447.1377,-37.04551781738189,-15.788108476887269,-23.416037060522395,-15.357512436267807,31.418000000005122
312447.1387,-37.974689244112675,-15.723699544744843,-24.91713682848795,-16.15699543209205,31.418999999994412
312447.1397,-38.31755255697447,-15.414755136362958,-25.98087605726838,-16.72072933950608,31.419999999983702
312447.1407,-38.117115076284,-14.924121509490295,-26.6281033764677,-17.087925165555518,31.42099999997299
312447.1417,-37.428859588549855,-14.316915282654168,-26.88781896625907,-17.300842745867097,31.42199999996228
312447.1427,-36.31408195696496,-13.653581796445113,-26.790690169181424,-17.398154990649164,31.42300000000978
312447.1437,-34.833577984096046,-12.983704258265675,-26.36321983721374,-17.40906605717344,31.42399999999907
312447.1447,-33.042329940030704,-12.34118852477279,-25.623239018611148,-17.348834106087633,31.42499999998836
312447.1457,-30.985714927878206,-11.741304658553922,-24.577240915623907,-17.21619641409128,31.42599999997765
312447.1467,-28.69757765120651,-11.179875440448217,-23.21986559435763,-16.99299118665575,31.426999999966938
312447.1477,-26.200297923604133,-10.634682865979281,-21.535605890075878,-16.646037029167154,31.427999999956228
312447.1487,-23.50676030975912,-10.068938066438374,-19.502558595503416,-16.131091225382704,31.429000000003725
312447.1497,-20.62392245825699,-9.436450416865435,-17.097816287368794,-15.398485881618457,31.429999999993015
312447.1507,-17.55750150955795,-8.687958556158165,-14.303907182633425,-14.39985898767224,31.430999999982305
312447.1517,-14.317172510494164,-7.777966733590761,-11.11556228875482,-13.095273894308137,31.431999999971595
312447.1527,-10.921611854727022,-6.6713760748365125,-7.54603394095141,-11.459968178254291,31.432999999960884
312447.1537,-7.402728679204998,-5.349217320892027,-3.632213491321758,-9.489996875471977,31.434000000008382
312447.1547,-3.8085069999764083,-3.812877640182089,0.5621034839781078,-7.206133531580259,31.43499999999767
312447.1557,-0.20402320726017278,-2.0863607380765865,4.945288082536772,-4.655555969634646,31.43599999998696
312447.1567,3.3296068932237057,-0.21631220693173595,9.399549469782007,-1.9110561708701477,31.43699999997625
312447.1577,6.698379140042814,1.7302381519566694,13.785221978110185,0.9322456316517481,31.43799999996554
312447.1587,9.800453169174107,3.670240138114946,17.947428258591945,3.7624573139364275,31.43900000001304
312447.1597,12.53270039020824,5.510707876026885,21.724643197272357,6.4582907771532705,31.44000000000233
312447.1607,14.798172013469314,7.1559693160366455,24.958490003611136,8.89762294179105,31.440999999991618
312447.1617,16.51379632240824,8.515407717678626,27.50396795428056,10.966484002841964,31.441999999980908
312447.1627,17.617567078066703,9.510971429094665,29.239253858661364,12.567664396071208,31.442999999970198
312447.1637,18.074510911555087,10.083748147883494,30.07424231611764,13.628159058174264,31.443999999959487
312447.1647,17.880819056094726,10.198988481564976,29.957091366727546,14.104770177444514,31.445000000006985
312447.1657,17.065688871764657,9.849112209985638,28.8782106675517,13.987357917931785,31.445999999996275
312447.1667,15.690628080780197,9.054424441617423,26.8713526090392,13.29944627926187,31.446999999985565
312447.1677,13.846209378586666,7.861488633668899,24.011721438070484,12.096137170418656,31.447999999974854
312447.1687,11.646502175936915,6.339327437594348,20.41127704883725,10.459535978283398,31.448999999964144
312447.1697,9.2216281333587,4.573828377089066,16.21165356790328,8.492122018021123,31.45000000001164
312447.1707,6.709066104284494,2.6608991326496074,11.575314944362317,6.30868485739223,31.45100000000093
312447.1717,4.244452275877946,0.699030220680724,6.6757113213643215,4.027574399244781,31.45199999999022
312447.1727,1.952670587219213,-1.2180298578125974,1.6872678714043494,1.7620665697258926,31.45299999997951
312447.1737,-0.05999822885860487,-3.0078047463416167,-3.2239738243646023,-0.38737751888928945,31.4539999999688
312447.1747,-1.7120010387768223,-4.604233682618198,-7.908330873124658,-2.3392802995776307,31.45499999995809
312447.1757,-2.9504066344376465,-5.960984700688283,-12.2384966099988,-4.035230134523351,31.456000000005588
312447.1767,-3.752278984423092,-7.052685330862659,-16.113235021175736,-5.441576128497194,31.456999999994878
312447.1777,-4.123478195486632,-7.874033352036669,-19.45862516157576,-6.548674503047673,31.457999999984168
312447.1787,-4.095081590055033,-8.43696672267341,-22.226973345185193,-7.367869408498267,31.458999999973457
312447.1797,-3.7178408837459815,-8.766268292961879,-24.393736924940303,-7.9266139689581205,31.459999999962747
312447.1807,-3.055273083349194,-8.89413748596054,-25.95298831764516,-8.262317356690122,31.461000000010245
312447.1817,-2.176104658992289,-8.854362072204973,-26.912073320815043,-8.415623002567056,31.461999999999534
312447.1827,-1.1468389096283294,-8.676758298820893,-27.286171622034914,-8.423869967435538,31.462999999988824
312447.1837,-0.02519044412945074,-8.382513433299568,-27.093444989868335,-8.315459548148045,31.463999999978114
312447.1847,1.1449689088070074,-7.980964670829157,-26.351363052672433,-8.105745556578002,31.464999999967404
312447.1857,2.3366716463180714,-7.468192384412866,-25.074638398418053,-7.794899916302378,31.465999999956694
312447.1867,3.5406529536290625,-6.827609551692157,-23.27499893726264,-7.367992092949365,31.46700000000419
312447.1877,4.763852011806169,-6.03251263459882,-20.962797681945208,-6.797282865082718,31.46799999999348
312447.1887,6.025821841359846,-5.050344106829439,-18.150232381330117,-6.04649401661353,31.46899999998277
312447.1897,7.353471546417054,-3.84822506758839,-14.855743837232701,-5.076599791119869,31.46999999997206
312447.1907,8.774740104439035,-2.399167587169423,-11.109003829898432,-3.8525152476984137,31.47099999996135
312447.1917,10.311915553996318,-0.6882860760006819,-6.95580830642099,-2.349948438420085,31.472000000008848
312447.1927,11.97535595828734,1.2816951843251667,-2.462169416563341,-0.56164888508437,31.472999999998137
312447.1937,13.75833437850984,3.486292103657697,2.2830457501963095,1.4976718092003747,31.473999999987427
312447.1947,15.633622369104517,5.87700580856085,7.167455868179257,3.7883538818516023,31.474999999976717
312447.1957,17.552255580396775,8.381326987300664,12.05682580464234,6.245163902620177,31.475999999966007
312447.1967,19.444707571231135,10.905150590503819,16.79915932755214,8.77922938456263,31.476999999955297
312447.1977,21.224455189660294,13.337518697131507,21.23108933043925,11.28248259813406,31.478000000002794
312447.1987,22.793674732651894,15.557378739972384,25.186188333666234,13.634312577987947,31.478999999992084
312447.1997,24.05058663657254,17.441838724913627,28.504608536091684,15.709899041658536,31.479999999981374
312447.2007,24.89778964675245,18.875240768471738,31.04329774961565,17.389523674905522,31.480999999970663
312447.2017,25.250810965918355,19.75827520130573,32.685942003531224,18.56804073657076,31.481999999959953
312447.2027,25.046058487675833,20.016329856604127,33.35176797322896,19.16365180022345,31.48300000000745
312447.2037,24.24739943445809,19.60631642682879,33.00240181753902,19.12517299731934,31.48399999999674
312447.2047,22.850703486009234,18.52133425459153,31.646120945503686,18.437103951699015,31.48499999998603
312447.2057,20.885867423171277,16.792711157014327,29.339039808791583,17.12199487642217,31.48599999997532
312447.2067,18.416065698256602,14.489184591116441,26.183021933125563,15.239844820358444,31.48699999996461
312447.2077,15.534225708430217,11.713234100008268,22.320385409238963,12.884527814729967,31.488000000012107
312447.2087,12.356983735467534,8.594824656977503,17.925742865911634,10.177510012025879,31.489000000001397
312447.2097,9.016612998536413,5.283047208709496,13.195564357490433,7.259364836325303,31.489999999990687
312447.2107,5.6516065099700645,1.9363263983404797,8.336249707987898,4.279791737013671,31.490999999979977
312447.2117,2.396726049735529,-1.2880108672407506,3.551627201341645,1.3869786680219938,31.491999999969266
312447.2127,-0.6266178643350674,-4.243960013111019,-0.9691541672969409,-1.2827937503283082,31.492999999958556
312447.2137,-3.318816948914053,-6.8060342444534365,-5.062406243042922,-3.6144326946784835,31.494000000006054
312447.2147,-5.608613860279025,-8.876705747279575,-8.598540933922823,-5.521428540048333,31.494999999995343
312447.2157,-7.457188534082332,-10.391528913001284,-11.487938827805742,-6.950769361974544,31.495999999984633
312447.2167,-8.859447153455768,-11.321592043796223,-13.68366094093259,-7.885005917457797,31.496999999973923
312447.2177,-9.842434584155738,-11.67318315199478,-15.18089131513144,-8.341357584954544,31.497999999963213
312447.2187,-10.461053573143015,-11.48480115773769,-16.013279016303404,-8.368016316023672,31.49900000001071
312447.2197,-10.791518334017097,-10.821873135377892,-16.24661011571688,-8.038054680437268,31.5
312447.2207,-10.92317336033475,-9.769730119368758,-15.970459657374713,-7.441552354636805,31.50099999998929
312447.2217,-10.949451396543816,-8.425530956863032,-15.288630723831616,-6.67670370048318,31.50199999997858
312447.2227,-10.958814206730043,-6.889893767473725,-14.309268739773374,-5.8407440251489104,31.50299999996787
312447.2237,-11.026509887894845,-5.258992208705273,-13.135537536393436,-5.021527401654094,31.50399999995716
312447.2247,-11.207892351716797,-3.6178003834035715,-11.857660672848844,-4.2905059075045475,31.505000000004657
312447.2257,-11.533891068332606,-2.0350340719685343,-10.546975944551424,-3.6977076264053115,31.505999999993946
312447.2267,-12.009007629697377,-0.5601511667439852,-9.252438530812965,-3.269104162325315,31.506999999983236
312447.2277,-12.6119706368364,0.7774406083790493,-7.9997597161104,-3.0065182124068697,31.507999999972526
312447.2287,-13.298925442087667,1.9670440429872464,-6.7931076600890385,-2.88997148110568,31.508999999961816
312447.2297,-14.008794820537354,3.0134863169301633,-5.619049310724612,-2.8821372207871456,31.510000000009313
312447.2307,-14.670243633635575,3.93254825311038,-4.452201798638633,-2.934362709657964,31.510999999998603
312447.2317,-15.209534206899976,4.745596509492397,-3.261907343603517,-2.993584013197153,31.511999999987893
312447.2327,-15.55848315194249,5.474069554566956,-2.019162064055916,-3.0093818106794186,31.512999999977183
312447.2337,-15.661731548972035,6.134463600653148,-0.7030233700441635,-2.940429416630464,31.513999999966472
312447.2347,-15.482618101767624,6.734393318573218,0.6942075258499126,-2.7596614119455256,31.514999999955762
312447.2357,-15.00709100019195,7.270172029534086,2.1635899548653272,-2.4576351762268462,31.51600000000326
312447.2367,-14.245294079118427,7.726180903149502,3.678300535103018,-2.043753210068722,31.51699999999255
312447.2377,-13.230696582852229,8.076094679001406,5.19467646103371,-1.5452415373113182,31.51799999998184
312447.2387,-12.016880349624008,8.285823405858626,6.655436460763468,-1.0040156999897507,31.51899999997113
312447.2397,-10.672329488891329,8.31783704718998,7.994740211556907,-0.47178713311042536,31.51999999996042
312447.2407,-9.27376300746279,8.136382341630364,9.144552331928503,-0.003946831213792376,31.521000000007916
312447.2417,-7.898691341888313,7.712995275958593,10.041637384334459,0.3471082408152449,31.521999999997206
312447.2427,-6.617949843498182,7.031668976244085,10.634441431976484,0.5384804292143641,31.522999999986496
312447.2437,-5.48895919812994,6.0930604950273874,10.889120536871381,0.5423971079223822,31.523999999975786
312447.2447,-4.550385236675532,4.917208823416527,10.794056577562953,0.350332839779768,31.524999999965075
312447.2457,-3.8187266391241925,3.5443818427489497,10.362347871593036,-0.024844532484778744,31.526000000012573
312447.2467,-3.28716321728676,2.033857457433576,9.631961646178056,-0.5489758687232662,31.527000000001863
312447.2477,-2.9267694189711233,0.46065509906322594,8.66346757737276,-1.1690033291109398,31.527999999991152
312447.2487,-2.689960193096532,-1.0895530271233664,7.535513376502193,-1.8174607219009238,31.528999999980442
312447.2497,-2.5158130257538556,-2.5269277205454412,6.338430775348927,-2.41865102128121,31.529999999969732
312447.2507,-2.336722971232126,-3.764767579358847,5.1665507074341654,-2.8959223777066185,31.530999999959022
312447.2517,-2.085715377339642,-4.726955115851385,4.109941097384159,-3.1793334942919036,31.53200000000652
312447.2527,-1.7036767833065443,-5.354832538336458,3.246346035057533,-3.212948787424764,31.53299999999581
312447.2537,-1.1457744364218378,-5.6128314919759115,2.6340946015865785,-2.9610287107128936,31.5339999999851
312447.2547,-0.38641794383957506,-5.492284190349598,2.3066620446972,-2.412478949924447,31.53499999997439
312447.2557,0.5777355975406299,-5.013004322591257,2.2694135402167586,-1.5830845600505423,31.53599999996368
312447.2567,1.7270338463337274,-4.222429740015804,2.4988561512811986,-0.5152658059529579,31.537000000011176
312447.2577,3.020411659507116,-3.1923457609354573,2.9444876498597736,0.7246690582031367,31.538000000000466
312447.2587,4.399141068991917,-2.0134361235163314,3.5330846203859014,2.0515559374347396,31.538999999989755
312447.2597,5.792366729832355,-0.7881160314109927,4.175040677327331,3.368250390977543,31.539999999979045
312447.2607,7.123863455638426,0.37773186415842125,4.772171241814558,4.573722930909704,31.540999999968335
312447.2617,8.319327469758802,1.3833886819862635,5.226263064404311,5.5716281309856175,31.541999999957625
312447.2627,9.313457063666304,2.1415271018922066,5.447578006664082,6.278550846125284,31.543000000005122
312447.2637,10.056097369555683,2.5852969209208028,5.3625281639977125,6.631159111413339,31.543999999994412
312447.2647,10.516816403981563,2.673631295733803,4.919822434435045,6.591594236389494,31.544999999983702
312447.2657,10.687436603764558,2.3942988156803597,4.0945349426160496,6.150594627708456,31.54599999997299
312447.2667,10.58225246642766,1.7644340022420915,2.8897485638810982,5.328064971457308,31.54699999996228
312447.2677,10.235900338776988,0.8285118582832295,1.3356622737847708,4.171045770525364,31.54800000000978
312447.2687,9.699087550375959,-0.3460314518185502,-0.5137038982999899,2.749286250238683,31.54899999999907
312447.2697,9.032610886930605,-1.6751123336418845,-2.585841901043775,1.1488522104370347,31.54999999998836
312447.2707,8.30027637022858,-3.0656508619238796,-4.796568622756516,-0.5356127342298842,31.55099999997765
312447.2717,7.561454812274212,-4.423841320345495,-7.0576229920681435,-2.209227139509961,31.551999999966938
312447.2727,6.864057691401225,-5.663271562785583,-9.284283030532977,-3.7850129359856384,31.552999999956228
312447.2737,6.238689625872375,-6.712141032377256,-11.402246225954281,-5.191060926963009,31.554000000003725
312447.2747,5.694628833574255,-7.518918821845921,-13.353099250055784,-6.376042247450101,31.554999999993015
312447.2757,5.218114779065748,-8.055936924245119,-15.097852551031679,-7.31255200824279,31.555999999982305
312447.2767,4.773198777533099,-8.320614966715784,-16.618216867026653,-7.99798587408134,31.556999999971595
312447.2777,4.305159945162154,-8.334241858080107,-17.915532233838338,-8.452893926192061,31.557999999960884
312447.2787,3.7462300633325545,-8.138474851635655,-19.007502400727542,-8.717005073894239,31.559000000008382
312447.2797,3.023132011959618,-7.789934909752688,-19.92311459513739,-8.843345183227429,31.55999999999767
312447.2807,2.0657411519353226,-7.353457963997536,-20.696313607934158,-8.8910604685205,31.56099999998696
312447.2817,0.8160471624503359,-6.89468735260901,-21.359131209274132,-8.917686041298904,31.56199999997625
312447.2827,-0.7634608030162702,-6.47275137511818,-21.935033529924215,-8.971655150646491,31.56299999996554
312447.2837,-2.682833699015572,-6.133756015863476,-22.43323375400036,-9.08582197722184,31.56400000001304
312447.2847,-4.9198637196309924,-5.905737971914885,-22.84462635704594,-9.272671897184965,31.56500000000233
312447.2857,-7.417999894513049,-5.795575584579873,-23.139840789233094,-9.521727409823017,31.565999999991618
312447.2867,-10.087291140417499,-5.78815960182559,-23.269702236034316,-9.799441471083188,31.566999999980908
312447.2877,-12.808395970428101,-5.847901045646954,-23.168145377923743,-10.051623839412853,31.567999999970198
312447.2887,-15.439416010192902,-5.922421782791315,-22.757377604532017,-10.208194218322243,31.568999999959487
312447.2897,-17.825046739227805,-5.9480573240972205,-21.95485548299924,-10.189823086523637,31.570000000006985
312447.2907,-19.807318483559904,-5.856621992537294,-20.68144547175655,-9.915829972325554,31.570999999996275
312447.2917,-21.237044678152856,-5.58276139512437,-18.870006161147785,-9.31257837263436,31.571999999985565
312447.2927,-21.98501783979969,-5.071158305775153,-16.473568292161247,-8.321549504351918,31.572999999974854
312447.2937,-21.95200414162654,-4.282871330634694,-13.47230703075776,-6.906299447964521,31.573999999964144
312447.2947,-21.0766843717347,-3.2001697643489924,-9.878597373660504,-5.057604133235236,31.57500000001164
312447.2957,-19.340863660687514,-1.8293746286829042,-5.739609467809785,-2.7962646156429427,31.57600000000093
312447.2967,-16.77150861918988,-0.20141067890511438,-1.1371206051910479,-0.17326514219894204,31.57699999999022
312447.2977,-13.439446568677559,1.6300018831750882,3.8155260360487535,2.73277255753454,31.57799999997951
312447.2987,-9.454851757441313,3.592356055517018,8.979123268508316,5.820637725015876,31.5789999999688
312447.2997,-4.959920898327009,5.600191321452789,14.196523030360717,8.973641439406732,31.57999999995809
312447.3007,-0.1193793472216089,7.562196650403181,19.302134230237815,12.06815180281504,31.581000000005588
312447.3017,4.890362238281668,9.38890328754911,24.132201097975635,14.982778394057707,31.581999999994878
312447.3027,9.892479071322938,11.00022893812778,28.534994047239127,17.60736819346895,31.582999999984168
312447.3037,14.720493232921324,12.332148835309722,32.380052387852565,19.850992845357815,31.583999999973457
312447.3047,19.227656369682922,13.34185412814755,35.56570611557933,21.648203578001787,31.584999999962747
312447.3057,23.2942344754629,14.010905752018932,38.0242640951627,22.962996032581934,31.586000000010245
312447.3067,26.83218721041587,14.346087961475574,39.72447286905592,23.79014655654156,31.586999999999534
312447.3077,29.78698878254429,14.377890741008578,40.67110317003568,24.153832859451793,31.587999999988824
312447.3087,32.13660951140346,14.156782197005668,40.901785592921925,24.10371083471966,31.588999999978114
312447.3097,33.88794037886646,13.747647903324397,40.48146727742051,23.70886060220956,31.589999999967404
312447.3107,35.071171864880206,13.222952712136575,39.495073749097735,23.050214947648097,31.590999999956694
312447.3117,35.73281151343179,12.655304114500591,38.03911390092006,22.21222289638617,31.59200000000419
312447.3127,35.92812606053294,12.110152634480926,36.213046887047405,21.27456669513066,31.59299999999348
312447.3137,35.71381493333323,11.63934840717021,34.11123006794844,20.304735804625086,31.59399999998277
312447.3147,35.14166191083589,11.276185671777665,31.816187653516316,19.352168337510776,31.59499999997206
312447.3157,34.253778184384174,11.032417102263182,29.393788778355763,18.444508130904772,31.59599999996135
312447.3167,33.07985766538472,10.897522586123767,26.89071688459667,17.586310520040055,31.597000000008848
312447.3177,31.636634554608445,10.840291847148382,24.334370446340383,16.760283243082412,31.597999999998137
312447.3187,29.929487918130267,10.812549557979626,21.73508260828941,15.930895175144917,31.598999999987427
312447.3197,27.955903491217974,10.754638215568617,19.090309558683455,15.049949815815404,31.599999999976717
312447.3207,25.710302977831628,10.602099237273956,16.390238183376383,14.063525857611596,31.600999999966007
312447.3217,23.18960582177544,10.292873821990803,13.624122595145808,12.919552839472338,31.601999999955297
312447.3227,20.398812172875203,9.774293898119002,10.786590438632752,11.575228941940551,31.603000000002794
312447.3237,17.355895824604616,9.009155015390581,7.883170089916774,10.003506240404914,31.603999999992084
312447.3247,14.09537174004146,7.980255178246025,4.934377715213639,8.1979642035062,31.604999999981374
312447.3257,10.670046212696601,6.692937211316724,1.9778595404104462,6.175555297089914,31.605999999970663
312447.3267,7.1506537171411,5.175372048896887,-0.9317063569957048,3.9769209713889593,31.606999999959953
312447.3277,3.6233128065340248,3.4765465263041615,-3.7250041428790146,1.6642207742576045,31.60800000000745
312447.3287,0.1849705023124426,1.66214937791203,-6.32257843306011,-0.6833323852747404,31.60899999999674
312447.3297,-3.0627738748971054,-0.19123963373881633,-8.64101588304464,-2.9758064824414348,31.60999999998603
312447.3307,-6.020891361411278,-2.003081219722262,-10.60020206253474,-5.1201403349731125,31.61099999997532
312447.3317,-8.600492630446844,-3.6962381302302423,-12.130918962823078,-7.028246646308265,31.61199999996461
312447.3327,-10.729988787361721,-5.204030344497255,-13.181995936963078,-8.624830087469952,31.613000000012107
312447.3337,-12.361110032462584,-6.476274761624621,-13.726254145176503,-9.854145926681285,31.614000000001397
312447.3347,-13.473145192615902,-7.483698287223725,-13.764589514436265,-10.685025030944441,31.614999999990687
312447.3357,-14.07492789868751,-8.220272464150911,-13.327711883784055,-11.113658365633881,31.615999999979977
312447.3367,-14.204308363354414,-8.703222753222782,-12.475281641798063,-11.16385203189864,31.616999999969266
312447.3377,-13.925092442814814,-8.970696154258006,-11.292437843565974,-10.884711036348348,31.617999999958556
312447.3387,-13.321678018483382,-9.07730440940067,-9.88396858429708,-10.345962112189026,31.619000000006054
312447.3397,-12.491848061436164,-9.087973527881495,-8.366609821527481,-9.631358216184342,31.619999999995343
312447.3407,-11.538367105659859,-9.070702689214068,-6.860149370965107,-8.830796935980024,31.620999999984633
312447.3417,-10.560154302618662,-9.088949566917892,-5.478139254946548,-8.031913240527807,31.621999999973923
312447.3427,-9.643858677166072,-9.194403273445728,-4.319068979109811,-7.31196107116804,31.622999999963213
312447.3437,-8.856634759177517,-9.420875760958047,-3.458819192469315,-6.730772725919115,31.62400000001071
312447.3447,-8.240811335768111,-9.779940192736989,-2.945102167795145,-6.325482143769844,31.625
312447.3457,-7.810972221304047,-10.258780130816382,-2.794413088998136,-6.107527923880085,31.62599999998929
312447.3467,-7.553742001410751,-10.82050208440676,-2.9917815616646326,-6.06223069848973,31.62699999997858
312447.3477,-7.430313194856859,-11.406926345587912,-3.493348557716155,-6.150988805036732,31.62799999996787
312447.3487,-7.3814888370553975,-11.943630050857758,-4.231525647043836,-6.31588047455831,31.62899999995716
312447.3497,-7.334771497257397,-12.346795406847415,-5.122246862124405,-6.486224912163223,31.630000000004657
312447.3507,-7.212829837757946,-12.531236507446133,-6.073622884188829,-6.586461744292422,31.630999999993946
312447.3517,-6.94253660026009,-12.418857703675247,-6.995172084075772,-6.5445772620457285,31.631999999983236
312447.3527,-6.463710983565219,-11.946746965703438,-7.806746680825556,-6.300249628481546,31.632999999972526
312447.3537,-5.736720059112346,-11.074134173312576,-8.446300689311402,-5.811909411856101,31.633999999961816
312447.3547,-4.748196496432214,-9.787544530141115,-8.87575702779617,-5.0620143041314885,31.635000000009313
312447.3557,-3.5143039507285176,-8.103641931709177,-9.084413781525583,-4.0600079030191685,31.635999999998603
312447.3567,-2.0812105783609978,-6.069470505418941,-9.089566799620476,-2.8426555021432978,31.636999999987893
312447.3577,-0.5226935126067404,-3.760044325524021,-8.934294822481768,-1.4717033719468124,31.637999999977183
312447.3587,1.0649322890395125,-1.2734823594543627,-8.682628311511825,-0.029067438129792143,31.638999999966472
312447.3597,2.570114504563359,1.2758856387386528,-8.412577526099145,1.3900026313681926,31.639999999955762
312447.3607,3.874935866689531,3.76582821150252,-8.207704505939642,2.6851405070505425,31.64100000000326
312447.3617,4.864752256106545,6.075192141397397,-8.148067103966191,3.759682556826887,31.64199999999255
312447.3627,5.4377175661233075,8.09274980913967,-8.301426991042105,4.529250331418088,31.64299999998184
312447.3637,5.513327025183945,9.7251274521881,-8.715591199144214,4.929277919483988,31.64399999997113
312447.3647,5.03920333055047,10.903119181879646,-9.412650178967166,4.920766030759749,31.64499999996042
312447.3657,3.9955156664142586,11.585848412324033,-10.385694568924185,4.4937143505126,31.646000000007916
312447.3667,2.3966444152532307,11.762445245763974,-11.598355156351962,3.667906536030706,31.646999999997206
312447.3677,0.28996263839148506,11.451145209027754,-12.987238657972402,2.490976588472461,31.647999999986496
312447.3687,-2.2481256361759683,10.695958564217955,-14.467052106467385,1.033946550440409,31.648999999975786
312447.3697,-5.118496396762497,9.561286646443556,-15.93794777899918,-0.6153317964607982,31.649999999965075
312447.3707,-8.207357383252644,8.12505043601834,-17.294403930631756,-2.3601978717723155,31.651000000012573
312447.3717,-11.39527705126295,6.4710288048281885,-18.43480506233637,-4.103893303385688,31.652000000001863
312447.3727,-14.566346276838459,4.681167116320738,-19.270813760703557,-5.758126155666318,31.652999999991152
312447.3737,-17.616628606490455,2.828605411237887,-19.735641308622125,-7.250668346817066,31.653999999980442
312447.3747,-20.46113573330889,0.9720908910943558,-19.79042492818995,-8.5312623971304,31.654999999969732
312447.3757,-23.03871787746135,-0.8477094406400983,-19.42809608508563,-9.575279740358086,31.655999999959022
312447.3767,-25.314468487412363,-2.6096783142540643,-18.674359853208486,-10.384792614905496,31.65700000000652
312447.3777,-27.27948839080528,-4.311410026213048,-17.585677332048007,-10.986973613045377,31.65799999999581
312447.3787,-28.94811211295093,-5.966209497298329,-16.24442546294522,-11.429996786332568,31.6589999999851
312447.3797,-30.35294348204129,-7.598292155061708,-14.751674277123321,-11.776856554869628,31.65999999997439
312447.3807,-31.53825527076883,-9.23672927914041,-13.218245252626323,-12.09772206438939,31.66099999996368
312447.3817,-32.5524586713633,-10.908809142767328,-11.754874786012914,-12.461585624958975,31.662000000011176
312447.3827,-33.440428729421434,-12.633542417956793,-10.46238867503977,-12.928030910775217,31.663000000000466
312447.3837,-34.23647435252966,-14.41602535173017,-9.422789433785265,-13.539933386002012,31.663999999989755
312447.3847,-34.958666706330575,-16.243287838262837,-8.692068993953185,-14.317813451799369,31.664999999979045
312447.3857,-35.60509581173461,-18.08210440050587,-8.295393850926049,-15.256401245763076,31.665999999968335
312447.3867,-36.15242676893498,-19.8790490987391,-8.225084247407354,-16.323756773483165,31.666999999957625
312447.3877,-36.556894273011736,-21.56285002637882,-8.441545492702902,-17.463041198092135,31.668000000005122
312447.3887,-36.75763017733551,-23.04886761311249,-8.877033465203022,-18.59677885268378,31.668999999994412
312447.3897,-36.681987932830424,-24.245306272877848,-9.441874257366441,-19.633209808700578,31.669999999983702
312447.3907,-36.252332430638,-25.060592169946,-10.03253478021041,-20.474132870779712,31.67099999997299
312447.3917,-35.39362304179926,-25.411228434800183,-10.540777978801072,-21.02349795026274,31.67199999996228
312447.3927,-34.04104485984354,-25.22938498488705,-10.863048176440746,-21.195938328684854,31.67300000000978
312447.3937,-32.146944838974434,-24.469498505379605,-10.909226612041367,-20.92444364838381,31.67399999999907
312447.3947,-29.68640475399351,-23.113247287531422,-10.609974007002014,-20.166462107841703,31.67499999998836
312447.3957,-26.660923445407672,-21.17241671579909,-9.92202753511615,-18.90787626695136,31.67599999997765
312447.3967,-23.09987196850863,-18.68936936744258,-8.831028294859522,-17.164505392504378,31.676999999966938
312447.3977,-19.05960742259883,-15.735059463233133,-7.351701187525805,-14.981027615752934,31.677999999956228
312447.3987,-14.620361848912413,-12.40476263542493,-5.525467463760692,-12.42746353062486,31.679000000003725
312447.3997,-9.881238456392673,-8.811906029542255,-3.4158156233396304,-9.593594776823986,31.679999999993015
312447.4007,-4.9538270483970015,-5.080559756720203,-1.1019649018760862,-6.581883938088458,31.680999999982305
312447.4017,0.04492380683216512,-1.3372716036526424,1.3284927775897097,-3.499597059493875,31.681999999971595
312447.4027,4.9998807086970105,2.2970188864587664,3.7872059519334154,-0.4508944021085312,31.682999999960884
312447.4037,9.804260127102118,5.714268292653268,6.192162940351806,2.470357060692425,31.684000000008382
312447.4047,14.364919936348814,8.82518747600723,8.473583166920092,5.18638260331446,31.68499999999767
312447.4057,18.605945959737625,11.563185944008518,10.57804980030204,7.639395430571632,31.68599999998696
312447.4067,22.470259647658544,13.88611170334282,12.470530023695225,9.793276134699825,31.68699999997625
312447.4077,25.919187351432587,15.77571572254993,14.134159335931695,11.632953995238688,31.68799999996554
312447.4087,28.930150399318613,17.234994649978134,15.56790594368976,13.161645166428288,31.68900000001304
312447.4097,31.492835972866505,18.28377249273395,16.782456256955832,14.396321990376729,31.69000000000233
312447.4107,33.60437111602092,18.953051221999385,17.79485011208686,15.361967216915469,31.690999999991618
312447.4117,35.264129453478,19.27877518701177,18.62252585036205,16.08528895304605,31.691999999980908
312447.4127,36.46884122060284,19.295703647466794,19.277497693685405,16.588624613738997,31.692999999970198
312447.4137,37.20864748175639,19.03206498972551,19.761374844416302,16.88473983358446,31.693999999959487
312447.4147,37.464641449760286,18.50557749643075,20.061844767776346,16.97313346955175,31.695000000006985
312447.4157,37.208282945546955,17.721273785422284,20.1510909186026,16.83830190089728,31.695999999996275
312447.4167,36.40287151421813,16.671373915264677,19.986412951109383,16.45021048288493,31.696999999985565
312447.4177,35.00703927523898,15.337234731703452,19.513085377587963,15.766987619468795,31.697999999974854
312447.4187,32.979998540932606,13.693181875212032,18.669251889934397,14.739620591184506,31.698999999964144
312447.4197,30.288074319641847,11.711827970398636,17.392431018579803,13.318215577130397,31.70000000001164
312447.4207,26.911888964043072,9.370316126983683,15.627026747015808,11.459208970388316,31.70100000000093
312447.4217,22.85346251114724,6.656818537619872,13.332113586486479,9.132800855091073,31.70199999999022
312447.4227,18.142459204665315,3.576576855274661,10.488712273864722,6.329836414043335,31.70299999997951
312447.4237,12.840853060377063,0.15679891242548177,7.105795612700066,3.0673921676881246,31.7039999999688
312447.4247,7.045400609944084,-3.550176994008356,3.224362458875548,-0.6075710395754703,31.70499999995809
312447.4257,0.8874874922067156,-7.465882532121324,-1.0809174783273015,-4.616957081559944,31.706000000005588
312447.4267,-5.469858559184203,-11.487115271510396,-5.702769929372047,-8.852936714128502,31.706999999994878
312447.4277,-11.83774326049059,-15.48973374625172,-10.5051296301316,-13.182008607481485,31.707999999984168
312447.4287,-18.009669159939317,-19.33462430274345,-15.329484744006418,-17.45147547953382,31.708999999973457
312447.4297,-23.771751572906542,-22.875400004362387,-20.00330044178048,-21.497861880954847,31.709999999962747
312447.4307,-28.914160644553856,-25.967218704761535,-24.34987451849187,-25.156612503051367,31.711000000010245
312447.4317,-33.242933944737544,-28.475990397131305,-28.198841098857,-28.272282387941292,31.711999999999534
312447.4327,-36.5912496333249,-30.28719465345832,-31.396473354478083,-30.708375545780655,31.712999999988824
312447.4337,-38.82927654099587,-31.31355243737801,-33.81494894289967,-32.35601168897088,31.713999999978114
312447.4347,-39.87182279892703,-31.500890855578177,-35.35983131977164,-33.14070004056125,31.714999999967404
312447.4357,-39.68317978733537,-30.831695734169717,-35.97517757617244,-33.02666512079747,31.715999999956694
312447.4367,-38.27878742302694,-29.32605052143954,-35.64589394101287,-32.018386320775996,31.71700000000419
312447.4377,-35.723609311867584,-27.03989163313417,-34.39720349651357,-30.159260324844812,31.71799999999348
312447.4387,-32.12737804847077,-24.060748000112735,-32.29134388434472,-27.527549565917276,31.71899999998277
312447.4397,-27.637127084380694,-20.50135373321805,-29.42185194716211,-24.230016824353704,31.71999999997206
312447.4407,-22.427642747205688,-16.49170660349777,-25.90599499448499,-20.39384349034698,31.72099999996135
312447.4417,-16.6906285505531,-12.170274218276996,-21.87605601118941,-16.15756848328495,31.722000000008848
312447.4427,-10.623459862998015,-7.67511243937942,-17.470259391690817,-11.661853615565171,31.722999999998137
312447.4437,-4.418413202993063,-3.1356512750872136,-12.824128109292877,-7.040873447423357,31.723999999987427
312447.4447,1.7468186283961953,1.3341763237006565,-8.062993298613236,-2.4150449741775115,31.724999999976717
312447.4457,7.716658704052692,5.640929342022739,-3.296240847613885,2.1143363747074173,31.725999999966007
312447.4467,13.362759512868747,9.714433823804486,1.386309112948552,6.468187815755999,31.726999999955297
312447.4477,18.58646970035587,13.50821401882646,5.915715950165074,10.59032166341759,31.728000000002794
312447.4487,23.31867713270406,16.997682315354368,10.242984907849266,14.445822550925184,31.728999999992084
312447.4497,27.51729215906174,20.17640344660155,14.33616717081692,18.017446693234287,31.729999999981374
312447.4507,31.16284232392729,23.050926472560338,18.175963110382497,21.30055737347444,31.730999999970663
312447.4517,34.25280452442666,25.63480443614738,21.750435353839887,24.2972428454664,31.731999999959953
312447.4527,36.79538884379997,27.94248465195293,25.049511230285354,27.0103275725426,31.73300000000745
312447.4537,38.80350283895961,29.98374687536886,28.059956290696707,29.43797950527457,31.73399999999674
312447.4547,40.28956605588887,31.759293466225458,30.76143247679478,31.56953651703424,31.73499999998603
312447.4557,41.26171936734876,33.25796305263851,33.124123571155394,33.38303279213529,31.73599999997532
312447.4567,41.721796189364035,34.45586084682959,35.10823046400172,34.844715684124445,31.73699999996461
312447.4577,41.665211573401955,35.31749279469889,36.66542804804925,35.9106247964949,31.738000000012107
312447.4587,41.08270254455102,35.79877788128312,37.74215576430168,36.53007998902698,31.739000000001397
312447.4597,39.9636417370259,35.85161444006547,38.28440743125235,36.65071642333656,31.739999999990687
312447.4607,38.300467887012054,35.42951195673258,38.243514127387876,36.22453366526493,31.740999999979977
312447.4617,36.09364911523978,34.49368587168453,37.582294249012186,35.214309509259515,31.741999999969266
312447.4627,33.356530943842614,33.018960461584726,36.28088989726928,33.59967934558177,31.742999999958556
312447.4637,30.119426910972592,30.998839061211267,34.341624435225555,31.38220367481178,31.744000000006054
312447.4647,26.43238462924321,28.449180087304526,31.7923012562604,28.58883775481137,31.744999999995343
312447.4657,22.366196332811164,25.410053503970403,28.68751034010661,25.27336935969184,31.745999999984633
312447.4667,18.01140632166135,21.94553183188773,25.10770261142928,21.515588185867102,31.746999999973923
312447.4677,13.4752794022036,18.141374568778158,21.156013188868886,17.41817391788263,31.747999999963213
312447.4687,8.876912706833622,14.100774466689648,16.95304112067067,13.101517078168579,31.74900000001071
312447.4697,4.340875701116823,9.938527534685276,12.63000222824434,8.696894795409479,31.75
312447.4707,-0.010071161662231005,5.774146533883179,8.320841880168889,4.3385916065642816,31.75099999998929
312447.4717,-4.062517088916991,1.7245442544508023,4.154008283234724,0.1556663142241331,31.75199999997858
312447.4727,-7.719493238131395,-2.1030427457761247,0.24463210990583084,-3.735891699590916,31.75299999996787
312447.4737,-10.906434688987217,-5.617241590875242,-3.3121703413798516,-7.239904153731263,31.75399999995716
312447.4747,-13.575425362017073,-8.747280370736492,-6.446253705741789,-10.28503252958331,31.755000000004657
312447.4757,-15.707295098771077,-11.445857059713664,-9.115206118663611,-12.827645339050239,31.755999999993946
312447.4767,-17.31133985574884,-13.689907039621865,-11.304674107547564,-14.852283646164429,31.756999999983236
312447.4777,-18.422663837521863,-15.479244984628217,-13.026242708064226,-16.36971756433559,31.757999999972526
312447.4787,-19.097373964952077,-16.83326843196245,-14.31310353638274,-17.412821610818813,31.758999999961816
312447.4797,-19.406069318901867,-17.786103482121405,-15.21396275318956,-18.030710696496815,31.760000000009313
312447.4807,-19.426239784888057,-18.380728244505683,-15.785817355052133,-18.281749741908886,31.760999999998603
312447.4817,-19.234301528908446,-18.662711042592456,-16.086343948260637,-18.226161080508202,31.761999999987893
312447.4827,-18.89804021273638,-18.674237461906365,-16.16668685977799,-17.918993388427594,31.762999999977183
312447.4837,-18.4702008622235,-18.449068865988437,-16.06539698380769,-17.404179315884555,31.763999999966472
312447.4847,-17.983858255098788,-18.008977641159472,-15.8041616984835,-16.710299242902245,31.764999999955762
312447.4857,-17.45003302946977,-17.362050390612072,-15.385789572076833,-15.848495870664088,31.76600000000326
312447.4867,-16.85780221599213,-16.503054557569897,-14.794688061988198,-14.81276524591033,31.76699999999255
312447.4877,-16.17690921000768,-15.415845797146245,-13.999819663219919,-13.58260560378926,31.76799999998184
312447.4887,-15.36263084876267,-14.077574549000799,-12.959866596828046,-12.127760098325181,31.76899999997113
312447.4897,-14.362432368872643,-12.464252700491413,-11.630101306686,-10.41456741250612,31.76999999996042
312447.4907,-13.123756963658167,-10.557085108977395,-9.970273008760662,-8.413257701626783,31.771000000007916
312447.4917,-11.602173857852929,-8.348872322049319,-7.952698358745577,-6.105418368322075,31.771999999997206
312447.4927,-9.769059901429065,-5.849760815177354,-5.5696999088366494,-3.490816773435454,31.772999999986496
312447.4937,-7.618020221807024,-3.0916595339467587,-2.8395749185598254,-0.5928098350169547,31.773999999975786
312447.4947,-5.169361367047519,-0.13075344864613997,0.18960326270225647,2.538309578563847,31.774999999965075
312447.4957,-2.4721060068321115,2.952283712390903,3.4388590034156663,5.824493209543035,31.776000000012573
312447.4967,0.39673461648445296,6.054560273980594,6.800128068353323,9.161873237852012,31.777000000001863
312447.4977,3.335657025660696,9.055665284516772,10.141002303826642,12.425419409711058,31.777999999991152
312447.4987,6.224694165801174,11.824500518839221,13.312118198860967,15.47601944567308,31.778999999980442
312447.4997,8.933496273401506,14.227735174438589,16.156645622117228,18.169444315070322,31.779999999969732
312447.5007,11.330782968320882,16.139200439148738,18.521122722166904,20.366466599635242,31.780999999959022
312447.5017,13.294346851248639,17.44943001506481,20.266739256012595,21.943272825971928,31.78200000000652
312447.5027,14.720725831717315,18.074514104444017,21.280107617743933,22.80126209180076,31.78299999999581
312447.5037,15.533680347661829,17.963472847886024,21.48258515276913,22.875358825975166,31.7839999999851
312447.5047,15.690711071841946,17.103467950915935,20.837321331121355,22.14008437011523,31.78499999997439
312447.5057,15.187023456404262,15.522348326897868,19.353389316617527,20.612819739866026,31.78599999996368
312447.5067,14.056571565604566,13.2882509227145,17.086606554139784,18.35393313092155,31.787000000011176
312447.5077,12.370073843980743,10.506230725276167,14.13693079415355,15.463718072552856,31.788000000000466
312447.5087,10.230163297358855,7.312150845509136,10.642610636761773,12.076366219457705,31.788999999989755
312447.5097,7.764088692504627,3.8643006851135415,6.771546375437102,8.351456691063914,31.789999999979045
312447.5107,5.114598038140811,0.33340550754569337,2.710552371741588,4.463657638881781,31.790999999968335
312447.5117,2.4297908687891328,-3.1081737825520994,-1.3466149497876707,0.5914856068730411,31.791999999957625
312447.5127,-0.14719246703332806,-6.297188552284456,-5.211504540624374,-3.0939593741416562,31.793000000005122
312447.5137,-2.487775303114316,-9.089350332877274,-8.712525835757969,-6.439376363296482,31.793999999994412
312447.5147,-4.4860527373830195,-11.367521169643547,-11.70492092269446,-9.317950469386794,31.794999999983702
312447.5157,-6.064763847281991,-13.04764586417804,-14.078418197455909,-11.635696638644431,31.79599999997299
312447.5167,-7.178695987343509,-14.082033965296464,-15.76204951458836,-13.33503453141314,31.79699999996228
312447.5177,-7.815332798678583,-14.459839199915404,-16.725871932405536,-14.395425106444527,31.79800000000978
312447.5187,-7.992813864929677,-14.204832441077139,-16.979611064862407,-14.831165810850337,31.79899999999907
312447.5197,-7.755518254794083,-13.370797881272567,-16.568509809996044,-14.686692174154178,31.79999999998836
312447.5207,-7.167793303422547,-12.035079107858351,-15.566899089297275,-14.029945597884486,31.80099999997765
312447.5217,-6.306504378531075,-10.29094433721152,-14.070185045565003,-12.944520721953467,31.801999999966938
312447.5227,-5.253167062118698,-8.239515706414116,-12.186054334681657,-11.521387323474855,31.802999999956228
312447.5237,-4.086433015787668,-5.982010424002611,-10.025727162900134,-9.850984797784468,31.804000000003725
312447.5247,-2.8756351367134205,-3.612973045200535,-7.696035802013958,-8.016413126009118,31.804999999993015
312447.5257,-1.6759641966664776,-1.2150463825827822,-5.292981475165845,-6.088301599227357,31.805999999982305
312447.5267,-0.525662310437863,1.1443521442139164,-2.897238778382555,-4.12174078076874,31.806999999971595
312447.5277,0.5546022541156326,3.4142927243622947,-0.5718537929129354,-2.155434602334549,31.807999999960884
312447.5287,1.5602466245740536,5.559597309854027,1.6378570565991633,-0.21299144208465912,31.809000000008382
312447.5297,2.499459006033215,7.558374926155768,3.7024310896892407,1.6939504855173861,31.80999999999767
312447.5307,3.388532131313866,9.398269248682334,5.604829246793126,3.56125481721856,31.81099999998696
312447.5317,4.246451312817391,11.07198071751287,7.336022441611678,5.387098758818996,31.81199999997625
312447.5327,5.089411481503753,12.57268442582452,8.890247385457087,7.166751550217195,31.81299999996554
312447.5337,5.925933250484789,13.889956708698442,10.260594319913901,8.887996645542529,31.81400000001304
312447.5347,6.753172868825312,15.006749565386539,11.435525908328566,10.52779306005354,31.81500000000233
312447.5357,7.554883197510063,15.897821185983387,12.396798466969653,12.050627038179647,31.815999999991618
312447.5367,8.301297127315305,16.529857076537496,13.119078155905576,13.408813406200881,31.816999999980908
312447.5377,8.950990573073474,16.863318015143616,13.571335219268414,14.544786713353227,31.817999999970198
312447.5387,9.454561569502689,16.855849149372364,13.719881476905263,15.395198267287572,31.818999999959487
312447.5397,9.759757894417616,16.466900066097995,13.532713384219413,15.896429576043325,31.820000000006985
312447.5407,9.817519165710348,15.663057878825136,12.9846567940052,15.990966745441877,31.820999999996275
312447.5417,9.588287757644384,14.423499744207536,12.062697887470728,15.633971230719085,31.821999999985565
312447.5427,9.047897834685587,12.744937856349784,10.770839702346798,14.799341426367272,31.822999999974854
312447.5437,8.19237823283422,10.645462641915087,9.133850454163772,13.484591423824753,31.823999999964144
312447.5447,7.041100520171405,8.166785638261299,7.199366155390697,11.713975056515014,31.82500000001164
312447.5457,5.6378590369134916,5.374533012292048,5.037966414241956,9.53944521594371,31.82600000000093
312447.5467,4.049669692107816,2.3564290302106685,2.7410430357161752,7.039244427354114,31.82699999999022
312447.5477,2.3632989058015377,-0.7815828026835747,0.4165058134515511,4.3141524118931684,31.82799999997951
312447.5487,0.679760930661364,-3.921025665677741,-1.8174042171424747,1.4816469866891198,31.8289999999688
312447.5497,-0.8927718297197135,-6.937941383018983,-3.839719960358321,-1.3315568519002239,31.82999999995809
312447.5507,-2.2470356976518997,-9.710722265170931,-5.535137068349072,-3.9979593528362765,31.831000000005588
312447.5517,-3.2850026922583964,-12.128047060311488,-6.802450868787231,-6.397983907849307,31.831999999994878
312447.5527,-3.9257121217916877,-14.096220579735212,-7.562276176216333,-8.42816925590149,31.832999999984168
312447.5537,-4.1118861210524456,-15.545259883871203,-7.763329939043495,-10.008114217270384,31.833999999973457
312447.5547,-3.814713467766294,-16.433177555592188,-7.386673288928091,-11.085553681412629,31.834999999962747
312447.5557,-3.036351364905959,-16.748074506177026,-6.44748699734407,-11.639115771984947,31.836000000010245
312447.5567,-1.8099047475223595,-16.507855523481318,-4.994175908679597,-11.678525595253767,31.836999999999534
312447.5577,-0.19687682986525976,-15.757601055073676,-3.1048424417679947,-11.24225993102303,31.837999999988824
312447.5587,1.7176796138078976,-14.564847186339701,-0.8814131522935409,-10.392896466137918,31.838999999978114
312447.5597,3.831866227953768,-13.013221165036475,1.558078064533554,-9.21061741395164,31.839999999967404
312447.5607,6.034881927316214,-11.195033034215614,4.088372766130799,-7.785499497280026,31.840999999956694
312447.5617,8.215474802595509,-9.203519886897746,6.586248577531847,-6.209333428452155,31.84200000000419
312447.5627,10.270129890126432,-7.125468382189783,8.939332800176535,-4.567755230323353,31.84299999999348
312447.5637,12.110250622539855,-5.034900360929506,11.053685727895955,-2.933435026271229,31.84399999998277
312447.5647,13.667694250253769,-2.9883993561860422,12.859486623040622,-1.3609597005408403,31.84499999997206
312447.5657,14.898185586162821,-1.0224926541069284,14.314335489925249,0.11612540738887736,31.84599999996135
312447.5667,15.782343181756573,0.8467000348960172,15.403910915128447,1.485867276825651,31.847000000008848
312447.5677,16.32428710572286,2.621564643534715,16.13997669951144,2.7560409760642695,31.847999999998137
312447.5687,16.548034959520173,4.319074371706227,16.555983601727434,3.9501048235445615,31.848999999987427
312447.5697,16.492109422763686,5.965292452715167,16.70074283252748,5.101428359485402,31.849999999976717
312447.5707,16.202955226941334,7.5888920530723425,16.63083269547585,6.246421186299252,31.850999999966007
312447.5717,15.727878795255865,9.214389701297224,16.40252096499352,7.417303691662144,31.851999999955297
312447.5727,15.108268372408329,10.85582095818795,16.064031277070264,8.635300591029937,31.853000000002794
312447.5737,14.373821685346865,12.51154774691222,15.648947261144132,9.905000845061895,31.853999999992084
312447.5747,13.538404762727804,14.160779267888094,15.171436361913887,11.210516075066575,31.854999999981374
312447.5757,12.597999359573727,15.762222784035782,14.62379675118992,12.513894612077966,31.855999999970663
312447.5767,11.530983547095303,17.255072531680575,13.976602367340128,13.756026523735605,31.856999999959953
312447.5777,10.300751165814205,18.56231455078926,13.181464784057031,14.860027774428625,31.85800000000745
312447.5787,8.860434402784847,19.59609458612895,12.176170942190659,15.736843089608579,31.85899999999674
312447.5797,7.159273539802052,20.264687783895955,10.89171785370019,16.2925813873056,31.85999999998603
312447.5807,5.1500008022472885,20.48044306406424,9.260572294517264,16.436916989947196,31.86099999997532
312447.5817,2.7964890128863775,20.167968139300537,7.225354104791243,16.091772156318346,31.86199999996461
312447.5827,0.0808723707498026,19.271783905389718,4.74708880070093,15.199453665939203,31.863000000012107
312447.5837,-2.9906189716690252,17.76271338164168,1.8122042259481526,13.729452917480746,31.864000000001397
312447.5847,-6.383759449754121,15.642377453485327,-1.5624455067700118,11.68323223322003,31.864999999990687
312447.5857,-10.034838236893291,12.94533743832743,-5.3270676404243185,9.096499311650877,31.865999999979977
312447.5867,-13.851830508528153,9.738637127508902,-9.399238411904212,6.038700104621584,31.866999999969266
312447.5877,-17.718231079829106,6.118734231922247,-13.667078195314362,2.6097160511390527,31.867999999958556
312447.5887,-21.499298246300825,2.206050423176165,-17.99507509417376,-1.0659899058192834,31.869000000006054
312447.5897,-25.050223547736834,-1.8624124719397885,-22.23209130860675,-4.847297583154,31.869999999995343
312447.5907,-28.22555492766688,-5.941765992988377,-26.220883519047455,-8.58575138043248,31.870999999984633
312447.5917,-30.889074731198573,-9.888496235197014,-29.808328361305843,-12.135478313145708,31.871999999973923
312447.5927,-32.92328254376318,-13.569502579956854,-32.85548009532395,-15.362847761442135,31.872999999963213
312447.5937,-34.2376611811046,-16.87015001397791,-35.246605668160285,-18.155045773982064,31.87400000001071
312447.5947,-34.77500963270978,-19.700668726794312,-36.896440453565276,-20.426841773276987,31.875
312447.5957,-34.51529939661902,-22.000394085571887,-37.75507618491487,-22.12499784807256,31.87599999998929
312447.5967,-33.47673389114922,-23.739545605838785,-37.810114392190016,-23.229993641119965,31.87699999997858
312447.5977,-31.71394308703486,-24.918475101394897,-37.08597229815537,-23.754991450777702,31.87799999996787
312447.5987,-29.313502999641774,-25.564549309956664,-35.64048894505339,-23.74222215556453,31.87899999995716
312447.5997,-26.38720763808157,-25.72704823814333,-33.55922209421647,-23.257208223990734,31.880000000004657
312447.6007,-23.06371684191342,-25.47063654326338,-30.94802788838757,-22.38143278111991,31.880999999993946
312447.6017,-19.479338748107853,-24.86808479152041,-27.924656324958384,-21.204195179701895,31.881999999983236
312447.6027,-15.76876798149367,-23.992969368201564,-24.61016325650517,-19.814451569785295,31.882999999972526
312447.6037,-12.056584751990687,-22.913059827599515,-21.120928221334186,-18.293418636729573,31.883999999961816
312447.6047,-8.450228190514318,-21.68501330773891,-17.561979050225574,-16.708622749974687,31.885000000009313
312447.6057,-5.034999130098037,-20.35084682349158,-14.022168613485729,-15.109915395693001,31.885999999998603
312447.6067,-1.8714391699239163,-18.936465120299488,-10.571542562246123,-13.527765476847273,31.886999999987893
312447.6077,1.004804961400041,-17.45230391062159,-7.261000713122498,-11.97390107852761,31.887999999977183
312447.6087,3.5807665084877174,-15.895927626499976,-4.124112867938171,-10.444131430515593,31.888999999966472
312447.6097,5.8619538842161285,-14.256219341248647,-1.180726800690473,-8.9229581025619,31.889999999955762
312447.6107,7.866702596485329,-12.518638238416363,1.558175694380869,-7.389404853775011,31.89100000000326
312447.6117,9.619758872460505,-10.670912927632692,4.08504125012027,-5.823375651009886,31.89199999999255
312447.6127,11.145828565673222,-8.708497445182674,6.390443379639113,-4.211801789568561,31.89299999998184
312447.6137,12.463808789816033,-6.63914477409429,8.45860904823633,-2.553866280705915,31.89399999997113
312447.6147,13.582331190780465,-4.486047082524153,10.264366595287333,-0.8646936577944074,31.89499999996042
312447.6157,14.49709436648649,-2.2891429161948933,11.771946159378134,0.8229441742136328,31.896000000007916
312447.6167,15.190264366455356,-0.10438397628249398,12.935855151209182,2.4591469080776323,31.896999999997206
312447.6177,15.631996735261993,1.9990315319183105,13.703817545667786,3.9796369050176814,31.897999999986496
312447.6187,15.783904055109444,3.9432372362170955,14.021530752825182,5.310514423801007,31.898999999975786
312447.6197,15.604082534829944,5.647673285185435,13.838781672101389,6.374575740101776,31.899999999965075
312447.6207,15.053141031524852,7.035889078123901,13.116296097057377,7.09858281796822,31.901000000012573
312447.6217,14.100563044805437,8.042508796657447,11.832590377477738,7.420763443142318,31.902000000001863
312447.6227,12.730688011126755,8.619663478742597,9.990062479384221,7.297782396662083,31.902999999991152
312447.6237,10.947627117698998,8.742231633423092,7.619605366714171,6.71046139787036,31.903999999980442
312447.6247,8.778528051464795,8.411334453959208,4.783145337861955,5.667634808217671,31.904999999969732
312447.6257,6.274762818579656,7.655691582263635,1.5736906235777235,4.207698995002786,31.905999999959022
312447.6267,3.5108172288765935,6.530643631132855,-1.8872960602765214,2.3976292733805367,31.90700000000652
312447.6277,0.5808896097486228,5.114868810149867,-5.4551350839000925,0.3294784921767187,31.90799999999581
312447.6287,-2.4065628818197498,3.505041467048676,-8.96945998768348,-1.8853877759932816,31.9089999999851
312447.6297,-5.3358822333174,1.8088786150649678,-12.263495834104162,-4.12384632716249,31.90999999997439
312447.6307,-8.092255885194632,0.1371771712786137,-15.17436227147062,-6.259714478395663,31.91099999996368
312447.6317,-10.570026262413483,-1.404455676628705,-17.553563605724904,-8.172831017013221,31.912000000011176
312447.6327,-12.680498963788262,-2.72344363919826,-19.27679084603823,-9.757718795352725,31.913000000000466
312447.6337,-14.35851950913953,-3.746955852674361,-20.252204486670347,-10.931063140473858,31.913999999989755
312447.6347,-15.567193917738814,-4.426900299021405,-20.426488229269335,-11.637348414184478,31.914999999979045
312447.6357,-16.30029474002086,-4.742761909334394,-19.788151973837294,-11.852165622085346,31.915999999968335
312447.6367,-16.58210561374883,-4.702052446236434,-18.36779981196103,-11.582920430563833,31.916999999957625
312447.6377,-16.464693709844397,-4.338362147139003,-16.235343274187088,-10.866912379287733,31.918000000005122
312447.6387,-16.02283791661912,-3.707226055404697,-13.494406914866438,-9.766999172363,31.918999999994412
312447.6397,-15.347058436982355,-2.8802194992374712,-10.274417422618795,-8.36528130137606,31.919999999983702
312447.6407,-14.535369817696466,-1.9378579744073503,-6.721065954839664,-6.75542069666393,31.92099999997299
312447.6417,-13.684497499623216,-0.9619814470371311,-2.9859678113648367,-5.034325667387786,31.92199999996228
312447.6427,-12.881346614871827,-0.028342017069011526,0.7835984753577181,-3.2939820070831987,31.92300000000978
312447.6437,-12.195486487590854,0.7999163962020623,4.4540140993162165,-1.6141826737610367,31.92399999999907
312447.6447,-11.673317730406266,1.4772938044220973,7.912948780085509,-0.05680907029696677,31.92499999998836
312447.6457,-11.334430377169507,1.9790450158160644,11.074710088034816,1.3378442194410927,31.92599999997765
312447.6467,-11.170456425838516,2.3021184834414608,13.882950749429282,2.5524162680680766,31.926999999966938
312447.6477,-11.146488124013276,2.463891117997741,16.310624467959446,3.591445416952592,31.927999999956228
312447.6487,-11.204896423643929,2.49888301397887,18.35733986483945,4.47813554408835,31.929000000003725
312447.6497,-11.271164713088698,2.4538318034893276,20.044502431234527,5.249319146508951,31.929999999993015
312447.6507,-11.26117185180588,2.38166293034733,21.40883310747472,5.949186459207144,31.930999999982305
312447.6517,-11.089232564733305,2.3349944481249634,22.49499060750894,6.622464977126108,31.931999999971595
312447.6527,-10.676143915401376,2.3598532689151286,23.348090185501007,7.307779990859169,31.932999999960884
312447.6537,-9.956498944727521,2.490250693521163,24.00689862980918,8.031899882243199,31.934000000008382
312447.6547,-8.88461081501648,2.7441717141675364,24.49839595946318,8.805472914232533,31.93499999999767
312447.6557,-7.438534421393176,3.121384457137697,24.834238104539626,9.620704920679849,31.93599999998696
312447.6567,-5.621863061046175,3.60328803581917,25.00944775808707,10.451225390119728,31.93699999997625
312447.6577,-3.463196570820955,4.154807726421283,25.003423463117755,11.254163043528983,31.93799999996554
312447.6587,-1.013402919300463,4.728136543770825,24.783113543643786,11.97422363295664,31.93900000001304
312447.6597,1.6589944130877043,5.2679328101798975,24.307975905926643,12.549355044129484,31.94000000000233
312447.6607,4.47379621492946,5.717433009400114,23.536159356087865,12.91741856093197,31.940999999991618
312447.6617,7.345845188260233,6.024843092742973,22.431215176492294,13.023176979956256,31.941999999980908
312447.6627,10.191794026154755,6.149339131104817,20.968591705850734,12.824871088694552,31.942999999970198
312447.6637,12.936247778043697,6.066043180973356,19.141184952645265,12.299689989497711,31.943999999959487
312447.6647,15.516683501623572,5.769439219057979,16.963312643142924,11.44754478697791,31.945000000006985
312447.6657,17.88668892403052,5.274847427567223,14.47263802517263,10.29271923406844,31.945999999996275
312447.6667,20.017245939460683,4.6177679906291225,11.729777283273688,8.883179038823219,31.946999999985565
312447.6677,21.895995526540403,3.8511189369621808,8.815559817609934,7.287553226562832,31.947999999974854
312447.6687,23.524636661111266,3.040605363405554,5.826150377043434,5.590033357127799,31.948999999964144
312447.6697,24.914811048392504,2.2586484762200434,2.8664621474242167,3.883646463474407,31.95000000001164
312447.6707,26.082987648217333,1.5774531994830672,0.04246832978303609,2.262524354509979,31.95100000000093
312447.6717,27.044969332198804,1.0618874495074775,-2.5468614519504884,0.8138986407276667,31.95199999999022
312447.6727,27.810687264182363,0.7628748212048821,-4.81722647322764,-0.38941342162076475,31.95299999997951
312447.6737,28.379921929550235,0.7119620552183933,-6.70551812077555,-1.2953063769081605,31.9539999999688
312447.6747,28.739495391072293,0.9176167080607259,-8.174560865991944,-1.8768521563175193,31.95499999995809
312447.6757,28.86232641541579,1.3636488546375707,-9.215598761003934,-2.13449046182672,31.956000000005588
312447.6767,28.70854368309992,2.0099488607180698,-9.848270966983058,-2.095716963513843,31.956999999994878
312447.6777,28.22863197300596,2.7955107527545353,-10.11806232606555,-1.8122822641750276,31.957999999984168
312447.6787,27.36836419554966,3.6434891056844787,-10.091460419478029,-1.3551547347399584,31.958999999973457
312447.6797,26.075071017935656,4.467838319541939,-9.84927471535947,-0.8077171987268075,31.959999999962747
312447.6807,24.304640296559224,5.180926227908781,-9.478754108150037,-0.2578397451631034,31.961000000010245
312447.6817,22.028537376242895,5.7014147280365695,-9.065258393691535,0.21041834108048488,31.961999999999534
312447.6827,19.240105658932425,5.961668545348082,-8.684284997678033,0.524686482336302,31.962999999988824
312447.6837,15.959449015749124,5.913992792738455,-8.39461974655669,0.6309880806789744,31.963999999978114
312447.6847,12.236310666568007,5.535107188773802,-8.233272482132715,0.4986324488596104,31.964999999967404
312447.6857,8.150537084281256,4.828429581757912,-8.212685137778765,0.12282697256311118,31.965999999956694
312447.6867,3.809934182261332,3.823948060574225,-8.320478217505542,-0.4752368854359334,31.96700000000419
312447.6877,-0.654434182294202,2.5756895512161457,-8.521752973992912,-1.2508256364626835,31.96799999999348
312447.6887,-5.095211789753436,1.157021317150626,-8.763715222669642,-2.140390576675451,31.96899999998277
312447.6897,-9.35746536852786,-0.34577194919347226,-8.982157274376803,-3.0681140623402103,31.96999999997206
312447.6907,-13.288458952153837,-1.8410287945578683,-9.10914949181108,-3.9536328500943028,31.97099999996135
312447.6917,-16.74768221323262,-3.239657125222007,-9.081170785384122,-4.720181271716815,31.972000000008848
312447.6927,-19.61628692457727,-4.462736477996408,-8.846860204181155,-5.302355800985946,31.972999999998137
312447.6937,-21.8051231806429,-5.44806250381237,-8.37360460209955,-5.652739162781754,31.973999999987427
312447.6947,-23.26067991075707,-6.155024095173945,-7.652287326523438,-5.746733129008289,31.974999999976717
312447.6957,-23.968412421742347,-6.567366875417601,-6.699699601205743,-5.585123864982535,31.975999999966007
312447.6967,-23.95316680203713,-6.69360311817098,-5.558342816096047,-5.194125208864746,31.976999999955297
312447.6977,-23.276665839285577,-6.565057499208465,-4.293604432352972,-4.622892053882009,31.978000000002794
312447.6987,-22.032279773247776,-6.231768048888885,-2.988547992501885,-3.9387440149874107,31.978999999992084
312447.6997,-20.33754343580394,-5.756669831667785,-1.7367937131978137,-3.2205645868927295,31.979999999981374
312447.7007,-18.325076754424316,-5.208654895531257,-0.6341572767269276,-2.5510210241460327,31.980999999970663
312447.7017,-16.132699926941676,-4.6552096711949,0.2301580561318631,-2.0083675302166513,31.981999999959953
312447.7027,-13.89359536108627,-4.1553697109920185,0.7819696924346191,-1.6586374453734383,31.98300000000745
312447.7037,-11.727350286556263,-3.7536976212262196,0.9693084318038643,-1.5489946058021482,31.98399999999674
312447.7047,-9.732618904408945,-3.4758865501228997,0.767689301438854,-1.7029031981949638,31.98499999998603
312447.7057,-7.9819804758190305,-3.326428734593218,0.1829324980819074,-2.1175998911634095,31.98599999997532
312447.7067,-6.519355709000821,-3.288582291587504,-0.7487632630071009,-2.7641287453680685,31.98699999996461
312447.7077,-5.360098882706567,-3.326639846754635,-1.963532437682503,-3.589950026662197,31.988000000012107
312447.7087,-4.49363091060181,-3.3902722158228364,-3.3751115717397986,-4.52388279080968,31.989000000001397
312447.7097,-3.8882431494433245,-3.420511798707614,-4.8821928946211255,-5.482912423604407,31.989999999990687
312447.7107,-3.4975055847321643,-3.3567741252908974,-6.3771894086035426,-6.380210506971322,31.990999999979977
312447.7117,-3.26757458432142,-3.144208515952623,-7.755601213432494,-7.133593419390929,31.991999999969266
312447.7127,-3.1446275039281875,-2.7406307872546063,-8.92511262391598,-7.673599870845825,31.992999999958556
312447.7137,-3.0816599609273942,-2.1223262723376526,-9.813572332026473,-7.950400777780898,31.994000000006054
312447.7147,-3.0439650054433276,-1.2881168988958613,-10.375112442588764,-7.93886445340792,31.994999999995343
312447.7157,-3.0127628646414273,-0.26125157397484466,-10.593836881613472,-7.6412755509678325,31.995999999984633
312447.7167,-2.9866501681799047,0.911111324730541,-10.484738778310335,-7.087430665393078,31.996999999973923
312447.7177,-2.9807684364765477,2.1608272797721924,-10.091768023625383,-6.332085305636598,31.997999999963213
312447.7187,-3.0238300769322217,3.403858397454163,-9.48323922087567,-5.449981753235732,31.99900000001071
312447.7197,-3.153362495538492,4.54708665933331,-8.745020850743995,-4.528920471588218,32.0
312447.7207,-3.4097151914879475,5.4962286376479295,-7.97215463487519,-3.661526665898091,32.00099999998929
312447.7217,-3.8295027093315195,6.164121632507784,-7.259699877039507,-2.936490045824405,32.00199999997858
312447.7227,-4.439215551942441,6.478610067190289,-6.693667119644303,-2.4301076085332554,32.00299999996787
312447.7237,-5.249715926972832,6.389293780065131,-6.342892306203159,-2.1989313863787823,32.00399999995716
312447.7247,-6.252247211286204,5.8725034097199105,-6.252608333310826,-2.2742183607284665,32.00500000000466
312447.7257,-7.416434164805275,4.934032342881765,-6.4403048009731485,-2.658708340185507,32.005999999993946
312447.7267,-8.690550390796593,3.6093637650982187,-6.894245227635381,-3.326034175110622,32.006999999983236
312447.7277,-10.004100281083295,1.9613649975342742,-7.574755582351366,-4.222818663030537,32.007999999972526
312447.7287,-11.272527452967244,0.07565697490283753,-8.418133473027751,-5.273258022729597,32.008999999961816
312447.7297,-12.403643778961253,-1.9459182407311282,-9.342779243307586,-6.385757359961428,32.01000000000931
312447.7307,-13.305194090079102,-3.993135177181335,-10.256942371601497,-7.4609915727284655,32.0109999999986
312447.7317,-13.892849211450665,-5.955815017514029,-11.067328706755374,-8.40063391684338,32.01199999998789
312447.7327,-14.097866312343433,-7.732087490800309,-11.687740063118483,-9.11593630000018,32.01299999997718
312447.7337,-13.87367603348343,-9.235749067396155,-12.046924141758007,-9.535365513100151,32.01399999996647
312447.7347,-13.200748662531248,-10.402076656240856,-12.094898409426166,-9.61059567566268,32.01499999995576
312447.7357,-12.089247888207558,-11.191610773958429,-11.807167534555155,-9.320319479164088,32.01600000000326
312447.7367,-10.579185333269058,-11.59162155515987,-11.186464554594673,-8.67155331393092,32.01699999999255
312447.7377,-8.73802241058961,-11.615195337647489,-10.261890219797538,-7.698353241067231,32.01799999998184
312447.7387,-6.655905555923923,-11.298106919409065,-9.085578860000515,-6.45810645963556,32.01899999997113
312447.7397,-4.438943466464313,-10.693850826021112,-7.72725779648047,-5.025792414584024,32.01999999996042
312447.7407,-2.201119162690357,-9.867373927985104,-6.267267553065614,-3.486796873148278,32.021000000007916
312447.7417,-0.05555775788765796,-8.888165342530176,-4.7887525929707655,-1.928993076507428,32.021999999997206
312447.7427,1.8940695382254218,-7.82340709503277,-3.3698034791147733,-0.4348641344919404,32.022999999986496
312447.7437,3.561239123536242,-6.7318663900530415,-2.0763247645787724,0.9255751850342041,32.023999999975786
312447.7447,4.8826874556610385,-5.65912035760816,-0.9563197940481644,2.100389116304362,32.024999999965075
312447.7457,5.822414521531944,-4.634556225977749,-0.03613270841440787,3.0593504969890404,32.02600000001257
312447.7467,6.37325125742139,-3.6703991379821006,0.6810152758151032,3.7952794748174856,32.02700000000186
312447.7477,6.555894485921021,-2.7628055663125903,1.214093242487275,4.323013801162121,32.02799999999115
312447.7487,6.415551198482577,-1.8948440638115136,1.6010726945047513,4.676171034098075,32.02899999998044
312447.7497,6.016556860729356,-1.0409886193393696,1.8938524620113584,4.902082752027065,32.02999999996973
312447.7507,5.435518359155465,-0.1725928884928258,2.1518525489845035,5.055460870810029,32.03099999995902
312447.7517,4.75366339860547,0.7362882148843832,2.4349635988355582,5.191478640565822,32.03200000000652
312447.7527,4.049142154224586,1.7033994104099044,2.79659871317261,5.359001900310867,32.03299999999581
312447.7537,3.3900179495080303,2.733745449525489,3.27757811120398,5.5946846445567635,32.0339999999851
312447.7547,2.828603026155505,3.8165492863335055,3.901486406066707,5.918549280575052,32.03499999997439
312447.7557,2.39765148277799,4.924091403713508,4.671986400430902,6.331515678759662,32.03599999996368
312447.7567,2.108728777227685,6.012618111731851,5.572368099963827,6.815140012429152,32.037000000011176
312447.7577,1.9528551448144829,7.025289934625554,6.5673778907917315,7.333594868518698,32.038000000000466
312447.7587,1.9032910383340413,7.896925087533822,7.607134183571911,7.837689228904258,32.038999999989755
312447.7597,1.920119028301362,8.56009926054558,8.63271647138291,8.270514051270201,32.039999999979045
312447.7607,1.9560996681114986,8.952011096610304,9.58283697621705,8.574127716473651,32.040999999968335
312447.7617,1.9631560683723799,9.021428426130063,10.400886058392562,8.696582856854352,32.041999999957625
312447.7627,1.8987853435567053,8.735003449525509,11.041596597592731,8.598553527226647,32.04300000000512
312447.7637,1.7317100862364212,8.082288979509789,11.476603719803107,8.258853866451853,32.04399999999441
312447.7647,1.4461678444493866,7.078898950799888,11.698281933117288,7.678243452091306,32.0449999999837
312447.7657,1.0443825191749148,5.767424431165556,11.72141185560326,6.881080462899896,32.04599999997299
312447.7667,0.5469538553503475,4.215925423793791,11.582446656785763,5.914595353495111,32.04699999996228
312447.7677,-0.008879668872521566,2.514048809208272,11.3363925683607,4.845794241059263,32.04800000000978
312447.7687,-0.5729253936703749,0.7670516142115156,11.051564026670322,3.7562392761249046,32.04899999999907
312447.7697,-1.0872833908093864,-0.9117858449790078,10.802697465433479,2.73516932099017,32.04999999998836
312447.7707,-1.492603603019998,-2.4097106513825755,10.663085812194254,1.8715967476226132,32.05099999997765
312447.7717,-1.7346899745465398,-3.6232634171046376,10.696510007005504,1.2461277329945986,32.05199999996694
312447.7727,-1.7707447464974366,-4.466479379509553,10.949782183762725,0.9232926230015249,32.05299999995623
312447.7737,-1.5745748378775968,-4.877785567952493,11.446672791499289,0.9451353651359548,32.054000000003725
312447.7747,-1.1401809153239775,-4.824966939397811,12.18387410314685,1.3266998051107122,32.054999999993015
312447.7757,-0.48330893307900546,-4.307746141605275,13.129466185547491,2.0538761807880075,32.055999999982305
312447.7767,0.3592519745952781,-3.357737201908739,14.224116093338564,3.083850064815055,32.056999999971595
312447.7777,1.3326125395323818,-2.035772566717863,15.38497939979984,4.348149595074989,32.057999999960884
312447.7787,2.3687239164952762,-0.426842797886146,16.512010582744715,5.758038961485551,32.05900000000838
312447.7797,3.392862924471192,1.3668940105457403,17.496150938197605,7.211780909718659,32.05999999999767
312447.7807,4.331042344282936,3.234401196833509,18.228673058909653,8.603110479729763,32.06099999998696
312447.7817,5.117619641465536,5.06460375890676,18.6108383842848,9.83014403705028,32.06199999997625
312447.7827,5.702341661946362,6.754988075327132,18.562981348045955,10.803903558485995,32.06299999996554
312447.7837,6.056102594384838,8.219199410202965,18.032174962710524,11.455670584642958,32.06400000001304
312447.7847,6.1748047124296885,9.392977184790647,16.997754835819077,11.742494082126667,32.06500000000233
312447.7857,6.0808857870972135,10.237931326635922,15.474170289967706,11.650351149972563,32.06599999999162
312447.7867,5.822297039422311,10.742872035278804,13.510874361126938,11.194682212699005,32.06699999998091
312447.7877,5.468959900550487,10.92263971933084,11.189235871127584,10.418271540605335,32.0679999999702
312447.7887,5.1069749166934955,10.81461896277631,8.61673064465965,9.386695524788665,32.06899999995949
312447.7897,4.831077910825793,10.47333729845013,5.918919156734583,8.181790786022827,32.070000000006985
312447.7907,4.736015157239202,9.9637254921083,3.229920623696821,6.893779738862798,32.070999999996275
312447.7917,4.907623292544523,9.353734238197744,0.6822295398049583,5.612814797468946,32.071999999985565
312447.7927,5.41443945319085,8.707051598934209,-1.6032229110462624,4.4207521699907035,32.072999999974854
312447.7937,6.300628338805544,8.076641890232223,-3.525888448076671,3.3839374987638164,32.073999999964144
312447.7947,7.5808988092113925,7.499732880853323,-5.012538261888155,2.547681444215481,32.07500000001164
312447.7957,9.237903801035479,6.9947238101477796,-6.02173361957961,1.9329339880131826,32.07600000000093
312447.7967,11.222390667065136,6.560287394850856,-6.5454820986623865,1.5354483686480715,32.07699999999022
312447.7977,13.456116037000681,6.176714559754444,-6.607996384236188,1.3274804757566074,32.07799999997951
312447.7987,15.837284093580454,5.809323327726115,-6.261743212666678,1.2618211464303244,32.0789999999688
312447.7997,18.248034117749352,5.413545557317218,-5.581220086108357,1.277731335912667,32.07999999995809
312447.8007,20.563314524910165,4.941137419750128,-4.655102998921968,1.3081657057054759,32.08100000000559
312447.8017,22.66035435973067,4.3468480510338,-3.5775501884788574,1.2875466791622356,32.08199999999488
312447.8027,24.42789129414761,3.5948364864351947,-2.4395116917474224,1.1593003775570498,32.08299999998417
312447.8037,25.774342371874233,2.6641539274024493,-1.3208766168634083,0.882392854703084,32.08399999997346
312447.8047,26.634207234133285,1.5527037178489826,-0.28419192674416477,0.4362068874263625,32.08499999996275
312447.8057,26.972163184949498,0.27924549936350856,0.6294816422157128,-0.17673386964695942,32.086000000010245
312447.8067,26.784530715606202,-1.116792516717572,1.4022322038462913,-0.9304717353791154,32.086999999999534
312447.8077,26.098035789142322,-2.5777080183787127,2.03838597576013,-1.7777892880149206,32.087999999988824
312447.8087,24.96604741280155,-4.031917674834217,2.5611898380767792,-2.6546422352047996,32.088999999978114
312447.8097,23.462701589108445,-5.399938039904025,3.007493238167744,-3.4864174878971568,32.089999999967404
312447.8107,21.67551343791813,-6.60138122833896,3.4210322419973296,-4.195401304906411,32.09099999995669
312447.8117,19.69721008737965,-7.562286550079162,3.8450536010433405,-4.70872120782095,32.09200000000419
312447.8127,17.617575707200558,-8.222070516476519,4.315077147795254,-4.9659766289613385,32.09299999999348
312447.8137,15.516081730064013,-8.53940974931093,4.852575118113888,-4.925801668539897,32.09399999998277
312447.8147,13.455982333631445,-8.49647122553094,5.460249506637543,-4.570706038334822,32.09499999997206
312447.8157,11.480397355243408,-8.101062188027482,6.119423326836168,-3.9097071004906407,32.09599999996135
312447.8167,9.610697987327475,-7.386472434151998,6.789845344695666,-2.978480425510901,32.09700000000885
312447.8177,7.847275550372964,-6.409004857238138,7.411962133767025,-1.836997384417264,32.09799999999814
312447.8187,6.172533706353754,-5.243414113445261,7.911460634107395,-0.5648622689330957,32.09899999998743
312447.8197,4.555723350490367,-3.9766760864920965,8.205653666707686,0.7452156300430739,32.09999999997672
312447.8207,2.959058815579242,-2.7006724865132523,8.211092886009812,1.995199478525981,32.10099999996601
312447.8217,1.3444315480696176,-1.504479561815765,7.851666978712293,3.09001672530356,32.1019999999553
312447.8227,-0.3200151449566548,-0.4669872577193431,7.066389960742405,3.9455824767455017,32.103000000002794
312447.8237,-2.0541644971361266,0.34945841452577336,5.81611029381806,4.495800423058719,32.103999999992084
312447.8247,-3.861677713848082,0.9037981921324724,4.088473547943014,4.697889569303377,32.10499999998137
312447.8257,-5.727681540841681,1.1789547043914168,1.9006392737435225,4.535550438471873,32.10599999997066
312447.8267,-7.61865174968119,1.1822477902016235,-0.7005300725814213,4.0196965402815845,32.10699999995995
312447.8277,-9.484522896903522,0.9435207112840969,-3.6408454102848307,3.186714732951359,32.10800000000745
312447.8287,-11.262822216435936,0.5111910988955418,-6.823521383733582,2.0944581637746515,32.10899999999674
312447.8297,-12.884413235099382,-0.05335812392832265,-10.135822282751684,0.8163941155286514,32.10999999998603
312447.8307,-14.28026394675022,-0.6824727114101847,-13.457001134689364,-0.5654951623860324,32.11099999997532
312447.8317,-15.38854231445736,-1.3093281453686854,-16.66678723465481,-1.9683448845929494,32.11199999996461
312447.8327,-16.16129985334682,-1.8747245482639445,-19.653628617856185,-3.3158152850951956,32.11300000001211
312447.8337,-16.570036503711275,-2.3328975142290593,-22.32192551005473,-4.544547207729196,32.1140000000014
312447.8347,-16.609543978585645,-2.6557693068648454,-24.597595593963202,-5.609041786953799,32.11499999999069
312447.8357,-16.2995902090787,-2.835224196831567,-26.43148153023619,-6.484505048130905,32.11599999997998
312447.8367,-15.684218247731774,-2.88319215848033,-27.80032869174732,-7.167408101593631,32.116999999969266
312447.8377,-14.828668332827066,-2.8295468460449125,-28.70530489097948,-7.673747520985532,32.117999999958556
312447.8387,-13.8141685827366,-2.7180447640585332,-29.168279783972313,-8.035225126571977,32.119000000006054
312447.8397,-12.731054589424678,-2.600730944801419,-29.22630519405914,-8.2937783407051,32.11999999999534
312447.8407,-11.670849720224732,-2.531392591338013,-28.92491659037987,-8.495060423228393,32.12099999998463
312447.8417,-10.718049115295374,-2.558740549793422,-28.31099254642842,-8.681577469685521,32.12199999997392
312447.8427,-9.94238995764659,-2.720029339834147,-27.42595150256632,-8.88622531873098,32.12299999996321
312447.8437,-9.392354344171716,-3.035786645347577,-26.30002916320634,-9.126930788171023,32.12400000001071
312447.8447,-9.090542145433387,-3.506216443718357,-24.94826869534903,-9.402991683632356,32.125
312447.8457,-9.031379841583542,-4.109676694751114,-23.36868028181259,-9.693539585681387,32.12599999998929
312447.8467,-9.181413781628388,-4.803428626808656,-21.542803603524007,-9.958335281920087,32.12699999997858
