TimeStamp,ECR,FCR,ECU,FCU,time_index
312436.7197,-3.432717892272855,-0.09680761218508091,5.985139496952196,-0.7912732309226324,21.0
312436.7207,0.8696437986876021,-0.3460578011264212,9.654309930137643,0.04083554021145266,21.00099999998929
312436.7217,5.061658064893518,-0.3740797494559654,13.22598610258426,0.97984407927268,21.00199999997858
312436.7227,8.999267658037082,-0.22839715762883994,16.58717897999684,1.9705818173917529,21.00299999996787
312436.7237,12.5404677333351,0.02726073299944495,19.620939731864045,2.9462311188666783,21.00399999995716
312436.7247,15.554872714279162,0.3200776566181447,22.214750789232124,3.8353251242918964,21.005000000004657
312436.7257,17.933376881248805,0.5762316702711432,24.26941459255521,4.56956043083141,21.005999999993946
312436.7267,19.597059031156466,0.7291483982688187,25.707633656037522,5.091646866546764,21.006999999983236
312436.7277,20.504496380420377,0.727109175928243,26.481466284950535,5.362393851731865,21.007999999972526
312436.7287,20.656746915919392,0.5394494302491857,26.577910784927898,5.366288201055935,21.008999999961816
312436.7297,20.09942648053979,0.16070909411135845,26.02201252597386,5.114947488857837,21.010000000009313
312436.7307,18.921533748385908,-0.38771398037442617,24.87709091790702,4.648024846053829,21.010999999998603
312436.7317,17.250943659379065,-1.0586222676665817,23.241929342305806,4.031377674906204,21.011999999987893
312436.7327,15.246774338020069,-1.7827455056566068,21.245038107968643,3.352572116369685,21.012999999977183
312436.7337,13.089108384880452,-2.4748368192832184,19.036363979049096,2.714052598012954,21.013999999966472
312436.7347,10.966791315287525,-3.041607496197965,16.777055191364834,2.2245367399063607,21.014999999955762
312436.7357,9.064215068390794,-3.390786516896227,14.628075874498885,1.9893778811484897,21.01600000000326
312436.7367,7.548104959632525,-3.4404730256677443,12.738580643727316,2.100752532599013,21.01699999999255
312436.7377,6.555352787712564,-3.127909133154052,11.234997206368392,2.628566390963877,21.01799999998184
312436.7387,6.182873330497278,-2.4168411835625414,10.211717864719736,3.612925785823846,21.01899999997113
312436.7397,6.480310632170667,-1.3027565976920565,9.72417331191844,5.058895068113893,21.01999999996042
312436.7407,7.446196607017127,0.1845301293280634,9.784865149045856,6.934065580196131,21.021000000007916
312436.7417,9.027886670593327,1.9812319368466,10.36268467026386,9.16921616015113,21.021999999997206
312436.7427,11.12528955032475,3.992908852264791,11.385567140031743,11.662071250974547,21.022999999986496
312436.7437,13.598098196469495,6.100508907616315,12.746248296795788,14.283886030616763,21.023999999975786
312436.7447,16.27594326021276,8.168639557774313,14.3106288572425,16.88833434552608,21.024999999965075
312436.7457,18.97065520103817,10.055376699251685,15.928037052621033,19.32196831453251,21.026000000012573
312436.7467,21.48965646491787,11.622779835354422,17.44252813914259,21.435377593328795,21.027000000001863
312436.7477,23.649425595232625,12.747219755372488,18.704286728405,23.094114542944446,21.027999999991152
312436.7487,25.28798705176794,13.328644806773301,19.58020866761766,24.188474532212545,21.028999999980442
312436.7497,26.275481981631984,13.29801117028708,19.962832143983086,24.641325911258054,21.029999999969732
312436.7507,26.522056095696254,12.622271691342656,19.7769530790136,24.413361637820262,21.030999999959022
312436.7517,25.982543857836365,11.30654040991338,18.983481361947923,23.505377167619088,21.03200000000652
312436.7527,24.657710583140748,9.39330464465107,17.580350555075164,21.957444961995872,21.03299999999581
312436.7537,22.592109632717534,6.958819134182661,15.600559856618297,19.84512977038844,21.0339999999851
312436.7547,19.868893718760265,4.107062600243696,13.10767814349476,17.273145101752526,21.03499999997439
312436.7557,16.60216213839116,0.9618433106906418,10.18935243538739,14.36706629766376,21.03599999996368
312436.7567,12.927608355792074,-2.342212037767417,6.9495177580099865,11.263869811751565,21.037000000011176
312436.7577,8.99233958790948,-5.668975532818729,3.500088653792659,8.10214814266255,21.038000000000466
312436.7587,4.944764131659913,-8.889631973105676,-0.04708185093391451,5.012849075843382,21.038999999989755
312436.7597,0.9253833168721745,-11.890257255365471,-3.5872608155379444,2.111307975926771,21.039999999979045
312436.7607,-2.9408087428466096,-14.57757318898407,-7.0283348251236575,-0.5088080717936855,21.040999999968335
312436.7617,-6.549807957852254,-16.88248680781352,-10.294364156039721,-2.7792297272148736,21.041999999957625
312436.7627,-9.821688883195973,-18.761250207905714,-13.327027922284648,-4.658311736167648,21.043000000005122
312436.7637,-12.701270882186774,-20.19431390835774,-16.08502755713947,-6.129827055923912,21.043999999994412
312436.7647,-15.156572842010979,-21.18316930826359,-18.54173206181183,-7.199632795387477,21.044999999983702
312436.7657,-17.17547420858607,-21.745662334920276,-20.681527627476594,-7.890708001597002,21.04599999997299
312436.7667,-18.76115472986659,-21.91039303708506,-22.495458646326576,-8.237203565825693,21.04699999996228
312436.7677,-19.926973755597686,-21.71088242950837,-23.97680469378236,-8.278216112031904,21.04800000000978
312436.7687,-20.69146510677366,-21.18018282303004,-25.117223673519966,-8.051994745317721,21.04899999999907
312436.7697,-21.074065786273913,-20.3465328732667,-25.904007291913587,-7.591213554227553,21.04999999998836
312436.7707,-21.092073929000804,-19.230522333574854,-26.31885085290932,-6.91980263972306,21.05099999997765
312436.7717,-20.759157691472222,-17.84404876201675,-26.33835068961624,-6.05164140210546,21.051999999966938
312436.7727,-20.08553159089945,-16.191138527811965,-25.936229582015915,-4.991199870510303,21.052999999956228
312436.7737,-19.07970248663172,-14.270489314558711,-25.087075947794442,-3.7359897945864415,21.054000000003725
312436.7747,-17.75148705579607,-12.079393241493435,-23.77118930957903,-2.280480294142602,21.054999999993015
312436.7757,-16.115837735036497,-9.61853918249855,-21.979973262603224,-0.6209644716124155,21.055999999982305
312436.7767,-14.196902361861246,-6.897086408943175,-19.7212243628226,1.2392490911907712,21.056999999971595
312436.7777,-12.031696232862046,-3.9373603033707343,-17.02364156599974,3.284990990918237,21.057999999960884
312436.7787,-9.672789259899334,-0.7785489118643788,-13.939929601444076,5.485375594998966,21.059000000008382
312436.7797,-7.18950325651414,2.521126233432711,-10.547987100932415,7.791482554164793,21.05999999999767
312436.7807,-4.667265900319224,5.884139830035213,-6.9498455403169315,10.135965674859307,21.06099999998696
312436.7817,-2.204963175434686,9.215474371250444,-3.2682412429429233,12.434779181042112,21.06199999997625
312436.7827,0.08964894462991398,12.40647926084652,0.3590613127863917,14.590987509203181,21.06299999996554
312436.7837,2.1061928082613175,15.34052734033288,3.786844224297693,16.500400257703546,21.06400000001304
312436.7847,3.739098538707678,17.900024616221874,6.8713527449849625,18.05857174930175,21.06500000000233
312436.7857,4.895580575140459,19.974176510194116,9.479839809926336,19.168545717374222,21.065999999991618
312436.7867,5.503431786771634,21.466818850819216,11.499931201258935,19.748626514649498,21.066999999980908
312436.7877,5.517880953685655,22.303594150219734,12.847985372726079,19.7394296947795,21.067999999970198
312436.7887,4.92680955987029,22.437796846420948,13.47568128737285,19.109510580114613,21.068999999959487
312436.7897,3.753745503665485,21.85432149693867,13.374200744799094,17.85898587983492,21.070000000006985
312436.7907,2.0582340313094116,20.571315057874735,12.575567214969405,16.020739896223233,21.070999999996275
312436.7917,-0.06658668283727422,18.639342381520162,11.150943678218534,13.659026670146407,21.071999999985565
312436.7927,-2.4991275485094935,16.13810281575028,9.205955446351819,10.865521482869324,21.072999999974854
312436.7937,-5.096880584764409,13.170963057255342,6.873366053929564,7.753116009331083,21.073999999964144
312436.7947,-7.705788064908993,9.857775011822854,4.303670612795676,4.447967599322403,21.07500000001164
312436.7957,-10.170716983344548,6.326607389812431,1.654359300758599,1.080483372028354,21.07600000000093
312436.7967,-12.346192234642873,2.7051203484013295,-0.9212739498839367,-2.2239729045617347,21.07699999999022
312436.7977,-14.106502894381599,-0.8876563288011485,-3.2848577663726988,-5.3538297622702755,21.07799999997951
312436.7987,-15.354337381189502,-4.348422512118902,-5.3223223441084615,-8.218735721705444,21.0789999999688
312436.7997,-16.027222012843986,-7.594975792697887,-6.951165433117442,-10.755006979298932,21.07999999995809
312436.8007,-16.10122312202694,-10.569408276065829,-8.125024755085942,-12.928617879581447,21.081000000005588
312436.8017,-15.591608635735952,-13.238902671132045,-8.835213108734829,-14.735484643272251,21.081999999994878
312436.8027,-14.550429195735015,-15.594130485936265,-9.109139098834758,-16.19904509050018,21.082999999984168
312436.8037,-13.06124710248304,-17.645486453134595,-9.005808451181204,-17.365389922760052,21.083999999973457
312436.8047,-11.231488779799232,-19.417601200336577,-8.608853292581403,-18.296430337918977,21.084999999962747
312436.8057,-9.183100217170269,-20.942738415669325,-8.01774654623712,-19.06177038074675,21.086000000010245
312436.8067,-7.042326227516213,-22.253787327033972,-7.3380067803481355,-19.730072836677365,21.086999999999534
312436.8077,-4.9295005585643,-23.37759599424033,-6.671272383191356,-20.36075305699926,21.087999999988824
312436.8087,-2.9497192395954785,-24.32935227548809,-6.106116829710664,-20.99680142170174,21.088999999978114
312436.8097,-1.185175994822969,-25.108611070544107,-5.710390662375066,-21.659425360848466,21.089999999967404
312436.8107,0.31022451290904324,-25.69739903494367,-5.525719639575497,-22.345026421476614,21.090999999956694
312436.8117,1.5135765733508484,-26.060617641422784,-5.5645778026669115,-23.024803530740293,21.09200000000419
312436.8127,2.4328570290034364,-26.14873267402144,-5.8101094359190455,-23.647021794320565,21.09299999999348
312436.8137,3.104091955746799,-25.90250563821186,-6.21861847432994,-24.141730929559735,21.09399999998277
312436.8147,3.5861594637052807,-25.25931285067093,-6.724401998287838,-24.427483122056742,21.09499999997206
312436.8157,3.9537875788782184,-24.160431663901008,-7.246398587711527,-24.419409038921778,21.09599999996135
312436.8167,4.2894555678995,-22.558566757460284,-7.695971295624839,-24.037881085322418,21.097000000008848
312436.8177,4.674986787070283,-20.42485331549694,-7.98506213739018,-23.216936996157425,21.097999999998137
312436.8187,5.183624823029071,-17.75461204958352,-8.03394684150557,-21.91165967605882,21.098999999987427
312436.8197,5.873313352365846,-14.571240084728162,-7.777884442569356,-20.10380844017583,21.099999999976717
312436.8207,6.781761970695543,-10.927791507919606,-7.172088244342755,-17.805162749411,21.100999999966007
312436.8217,7.923689736543717,-6.906015790533548,-6.194628565861326,-15.058256093274567,21.101999999955297
312436.8227,9.290414701287599,-2.612860892058069,-4.847094477060557,-11.934423962117233,21.103000000002794
312436.8237,10.851723539094584,1.8253122037830214,-3.153069459150135,-8.529342196475142,21.103999999992084
312436.8247,12.559733570199619,6.270338507394944,-1.1546918544965359,-4.95646623795504,21.104999999981374
312436.8257,14.354271495322754,10.58104100378953,1.0922461544957196,-1.3389756028056012,21.105999999970663
312436.8267,16.169156943933697,14.622449050981167,3.52407517642402,2.1990370896352744,21.106999999959953
312436.8277,17.9387070900934,18.27464157475579,6.075246049274212,5.541329576889211,21.10800000000745
312436.8287,19.603777214896812,21.440443690159306,8.683893492879626,8.587436361826052,21.10899999999674
312436.8297,21.116720258400186,24.0513081826321,11.296379713914446,11.259057170645201,21.10999999998603
312436.8307,22.444778272205497,26.070878880243537,13.870360277679373,13.504361335214194,21.11099999997532
312436.8317,23.571596344634113,27.495945545065698,16.376089475849714,15.299867422759421,21.11199999996461
312436.8327,24.496756447776672,28.3547391864826,18.795885157163926,16.64979325522848,21.113000000012107
312436.8337,25.233443377789676,28.70275977407915,21.121882288955085,17.583014498413146,21.114000000001397
312436.8347,25.804555497361868,28.61655198328212,23.352398515486126,18.147996525175863,21.114999999990687
312436.8357,26.237738855178193,28.186027536712462,25.48739340028427,18.40625228136726,21.115999999979977
312436.8367,26.55993755099384,27.50605758596018,27.523609246117175,18.425010317253054,21.116999999969266
312436.8377,26.79210431087169,26.668113758093096,29.45002406433441,18.269839563967523,21.117999999958556
312436.8387,26.944697948728514,25.752717112905565,31.244221590216036,17.997965275554428,21.119000000006054
312436.8397,27.0145104945133,24.823362726857404,32.87019139808527,17.652925662200314,21.119999999995343
312436.8407,26.983224836241767,23.92243335572895,34.2779231758489,17.261070143800296,21.120999999984633
312436.8417,26.817918265487588,23.06941411956738,35.4049680532797,16.83020316948183,21.121999999973923
312436.8427,26.47351733994188,22.26149142341595,36.17992600851438,16.350452235799192,21.122999999963213
312436.8437,25.89699657598981,21.476385948696155,36.52760381382626,15.797207888267035,21.12400000001071
312436.8447,25.032919666321202,20.677054414426483,36.37539506254532,15.135770361593261,21.125
312436.8457,23.829767378800756,19.817718866297447,35.66028293850107,14.327163496369051,21.12599999998929
312436.8467,22.2463973666573,18.850562456728074,34.335773904962714,13.334459063932023,21.12699999997858
312436.8477,20.257948605408405,17.73237832532956,32.378047018629694,12.12890531253959,21.12799999996787
312436.8487,17.860541211567543,16.4304778245688,29.79065285480388,10.695177212043097,21.12899999995716
312436.8497,15.074228021782552,14.927253343550811,26.60721447197211,9.03515996734176,21.130000000004657
312436.8507,11.94381769053185,13.22293987774354,22.89175981239216,7.169832256626441,21.130999999993946
312436.8517,8.53739445722963,11.336312891991263,18.73653374714329,5.1390155812403515,21.131999999983236
312436.8527,4.942587020568691,9.303278202626007,14.257377512793889,2.998980809899173,21.132999999972526
312436.8537,1.2608656246038528,7.173530468139301,9.587000072740926,0.8181296760440875,21.133999999961816
312436.8547,-2.399650175250171,5.005658166143103,4.866676449534386,-1.3288253726683714,21.135000000009313
312436.8557,-5.93223113452526,2.8612344289779115,0.23707109783319072,-3.3675959210312905,21.135999999998603
312436.8567,-9.239684289013539,0.7985386350129421,-4.1710168647951615,-5.231275010355644,21.136999999987893
312436.8577,-12.2418361278726,-1.1334073326854475,-8.245165932695434,-6.866790206526857,21.137999999977183
312436.8587,-14.881630492827597,-2.8998356145026003,-11.898335879664641,-8.240163950328721,21.138999999966472
312436.8597,-17.129236605456768,-4.4837077178627505,-15.073725354358618,-9.340001970884785,21.139999999955762
312436.8607,-18.98374114973569,-5.887270596909979,-17.74703721399836,-10.178799800366177,21.14100000000326
312436.8617,-20.472220911884374,-7.131492974830329,-19.92594160551602,-10.791870407425197,21.14199999999255
312436.8627,-21.646238065120183,-8.253400889976325,-21.646785700875242,-11.233931839924878,21.14299999998184
312436.8637,-22.57604532730533,-9.301550786926214,-22.968855980471886,-11.573629311832649,21.14399999997113
312436.8647,-23.34300931300168,-10.330075618621088,-23.966729418847997,-11.886478048459134,21.14499999996042
312436.8657,-24.03093599423523,-11.391894462839712,-24.721431624137946,-12.24688026542997,21.146000000007916
312436.8667,-24.71709506170434,-12.531773292167212,-25.311235224159667,-12.71997501653345,21.146999999997206
312436.8677,-25.463778848985047,-13.779953663722274,-25.802969157869384,-13.354112362147863,21.147999999986496
312436.8687,-26.311192090475156,-15.147023797966764,-26.24466499907033,-14.174699476028735,21.148999999975786
312436.8697,-27.272354339728246,-16.6205964208751,-26.66024379861989,-15.180049457809405,21.149999999965075
312436.8707,-28.330517764008878,-18.16419017575764,-27.04675744122427,-16.339684407972566,21.151000000012573
312436.8717,-29.4393758295781,-19.718502395980806,-27.3744598423523,-17.59531951641806,21.152000000001863
312436.8727,-30.52608428553409,-21.205030737254116,-27.589717859376837,-18.86450577935225,21.152999999991152
312436.8737,-31.49685861061365,-22.531771947753356,-27.620504551816985,-20.046659205879937,21.153999999980442
312436.8747,-32.244675786299815,-23.600520257125105,-27.383973595928552,-21.030977878077067,21.154999999969732
312436.8757,-32.65841498957355,-24.315125661749388,-26.795416229420287,-21.70556670864244,21.155999999959022
312436.8767,-32.63263955160513,-24.58996979105849,-25.777769656243617,-21.966970666792832,21.15700000000652
312436.8777,-32.077163491281055,-24.357884353244824,-24.27079078008216,-21.729272138129467,21.15799999999581
312436.8787,-30.925565340324095,-23.576777937582793,-22.239036498631577,-20.93194140813492,21.1589999999851
312436.8797,-29.14190764097489,-22.23434766088915,-19.677898793080185,-19.54573797971137,21.15999999997439
312436.8807,-26.725083047130486,-20.35042249370714,-16.617119167752634,-17.57613432448869,21.16099999996368
312436.8817,-23.710421776090314,-17.97669902578225,-13.121435796937561,-15.063956293962365,21.162000000011176
312436.8827,-20.168439902263252,-15.193867652339026,-9.288276310430424,-12.083184736277339,21.163000000000466
312436.8837,-16.200860574461284,-12.106365149049408,-5.24267502061805,-8.736117255164418,21.163999999989755
312436.8847,-11.934277076976255,-8.83520574296677,-1.1298406796480087,-5.146323583964913,21.164999999979045
312436.8857,-7.512025890559156,-5.509516572584145,2.8939933506669386,-1.450020799848071,21.165999999968335
312436.8867,-3.0849815171043606,-2.2575184373564103,6.671659085903201,2.213372266345735,21.166999999957625
312436.8877,1.1979396949677863,0.8022617996817416,10.055234177399727,5.710680611303776,21.168000000005122
312436.8887,5.198777988602637,3.5687889495595684,12.915468956015566,8.923613166643179,21.168999999994412
312436.8897,8.798313319287308,5.964667953444422,15.149700227700334,11.75588188229114,21.169999999983702
312436.8907,11.902051119696015,7.940143291036551,16.68764317614487,14.13823935795467,21.17099999997299
312436.8917,14.444014250920238,9.47465453861295,17.494656577757322,16.031079390712815,21.17199999996228
312436.8927,16.388161362648653,10.575883693686599,17.57231257158101,17.424479101354724,21.17300000000978
312436.8937,17.72747801084405,11.27646354904179,16.956347391251718,18.335802256709748,21.17399999999907
312436.8947,18.48100025183378,11.628730896449959,15.712300176215045,18.80520774405077,21.17499999998836
312436.8957,18.68921047495035,11.698083220645698,13.929341429992382,18.88959342368981,21.17599999997765
312436.8967,18.408375017711705,11.55561629896971,11.712932961180977,18.6556362317626,21.176999999966938
312436.8977,17.704460962468062,11.270771774485699,9.17703489680314,18.172652458671084,21.177999999956228
312436.8987,16.647270144881396,10.904703926422181,6.43657700662984,17.50599234999312,21.179000000003725
312436.8997,15.305363349547292,10.504986122319435,3.600842748068229,16.71160253808007,21.179999999993015
312436.9007,13.742225083599205,10.102129128118769,0.7682837413860577,15.832247276678219,21.180999999982305
312436.9017,12.01395311377203,9.70819070388551,-1.9768955240116461,14.895690064841746,21.181999999971595
312436.9027,10.1685653483797,9.317538160957676,-4.566248875027092,13.914920637636483,21.182999999960884
312436.9037,8.246820313412176,8.90960462932627,-6.946773828281003,12.890290719909821,21.184000000008382
312436.9047,6.284267420442944,8.453277744738983,-9.079045747471564,11.81321803776435,21.18499999999767
312436.9057,4.314098655929656,7.9123964258291775,-10.934235560456543,10.670952647869033,21.18599999998696
312436.9067,2.370279667593655,7.251723537918777,-12.49055354324898,9.451789513798433,21.18699999997625
312436.9077,0.4904055551591783,6.442720141365866,-13.729706190701137,8.150067619102629,21.18799999996554
312436.9087,-1.2822413455599084,5.468474692931205,-14.633930351422087,6.770323162490047,21.18900000001304
312436.9097,-2.8978609038489034,4.327234988084035,-15.184081511127353,5.330059694203407,21.19000000000233
312436.9107,-4.300815723571808,3.034142065354925,-15.359111001022985,3.860751617741605,21.190999999991618
312436.9117,-5.431924598456995,1.620958263490109,-15.137085368635825,2.4068934960851185,21.191999999980908
312436.9127,-6.232271241953833,0.13379645618251862,-14.497699736993043,1.0231258520488147,21.192999999970198
312436.9137,-6.648234959790674,-1.3709277118303107,-13.42603743657661,-0.2303139582208029,21.193999999959487
312436.9147,-6.637279228967178,-2.8319059352378124,-11.917152230248867,-1.293372392934583,21.195000000006985
312436.9157,-6.173907314759932,-4.189143971701253,-9.98091651549928,-2.1125972356778826,21.195999999996275
312436.9167,-5.2551257695515785,-5.390305543936756,-7.64650417412464,-2.647505872212173,21.196999999985565
312436.9177,-3.904755823369382,-6.396507582758428,-4.965869599319031,-2.876196908694298,21.197999999974854
312436.9187,-2.176001471352245,-7.186925061912829,-2.0156473704982387,-2.799549778270347,21.198999999964144
312436.9197,-0.15181662385700193,-7.7616743817720915,1.1029745989125128,-2.4434783409298326,21.20000000001164
312436.9207,2.0571994995256992,-8.14261099947926,4.266673295970078,-1.8588839721001928,21.20100000000093
312436.9217,4.317426579016934,-8.37188350803937,7.334745961728899,-1.1191741209073303,21.20199999999022
312436.9227,6.479176792698895,-8.50831227053648,10.156013617465447,-0.315452338436243,21.20299999997951
312436.9237,8.385557445432436,-8.621883559601734,12.577456805695176,0.45027835299809643,21.2039999999688
312436.9247,9.882622747893347,-8.786847603585132,14.453971198935177,1.073348725454228,21.20499999995809
312436.9257,10.83004613093245,-9.074061008764502,15.658485345954388,1.4553839012363652,21.206000000005588
312436.9267,11.111462152796804,-9.543305058096472,16.091604210125926,1.5131879150772636,21.206999999994878
312436.9277,10.643620614576477,-10.236331642616314,15.689939827581947,1.1867307469582162,21.207999999984168
312436.9287,9.383567275672942,-11.171335237831721,14.432366627943615,0.4454767197877188,21.208999999973457
312436.9297,7.333210422613932,-12.339426808564856,12.343588383509907,-0.7075724074720939,21.209999999962747
312436.9307,4.540838295816127,-13.7035050739153,9.494613882442188,-2.234549825639874,21.211000000010245
312436.9317,1.099400860742553,-15.199699231422535,5.9999907163630635,-4.064301266949539,21.211999999999534
312436.9327,-2.858361810342255,-16.74131620382183,2.011918182877632,-6.096795666967732,21.212999999988824
312436.9337,-7.167597786254484,-18.224987985920215,-2.2883737605123144,-8.210038282159536,21.213999999978114
312436.9347,-11.641245574177761,-19.538503786432255,-6.701357024127297,-10.268925206438114,21.214999999967404
312436.9357,-16.081392582454665,-20.56964796914682,-11.02124388647956,-12.135297933369014,21.215999999956694
312436.9367,-20.291204265846655,-21.215264393481405,-15.048412692178164,-13.678343860154754,21.21700000000419
312436.9377,-24.08649943635878,-21.389740639787536,-18.601269282209593,-14.784454409090142,21.21799999999348
312436.9387,-27.306090224364176,-21.03215469140724,-21.52664382307633,-15.365700231472388,21.21899999998277
312436.9397,-29.820125942036416,-20.111447446440383,-23.707953008976585,-15.366208375296354,21.21999999997206
312436.9407,-31.535867024946654,-18.629165481157226,-25.07055498695903,-14.7659175049295,21.22099999996135
312436.9417,-32.40055047443724,-16.61954244479363,-25.583970382051575,-13.581426104478574,21.222000000008848
312436.9427,-32.40126945596367,-14.14693280640914,-25.260914518788073,-11.863912360488023,21.222999999998137
312436.9437,-31.562052247207106,-11.300854788093757,-24.153358053376138,-9.694368028003504,21.223999999987427
312436.9447,-29.938564940797942,-8.189116820520765,-22.34608055048171,-7.176627036260564,21.224999999976717
312436.9457,-27.61105598488088,-4.929672879765687,-19.948381381621388,-4.4288603892798575,21.225999999966007
312436.9467,-24.676291154737545,-1.6419603050122216,-17.084746699851998,-1.5743342514638239,21.226999999955297
312436.9477,-21.239283511779085,1.561490988036222,-13.885328571705662,1.267723424607634,21.228000000002794
312436.9487,-17.405600270208552,4.582429587824458,-10.47706852465636,3.990334676625482,21.228999999992084
312436.9497,-13.274930876579567,7.342597738457815,-6.976196542417405,6.505357797000406,21.229999999981374
312436.9507,-8.936438897063098,9.787326490211498,-3.4826690882745908,8.747918738230135,21.230999999970663
312436.9517,-4.4662115292553635,11.886761734309163,-0.07689353054751355,10.678380662140858,21.231999999959953
312436.9527,0.07311383501026578,13.634708385462453,3.181156599098378,12.281792556036093,21.23300000000745
312436.9537,4.630702830832173,15.045314383307122,6.250576394099542,13.565006798255231,21.23399999999674
312436.9547,9.164228417874838,16.148025534592072,9.106278656684962,14.55188110908816,21.23499999998603
312436.9557,13.635468922472732,16.981406007035975,11.73440110623533,15.277160513236025,21.23599999997532
312436.9567,18.00545398449452,17.58652160478311,14.127034096294228,15.779752444474868,21.23699999996461
312436.9577,22.22985347984967,18.000614046821845,16.276977800305122,16.096151934847327,21.238000000012107
312436.9587,26.255271238291837,18.251751668859452,18.173208802081074,16.254740309650142,21.239000000001397
312436.9597,30.017001810985505,18.355029942952577,19.79763541899086,16.271574003895775,21.239999999990687
312436.9607,33.438645517355496,18.310725471653964,21.123560091845036,16.148111324260825,21.240999999979977
312436.9617,36.433771270038726,18.1045968684662,22.116063005963447,15.871111601492915,21.241999999969266
312436.9627,38.909589215417995,17.710296365370237,22.734295225307726,15.414704965213634,21.242999999958556
312436.9637,40.77236914787758,17.093630152645883,22.935445568081544,14.74439586736301,21.244000000006054
312436.9647,41.93413892528597,16.21820602255205,22.679946484524123,13.822553238099307,21.244999999995343
312436.9657,42.32004029142754,15.051853897708954,21.937330963009025,12.614776002666156,21.245999999984633
312436.9667,41.8756237330195,13.573113724669604,20.692060972327138,11.09642122092574,21.246999999973923
312436.9677,40.57333939188608,11.777065341715094,18.948627880060652,9.258553680787012,21.247999999963213
312436.9687,38.41753074271529,9.679828600515135,16.73527919009778,7.1126234631292835,21.24900000001071
312436.9697,35.447357547177255,7.321184291769648,14.105848874783335,4.693297312522091,21.25
312436.9707,31.737253408148973,4.764945575275611,11.13934862157655,2.0590489835265733,21.25099999998929
312436.9717,27.394744136784105,2.0969282849789286,7.937196752782496,-0.7096645108458048,21.25199999997858
312436.9727,22.55569497526643,-0.5793946433806446,4.618198640343393,-3.514571502804493,21.25299999996787
312436.9737,17.377294205175982,-3.149237482765264,1.3116234543456262,-6.24579097714172,21.25399999995716
312436.9747,12.029294641978453,-5.494323530858203,-1.8510761782606964,-8.789554695412855,21.255000000004657
312436.9757,6.684202159329506,-7.501507111519514,-4.745203059430515,-11.03676286177631,21.255999999993946
312436.9767,1.5072052804892295,-9.071425984916532,-7.2616278168250545,-12.891591556238073,21.256999999983236
312436.9777,-3.3533284116660287,-10.12639506944993,-9.314678134059273,-14.27934680838927,21.257999999972526
312436.9787,-7.774008172283193,-10.616808636098812,-10.848373404903588,-15.152814928925135,21.258999999961816
312436.9797,-11.662564945134994,-10.52544508604732,-11.840410124901377,-15.496486887027455,21.260000000009313
312436.9807,-14.961501026568232,-9.86925430496304,-12.303499037663027,-15.328224257732355,21.260999999998603
312436.9817,-17.64898442271448,-8.698434886382035,-12.28389144469484,-14.698167645238852,21.261999999987893
312436.9827,-19.736975394343773,-7.092855644893768,-11.85718682271337,-13.684943265801099,21.262999999977183
312436.9837,-21.26682041620962,-5.156119222497926,-11.121762739110894,-12.389475121960146,21.263999999966472
312436.9847,-22.302773157161823,-3.007781949762204,-10.190387242342785,-10.926934690005995,21.264999999955762
312436.9857,-22.924081921800372,-0.7744127331681783,-9.180742418278108,-9.417535601130945,21.26600000000326
312436.9867,-23.216401420988326,1.4197215548930207,-8.205689427600582,-7.976990416402248,21.26699999999255
312436.9877,-23.2633328475407,3.461525925605604,-7.364130213687311,-6.707479592768606,21.26799999998184
312436.9887,-23.138866109111266,5.256730157406522,-6.733266644909224,-5.6899357927106955,21.26899999997113
312436.9897,-22.90139514684092,6.7356709177077185,-6.362929134512406,-4.978324172737623,21.26999999996042
312436.9907,-22.589811969395928,7.856728666125863,-6.272455843087103,-4.596412828753098,21.271000000007916
312436.9917,-22.221973732769737,8.607167890582053,-6.450368404961227,-4.53729494888145,21.271999999997206
312436.9927,-21.795600611831343,9.001374481538608,-6.856832911359945,-4.765667612745324,21.272999999986496
312436.9937,-21.291423369731234,9.076728042517711,-7.428639874941529,-5.222616039121511,21.273999999975786
312436.9947,-20.67818153864353,8.887566347976778,-8.086208081973,-5.832420792880759,21.274999999965075
312436.9957,-19.9188969164701,8.497873111931904,-8.74193605131138,-6.510720954154638,21.276000000012573
312436.9967,-18.9777294091836,7.973432289945735,-9.3091081109154,-7.173245922049363,21.277000000001863
312436.9977,-17.826674064898164,7.374231894679332,-9.710520524242778,-7.744283557640742,21.277999999991152
312436.9987,-16.451383580545393,6.747864366175936,-9.886030101825186,-8.164086680581624,21.278999999980442
312436.9997,-14.855496541680276,6.124562829385965,-9.798339259013087,-8.394529805152082,21.279999999969732
312437.0007,-13.063008238336755,5.514343940023061,-9.436506375660745,-8.422502471402147,21.280999999959022
312437.0017,-11.118422274398016,4.906515159566287,-8.816891426851559,-8.260747465625952,21.28200000000652
312437.0027,-9.084647244947156,4.271568113360592,-7.981492713225367,-7.946100013817381,21.28299999999581
312437.0037,-7.038831071149501,3.565243238460482,-6.993877419249299,-7.535333674627086,21.2839999999851
312437.0047,-5.0665336212671095,2.7343371994930186,-5.933133027506582,-7.099046112505536,21.28499999997439
312437.0057,-3.2548055751757334,1.7236541970414752,-4.886447027547135,-6.714201442826955,21.28599999996368
312437.0067,-1.6848517721734282,0.4833916410740943,-3.941041991548257,-6.45606804556122,21.287000000011176
312437.0077,-0.42499987162233793,-1.023789866052623,-3.17624107661469,-6.390340339224753,21.288000000000466
312437.0087,0.47533387436985286,-2.8167291737336044,-2.6564115293042727,-6.566205821261636,21.288999999989755
312437.0097,0.9900874301289865,-4.891373717656583,-2.425434365151106,-7.011018046901378,21.289999999979045
312437.0107,1.11896610842575,-7.218486493177126,-2.503187619816991,-7.727072606611821,21.290999999968335
312437.0117,0.8875867061334306,-9.743696532193342,-2.884324885677231,-8.690773118157297,21.291999999957625
312437.0127,0.3453353089864806,-12.389910102525718,-3.539400997733332,-9.854238737829517,21.293000000005122
312437.0137,-0.43885559807166885,-15.061871158106223,-4.418165664708039,-11.149167017667017,21.293999999994412
312437.0147,-1.3824031993265884,-17.652453035139597,-5.454636438309076,-12.49254942504197,21.294999999983702
312437.0157,-2.396075203603815,-20.050099098828944,-6.57339523154434,-13.79366256773453,21.29599999997299
312437.0167,-3.391422997504835,-22.14672379908639,-7.696443837680532,-14.961642874712188,21.29699999996228
312437.0177,-4.287937378995446,-23.84534737550279,-8.749913823655367,-15.912906959741795,21.29800000000978
312437.0187,-5.019250210511486,-25.066770472631703,-9.669958094166937,-16.577707945357623,21.29899999999907
312437.0197,-5.5378050973417325,-25.75469534307691,-10.40725141930081,-16.905216129649528,21.29999999998836
312437.0207,-5.817576481035531,-25.8788576481997,-10.92968453685276,-16.86667008626518,21.30099999997765
312437.0217,-5.854613562565027,-25.435931071981628,-11.223034601165084,-16.456345291187656,21.301999999966938
312437.0227,-5.66540346221158,-24.448186058974922,-11.289613219851105,-15.690311158520442,21.302999999956228
312437.0237,-5.283265192306885,-22.960102053900474,-11.145109588957165,-14.603171295748513,21.304000000003725
312437.0247,-4.753180734154603,-21.033327995414783,-10.814038096502653,-13.24318334472885,21.304999999993015
312437.0257,-4.125622453552983,-18.740539247343598,-10.324347548217387,-11.666313827025029,21.305999999982305
312437.0267,-3.4500321703705166,-16.158835699375874,-9.701837740687367,-9.929884210834278,21.306999999971595
312437.0277,-2.768637041865863,-13.363356276931446,-8.965049383016028,-8.086497145168194,21.307999999960884
312437.0287,-2.1112482793966074,-10.42174706700952,-8.121243230264286,-6.17889353573403,21.309000000008382
312437.0297,-1.49158472223264,-7.390018064271121,-7.16396879170947,-4.2362860848705255,21.30999999999767
312437.0307,-0.9055050088121396,-4.310167936697083,-6.072553815525753,-2.272553998555599,21.31099999998696
312437.0317,-0.33133545067094367,-1.2097632588230243,-4.813640091470657,-0.2864832677824656,21.31199999997625
312437.0327,0.2677345681531812,1.8965519182747637,-3.3446698461915028,1.7359823382802617,21.31299999996554
312437.0337,0.9394302622899785,5.003847093256345,-1.6190126543923613,3.817730404784775,21.31400000001304
312437.0347,1.736771150247439,8.112409937956771,0.4077627439845018,5.98515072845209,21.31500000000233
312437.0357,2.7116272951737184,11.222516416214955,2.7711049413543734,8.262075652330278,21.315999999991618
312437.0367,3.908114764433153,14.329099924610519,5.490893173198534,10.663664220168943,21.316999999980908
312437.0377,5.3565149594241666,17.416968963698658,8.565760592358545,13.19092247327023,21.317999999970198
312437.0387,7.06835589550274,20.45717134820589,11.968973336911619,15.826499344630692,21.318999999959487
312437.0397,9.033182829775777,23.404988867600693,15.646377675543308,18.532278679105904,21.320000000006985
312437.0407,11.217381593925237,26.19988074617127,19.51674004679966,21.24911428775371,21.320999999996275
312437.0417,13.56521661899642,28.76749351956083,23.47458111123904,23.898843467682173,21.321999999985565
312437.0427,16.00202668699145,31.023638915603826,27.395366397848978,26.388485766734405,21.322999999974854
312437.0437,18.439306457045454,32.87993151528902,31.142685786709844,28.61631046060423,21.323999999964144
312437.0447,20.781212040966484,34.25059542874852,34.576854401957156,30.47926039620232,21.32500000001164
312437.0457,22.93188322213362,35.059812481762684,37.56421822969206,31.881071174414576,21.32600000000093
312437.0467,24.802887980160776,35.248907649695845,39.98636400417443,32.7403382808891,21.32699999999022
312437.0477,26.320075787746095,34.78265911127894,41.74842355577009,32.99776994825459,21.32799999997951
312437.0487,27.42917709383542,33.65408210719139,42.7857297612904,32.62192257087945,21.3289999999688
312437.0497,28.099603053090725,31.88716270407444,43.06821905652458,31.61284354107944,21.32999999995809
312437.0507,28.32607099484955,29.537198090718515,42.602171891788736,30.003231821138275,21.331000000005588
312437.0517,28.12789098911868,26.68861732421799,41.42911953615332,27.85695211293171,21.331999999994878
312437.0527,27.54597691879759,23.450389897840026,39.622001216652926,25.264982794374426,21.332999999984168
312437.0537,26.637869522553633,19.949356736261002,37.27890569936762,22.339117514205633,21.333999999973457
312437.0547,25.47125695871842,16.322017239175057,34.514952384531746,19.203952378872092,21.334999999962747
312437.0557,24.116630940141007,12.705457321763667,31.453037698007645,15.9878544279973,21.336000000010245
312437.0567,22.639808071351517,9.228192014010856,28.214276553323387,12.813706491807151,21.336999999999534
312437.0577,21.095067161019657,6.001712991493538,24.908995713455024,9.790248572943337,21.337999999988824
312437.0587,19.51960124203145,3.11347419141346,21.62908304291752,7.00478372515739,21.338999999978114
312437.0597,17.92986216065458,0.6219223163424817,18.44236853815599,4.5178915715755865,21.339999999967404
312437.0607,16.3201969689933,-1.4460048664118779,15.389521470335612,2.3606067022243273,21.340999999956694
312437.0617,14.663955737149607,-3.094713765253249,12.483710868666696,0.5342897386437822,21.34200000000419
312437.0627,12.917010661017164,-4.357168511503585,9.713016212848574,-0.986832359329441,21.34299999999348
312437.0637,11.023389448714289,-5.289767107460636,7.045316169166001,-2.250729188790844,21.34399999998277
312437.0647,8.922514780151577,-5.965377299362267,4.435150008713097,-3.3207284670713726,21.34499999997206
312437.0657,6.5573766766787065,-6.465195150305743,1.8318610843819818,-4.2674474104348485,21.34599999996135
312437.0667,3.8828620867602672,-6.870192363067967,-0.8117880285940262,-5.160276610159501,21.347000000008848
312437.0677,0.8734361665138255,-7.2529489305511685,-3.531382081718403,-6.0592358458669295,21.347999999998137
312437.0687,-2.470584046878618,-7.670622883694149,-6.343816889681897,-7.007979840734914,21.348999999987427
312437.0697,-6.118804542240601,-8.159693233025408,-9.242160793415952,-8.028616467210407,21.349999999976717
312437.0707,-10.009039209964447,-8.732936956029668,-12.19293338680045,-9.118821633381247,21.350999999966007
312437.0717,-14.0483419641457,-9.378883089149543,-15.136091334608583,-10.25151134295075,21.351999999955297
312437.0727,-18.116775757722166,-10.063747727748046,-17.987754626923806,-11.377083904103815,21.353000000002794
312437.0737,-22.073660234360112,-10.735616117579614,-20.64544777175673,-12.427997883261288,21.353999999992084
312437.0747,-25.76581484673159,-11.330424896424933,-22.995393757554286,-13.325227988678828,21.354999999981374
312437.0757,-29.037133378856417,-11.77912931317108,-24.921206420751105,-13.985963051451277,21.355999999970663
312437.0767,-31.73870573510267,-12.015332875823567,-26.313197065081958,-14.331794594065576,21.356999999959953
312437.0777,-33.738654561962946,-11.982620348445774,-27.07745567059608,-14.296601975650654,21.35800000000745
312437.0787,-34.930881857414555,-11.64087239717581,-27.143890507825006,-13.833374476225659,21.35899999999674
312437.0797,-35.24202109443796,-10.970947354558776,-26.472509575419913,-12.919318159911684,21.35999999998603
312437.0807,-34.6360535741965,-9.977281650504924,-25.057392909917,-11.55876510251581,21.36099999997532
312437.0817,-33.116257904726766,-8.688168902082085,-22.928020165337045,-9.783617764276805,21.36199999996461
312437.0827,-30.724398546928985,-7.1537078874824624,-20.147862024379403,-7.651300796461643,21.363000000012107
312437.0837,-27.53730081451823,-5.441639064464123,-16.810393527467884,-5.240433005555949,21.364000000001397
312437.0847,-23.66118291681454,-3.6314955340301664,-13.032918556217433,-2.644650205719914,21.364999999990687
312437.0857,-19.224299939129082,-1.807657363797158,-8.94878574643541,0.03481579317274426,21.365999999979977
312437.0867,-14.368583352732887,-0.05200223832639477,-4.698709357683843,2.697082526695443,21.366999999969266
312437.0877,-9.241021524699123,1.5631194289317638,-0.42197213925347643,5.2493237616049795,21.367999999958556
312437.0887,-3.985517072544967,2.980893674462639,3.751724123977865,7.61350678340554,21.369000000006054
312437.0897,1.264121986236476,4.164450269054393,7.7090787954683675,9.731532016734267,21.369999999995343
312437.0907,6.389539621328491,5.09924462143563,11.358149402731506,11.568310994201186,21.370999999984633
312437.0917,11.291205088781764,5.793194983874526,14.631107663880444,13.112527425554614,21.371999999973923
312437.0927,15.889681411412395,6.274581064885218,17.484681383271333,14.375058808000423,21.372999999963213
312437.0937,20.124885717485125,6.587934536768831,19.898399951077074,15.385269643465264,21.37400000001071
312437.0947,23.953639370193173,6.788353076996788,21.870975422797834,16.18559880533961,21.375
312437.0957,27.345971046970014,6.934827586243519,23.415327731924013,16.825032034748055,21.37599999998929
312437.0967,30.2807489814425,7.083271396872233,24.552884329918903,17.35215929711048,21.37699999997858
312437.0977,32.741268625420496,7.279970715110985,25.307839808622106,17.808555027919777,21.37799999996787
312437.0987,34.71140454809008,7.556134078973317,25.702044854830977,18.22318332309671,21.37899999995716
312437.0997,36.17285277892695,7.924109195841567,25.751108362053863,18.608423397144993,21.380000000004657
312437.1007,37.10385088729643,8.37566879504532,25.462150736462075,18.958143654961322,21.380999999993946
312437.1017,37.47958241560997,8.882559423344922,24.83345544743735,19.248041995370677,21.381999999983236
312437.1027,37.27426861833074,9.39927885512649,23.85604927007322,19.43823635537305,21.382999999972526
312437.1037,36.46474495420536,9.86782152081428,22.51702161197914,19.477856216729176,21.383999999961816
312437.1047,35.03513385511139,10.223929514085164,20.804192363675657,19.311176091778222,21.385000000009313
312437.1057,32.98207850760317,10.404229455184351,18.71157656739065,18.884666911543086,21.385999999998603
312437.1067,30.31991045573477,10.353538606179274,16.244989659875294,18.154237470724976,21.386999999987893
312437.1077,27.085097055856856,10.03159712674604,13.427100311693714,17.09190637489525,21.387999999977183
312437.1087,23.339356969598956,9.41853031889313,10.301273420836187,15.691188951443337,21.388999999966472
312437.1097,19.170939814629158,8.51846101012924,6.933650863753373,13.970599530598921,21.389999999955762
312437.1107,14.693729964797555,7.360866892147168,3.4130824099697947,11.974846453527498,21.39100000000326
312437.1117,10.044038704475962,5.999493888414273,-0.15127205699782179,9.77351811562562,21.39199999999255
312437.1127,5.375173649359474,4.50887351203102,-3.6346155684577752,7.457301864415357,21.39299999998184
312437.1137,0.8500973967680056,2.978726601550375,-6.903175965442696,5.1320198608940295,21.39399999997113
312437.1147,-3.3673135017023466,1.5067448202696248,-9.822359928638628,2.910983290067148,21.39499999996042
312437.1157,-7.121743103079779,0.19040429235152956,-12.265735895216196,0.9063371136843213,21.396000000007916
312437.1167,-10.275883091875167,-0.8814334370679959,-14.124077057890494,-0.7798251065945627,21.396999999997206
312437.1177,-12.71906662625202,-1.6363494341083187,-15.3136623445745,-2.06376378359927,21.397999999986496
312437.1187,-14.374352680531036,-2.0248876449075603,-15.783076547777963,-2.887045699853496,21.398999999975786
312437.1197,-15.203443944641004,-2.0251487431661004,-15.517867449765015,-3.221497577571452,21.399999999965075
312437.1207,-15.209000183729781,-1.645016950120216,-14.542597493810339,-3.071693858460468,21.401000000012573
312437.1217,-14.43413072755406,-0.9218001310763894,-12.92005365275247,-2.4747387763176247,21.402000000001863
312437.1227,-12.959093631134694,0.08069406379360683,-10.747630346747437,-1.4973533715308072,21.402999999991152
312437.1237,-10.895471940115291,1.2773826647546345,-8.151152657573121,-0.23052800234278822,21.403999999980442
312437.1247,-8.378316309021583,2.5689536723356836,-5.276636492870168,1.2177739864557249,21.404999999969732
312437.1257,-5.556917111933819,3.8500859295637104,-2.2806666807959806,2.731197203657741,21.405999999959022
312437.1267,-2.5849816039491347,5.018087178738705,0.6798045882277918,4.194080679722007,21.40700000000652
312437.1277,0.38896798724968945,5.98116030016234,3.4573897719439364,5.500230628029767,21.40799999999581
312437.1287,3.2301949947897666,6.665548836330187,5.923111634583294,6.56059847255906,21.4089999999851
312437.1297,5.824674546240707,7.020925494997865,7.973454153038189,7.309195702874621,21.40999999997439
312437.1307,8.083841544679652,7.02356021198441,9.535084106537578,7.70675285379495,21.41099999996368
312437.1317,9.946870316014667,6.677020505984763,10.566931108647433,7.741851429234729,21.412000000011176
312437.1327,11.380433768507373,6.010395076279304,11.059563010337296,7.429503119713631,21.413000000000466
312437.1337,12.376128798809388,5.074268608066705,11.032045418896512,6.807396155378295,21.413999999989755
312437.1347,12.94597144038752,3.934888496070885,10.526704165947603,5.930250140766999,21.414999999979045
312437.1357,13.116539051515987,2.6671320758561383,9.602395769169377,4.862896724317797,21.415999999968335
312437.1367,12.92245112436297,1.3469898342639393,8.32701551099018,3.6728169946446427,21.416999999957625
312437.1377,12.399924384968024,0.0443158574267237,6.770024071070878,2.4229067847087618,21.418000000005122
312437.1387,11.581107970736957,-1.1834416313916156,4.9957473101913195,1.1652045493769494,21.418999999994412
312437.1397,10.489804099512876,-2.295925207095484,3.0581030747180216,-0.06379283488381235,21.419999999983702
312437.1407,9.139019169208625,-3.2725315999812565,0.9972443423288326,-1.2457719631284159,21.42099999997299
312437.1417,7.530585916413151,-4.112825983900467,-1.1616035259984947,-2.380963515195172,21.42199999996228
312437.1427,5.656869665374552,-4.834710541966496,-3.40707084185183,-3.486220931676961,21.42300000000978
312437.1437,3.5043436298743096,-5.470579829010976,-5.738535334340206,-4.591053941344628,21.42399999999907
312437.1447,1.0586125309608332,-6.061900223647207,-8.161392789696254,-5.732066646499496,21.42499999998836
312437.1457,-1.6896989112749146,-6.652810843595338,-10.681294807983786,-6.94641704251954,21.42599999997765
312437.1467,-4.73887938066835,-7.283442823703563,-13.298053844129639,-8.265019577714122,21.426999999966938
312437.1477,-8.070606451974074,-7.983682953428632,-15.999955404200879,-9.706244128266823,21.427999999956228
312437.1487,-11.645644230353698,-8.76806342477227,-18.75918074912868,-11.270820257503095,21.429000000003725
312437.1497,-15.401333173621365,-9.632346185089084,-21.52893430467695,-12.938539074058804,21.429999999993015
312437.1507,-19.251272708854682,-10.552199278770969,-24.24269898101104,-14.6671677528033,21.430999999982305
312437.1517,-23.087384883020995,-11.484150487560497,-26.815826693470946,-16.3937712066055,21.431999999971595
312437.1527,-26.78431267877627,-12.368771509302631,-29.149431935037644,-18.03839318416452,21.432999999960884
312437.1537,-30.205872765711607,-13.13581683920294,-31.136317022738922,-19.50980909877202,21.434000000008382
312437.1547,-33.21307234911086,-13.710838190839906,-32.668442390234276,-20.712848895308664,21.43499999999767
312437.1557,-35.67303419771275,-14.022637999402844,-33.645285485990485,-21.556621491693782,21.43599999998696
312437.1567,-37.46806938872012,-14.010830101689717,-33.98232451378121,-21.962869477994627,21.43699999997625
312437.1577,-38.5041044266215,-13.63275187158091,-33.61884940071503,-21.873654311090707,21.43799999996554
312437.1587,-38.71771186459015,-12.869022689405005,-32.524345834337666,-21.257621458570224,21.43900000001304
312437.1597,-38.081107772826385,-11.727164132423484,-30.702815289938112,-20.114217511165457,21.44000000000233
312437.1607,-36.6046547844954,-10.242876320455483,-28.194573818028758,-18.475415731273635,21.440999999991618
312437.1617,-34.33662948973895,-8.478785296413923,-25.07529800141033,-16.404735317654172,21.441999999980908
312437.1627,-31.360256774986805,-6.520716920807479,-21.452336453073745,-13.993590966802001,21.442999999970198
312437.1637,-27.788258118498835,-4.471790224194853,-17.458555620385482,-11.355258981179427,21.443999999959487
312437.1647,-23.75538256161417,-2.444834426725866,-13.24421547763556,-8.61697018637199,21.445000000006985
312437.1657,-19.409566943563465,-0.5537983013908677,-8.967552114489443,-5.910816663296234,21.445999999996275
312437.1667,-14.902489078513938,1.09507789602141,-4.784862753873024,-3.364271677794259,21.446999999985565
312437.1677,-10.380322762780617,2.4115291570793356,-0.8409328561202795,-1.0911592669770698,21.447999999974854
312437.1687,-5.975472631769725,3.3282198218197023,2.7393896844278878,0.8161319781453454,21.448999999964144
312437.1697,-1.7999630624424414,3.805752972581638,5.857778464073918,2.2925134062393226,21.45000000001164
312437.1707,2.0590113148798976,3.8352827296747156,8.446651122347648,3.3036425087707837,21.45100000000093
312437.1717,5.541079169491479,3.4385001022735695,10.47073459722218,3.846681855616531,21.45199999999022
312437.1727,8.612174904547828,2.6650081045923737,11.925927504419413,3.9483541680042866,21.45299999997951
312437.1737,11.26169662939663,1.5873454036711052,12.835667060525916,3.660529856190922,21.4539999999688
312437.1747,13.497747397418374,0.2941364129952608,13.245239195153431,3.053812487527192,21.45499999995809
312437.1757,15.341046286879662,-1.1179815472283463,13.214657604579097,2.209770963896384,21.456000000005588
312437.1767,16.818215189992834,-2.552893247212676,12.810862407150644,1.212587065318111,21.456999999994878
312437.1777,17.955195369305,-3.9232048857762294,12.100039733204698,0.14093200131124173,21.457999999984168
312437.1787,18.77152036211514,-5.157349503353158,11.14083522573606,-0.9391484708962462,21.458999999973457
312437.1797,19.276071504647717,-6.20495238201637,9.979129984281796,-1.9796704209186249,21.459999999962747
312437.1807,19.464779213207706,-7.039984126636087,8.644877365931514,-2.9539739216623495,21.461000000010245
312437.1817,19.32052340668156,-7.66144748862132,7.151280147270087,-3.8575369937658763,21.461999999999534
312437.1827,18.815250918738815,-8.091585594211987,5.496341562598315,-4.706314487538914,21.462999999988824
312437.1837,17.914089857144855,-8.371840474507824,3.6665750873884404,-5.532823464588568,21.463999999978114
312437.1847,16.581024345942645,-8.557008130522952,1.642431261895794,-6.380421761548505,21.464999999967404
312437.1857,14.785519621117244,-8.708208640625195,-0.59518204814637,-7.2964061058066685,21.465999999956694
312437.1867,12.509374553194867,-8.885400311343341,-3.058028536728569,-8.324672730741288,21.46700000000419
312437.1877,9.753037943794537,-9.140204948061916,-5.74410806529619,-9.498725453183955,21.46799999999348
312437.1887,6.540660925606976,-9.509773460544439,-8.632407891958891,-10.835779529309812,21.46899999998277
312437.1897,2.9232674956390867,-10.012311157039333,-11.679479255300457,-12.332597955424168,21.46999999997206
312437.1907,-1.0204016177827837,-10.644711219884774,-14.818300154988192,-13.963521284826808,21.47099999996135
312437.1917,-5.1855964343387,-11.382529971471962,-17.959658862877088,-15.680929862057253,21.472000000008848
312437.1927,-9.445795358230365,-12.182299915077069,-20.9960401420906,-17.418130610310786,21.472999999998137
312437.1937,-13.659203985989327,-12.98593967050102,-23.807742214866575,-19.09441357678459,21.473999999987427
312437.1947,-17.677020509485178,-13.726807233070682,-26.270722330849587,-20.621800828654276,21.474999999976717
312437.1957,-21.352791855922693,-14.33677549983626,-28.265485265082724,-21.912834135586998,21.475999999966007
312437.1967,-24.552065651327755,-14.753603322766777,-29.68621066816447,-22.888635786996897,21.476999999955297
312437.1977,-27.16149825326448,-14.927841994049944,-30.449274048324735,-23.486440230472258,21.478000000002794
312437.1987,-29.096613351319476,-14.828559471885807,-30.500356915527536,-23.665836955687848,21.478999999992084
312437.1997,-30.307516257443563,-14.447278802166345,-29.81946088484703,-23.413083368675423,21.479999999981374
312437.2007,-30.78204591771858,-13.79970200776187,-28.423327236517764,-22.74302904859631,21.480999999970663
312437.2017,-30.546073376597153,-12.925009140672428,-26.36499982736274,-21.698422137056816,21.481999999959953
312437.2027,-29.660910579489748,-11.88276283254862,-23.73053266735947,-20.346622405606222,21.48300000000745
312437.2037,-28.218052880381162,-10.747687903470325,-20.633108505099038,-18.77399901463492,21.48399999999674
312437.2047,-26.331717823936284,-9.60280983384087,-17.205075741230722,-17.07851927339597,21.48499999998603
312437.2057,-24.12983899047649,-8.531603985945106,-13.588604503032197,-15.361215347851006,21.48599999997532
312437.2067,-21.74430831549248,-7.609912659746895,-9.925789917334356,-13.717330917036039,21.48699999996461
312437.2077,-19.301320609985446,-6.898418776279096,-6.349079079152874,-12.227987662445237,21.488000000012107
312437.2087,-16.912654435572133,-6.436419765371306,-2.9728631401561825,-10.953168093889618,21.489000000001397
312437.2097,-14.66862612925062,-6.237527177623695,0.11303932966569562,-9.926690392490004,21.489999999990687
312437.2107,-12.633288201944097,-6.287737862056404,2.8474658783881956,-9.153664077186006,21.490999999979977
312437.2117,-10.842225667956843,-6.546098511865513,5.199254289121751,-8.610680238566824,21.491999999969266
312437.2127,-9.30305518192495,-6.94793859796596,7.165804811706506,-8.248729436991848,21.492999999958556
312437.2137,-7.998476157219659,-7.410401039943143,8.76908464191033,-7.9985792756430385,21.494000000006054
312437.2147,-6.8914848758257365,-7.839779167706259,10.04954228550381,-7.77810736727146,21.494999999995343
312437.2157,-5.932164714952579,-8.13999394767169,11.058596286622592,-7.500896777825531,21.495999999984633
312437.2167,-5.065326726661819,-8.221433929950681,11.8504939771304,-7.085278312464705,21.496999999973923
312437.2177,-4.238207805311918,-8.009342632599735,12.474388823624576,-6.462959095099903,21.497999999963213
312437.2187,-3.407444407356585,-7.45097767428042,12.967454641908022,-5.586414141205609,21.49900000001071
312437.2197,-2.54462651677762,-6.520878979789654,13.349744537150903,-4.434333457067313,21.5
312437.2207,-1.6398901835590665,-5.223758831310195,13.621322804735907,-3.0146004644301567,21.50099999998929
312437.2217,-0.7032119778409693,-3.5947474738394933,13.761966782649028,-1.3645106210863995,21.50199999997858
312437.2227,0.23669530569047034,-1.6969731659832166,13.733475350418264,0.45180039018405027,21.50299999996787
312437.2237,1.135742660482726,0.38329845561907244,13.484356774823501,2.348486545462123,21.50399999995716
312437.2247,1.9397100192813332,2.5435174449955396,12.956426589270286,4.225206705528179,21.505000000004657
312437.2257,2.5908166989113646,4.673067067512909,12.092649690201105,5.975757528649957,21.505999999993946
312437.2267,3.034924567739829,6.662098450863596,10.845428951697908,7.497325318674383,21.506999999983236
312437.2277,3.228617825312365,8.41018690893725,9.18448825910306,8.699502968526302,21.507999999972526
312437.2287,3.1454147689535534,9.834041458882457,7.10352632468738,9.512243921718289,21.508999999961816
312437.2297,2.780451934888794,10.87359782190009,4.624926365710125,9.89202876560839,21.510000000009313
312437.2307,2.1531308939255154,11.495985588461094,1.8019853622731452,9.825691326934733,21.510999999998603
312437.2317,1.3074178332712854,11.69706625052132,-1.2816418919524104,9.33157319711663,21.511999999987893
312437.2327,0.30971615497433874,11.500470242079324,-4.5153265182271,8.457926953218694,21.512999999977183
312437.2337,-0.7555298945738531,10.954295528507323,-7.7674517825554785,7.278744786631565,21.513999999966472
312437.2347,-1.7921202844341615,10.125845133014595,-10.893528677198173,5.887426319541708,21.514999999955762
312437.2357,-2.6997075049549695,9.094955895726265,-13.745763490629535,4.388894641279673,21.51600000000326
312437.2367,-3.3820324806596314,7.9465894159535715,-16.18325891867774,2.890904792638583,21.51699999999255
312437.2377,-3.7550296481475507,6.763407847258084,-18.081965712663056,1.495351756789759,21.51799999998184
312437.2387,-3.754053142739888,5.619037934153598,-19.343519876330223,0.29037025132816774,21.51899999997113
312437.2397,-3.3395582451766876,4.572639299033398,-19.90219914056613,-0.656071433999586,21.51999999996042
312437.2407,-2.5007179077689448,3.665247035877642,-19.729402274033863,-1.3005370749347496,21.521000000007916
312437.2417,-1.2566488064401973,2.918169317033707,-18.83527936737928,-1.6261067770670212,21.521999999997206
312437.2427,0.344854237616559,2.333507261646286,-17.267399022404092,-1.6418739688367119,21.522999999986496
312437.2437,2.2309444236293845,1.8966482328966403,-15.106604768473533,-1.380090294125373,21.523999999975786
312437.2447,4.309361255492211,1.5803865727405522,-12.460462704105542,-0.8913171880476133,21.524999999965075
312437.2457,6.4755507848478535,1.3501670304998998,-9.45491176051092,-0.23812743615066048,21.526000000012573
312437.2467,8.620608992679648,1.1698413012385271,-6.224877564321439,0.511972160831893,21.527000000001863
312437.2477,10.639325809032812,1.0072871755084791,-2.9046869914112823,1.2936666259860745,21.527999999991152
312437.2487,12.437614033039013,0.8392663696392163,0.3808833034323373,2.0502910352570662,21.528999999980442
312437.2497,13.938683098337531,0.6549879272517855,3.524173494515889,2.738990523852516,21.529999999969732
312437.2507,15.087453922586558,0.45798949243206677,6.440223481395203,3.3340988219033583,21.530999999959022
312437.2517,15.85289375381909,0.266133632137491,9.069979234792267,3.8284458656609757,21.53200000000652
312437.2527,16.228160278555983,0.10972167497631037,11.380968929515687,4.232525308898757,21.53299999999581
312437.2537,16.22866099699489,0.027932155717788506,13.365543657896387,4.571677064677765,21.5339999999851
312437.2547,15.888335255636221,0.06397391453876572,15.037010668439914,4.881645615802721,21.53499999997439
312437.2557,15.254632331790324,0.2594863879917043,16.424182072170723,5.203041016040652,21.53599999996368
312437.2567,14.382773275232344,0.6488069085015894,17.56499995634286,5.575339596471801,21.537000000011176
312437.2577,13.329935852063786,1.2537477215465158,18.4999668577034,6.031104441977682,21.538000000000466
312437.2587,12.149986347299878,2.0794812471526285,19.26610272668039,6.5910775649968505,21.538999999989755
312437.2597,10.889301470719538,3.1120249501021644,19.892067700472303,7.260699442003461,21.539999999979045
312437.2607,9.584087094456835,4.317657534538312,20.394943505805763,8.028457157663594,21.540999999968335
312437.2617,8.25942265089956,5.644401910778161,20.77897093330053,8.866265687064598,21.541999999957625
312437.2627,6.930059567725104,7.025497172342853,21.036317231939634,9.731868011556317,21.543000000005122
312437.2637,5.602800241403934,8.384573205373647,21.149718879453747,10.573021267972013,21.543999999994412
312437.2647,4.280102024750371,9.642058779153645,21.096635767828012,11.333040464187894,21.544999999983702
312437.2657,2.9644077776133892,10.722215867497509,20.8543841204508,11.957118713602126,21.54599999997299
312437.2667,1.6626159578580262,11.56011404168531,20.40560488697974,12.398749426465516,21.54699999996228
312437.2677,0.39007870103743125,12.107847772703705,19.74338337762422,12.625551523398151,21.54800000000978
312437.2687,-0.8264410414683964,12.339358386020255,18.875368757926505,12.623846638214,21.54899999999907
312437.2697,-1.9473162925097336,12.253346260678894,17.826345385933987,12.401453290394233,21.54999999998836
312437.2707,-2.920410903380264,11.873936161322161,16.63887123875044,11.98833605065635,21.55099999997765
312437.2717,-3.6833508348214816,11.248972402971914,15.371805071610995,11.434960866888316,21.551999999966938
312437.2727,-4.167607496939387,10.446050140437793,14.0967722335624,10.808439847399601,21.552999999956228
312437.2737,-4.304081036837806,9.54661194197137,12.892845665339097,10.186776703105926,21.554000000003725
312437.2747,-4.029690415136344,8.638632891056009,11.83992003425833,9.651724733120487,21.554999999993015
312437.2757,-3.294342028414681,7.808563334429087,11.011412178383523,9.280922216726381,21.555999999982305
312437.2767,-2.0675743690821036,7.133281202892176,10.467013585954945,9.140059440688612,21.556999999971595
312437.2777,-0.34417166937209376,6.672816785928538,10.246240334143222,9.275847624276611,21.557999999960884
312437.2787,1.8518933508590878,6.464550125710839,10.363469864272895,9.710500178611623,21.559000000008382
312437.2797,4.46569379716528,6.519450188957905,10.805026902669603,10.438306014298343,21.55999999999767
312437.2807,7.412077780443423,6.820737763053169,11.528694632877261,11.424684997228908,21.56099999998696
312437.2817,10.578984773158863,7.32512825384397,12.465799767552877,12.607885051251117,21.56199999997625
312437.2827,13.833200242677265,7.966567747696204,13.525773571261581,13.90323088970932,21.56299999996554
312437.2837,17.028166007395715,8.66213913079192,14.60284931350506,15.20959001618172,21.56400000001304
312437.2847,20.013260487933863,9.319607541423096,15.584343914906542,16.417506223339277,21.56500000000233
312437.2857,22.643810279119045,9.845916066533599,16.359808832831682,17.418285430115738,21.565999999991618
312437.2867,24.791007717256566,10.155848812609442,16.83023888756333,18.113219688608908,21.566999999980908
312437.2877,26.35089760808738,10.180058533406951,16.916507737818886,18.422112572797793,21.567999999970198
312437.2887,27.251662096643194,9.871712042514758,16.566257673766987,18.290325597878933,21.568999999959487
312437.2897,27.458570472572923,9.211133525438822,15.758604251790791,17.693695855647714,21.570000000006985
312437.2907,26.97615824786757,8.208011619764282,14.506210813298937,16.64086757106434,21.570999999996275
312437.2917,25.84743906461024,6.900963108108004,12.854525867352809,15.172816668929467,21.571999999985565
312437.2927,24.150211759892926,5.354492651623727,10.878235178937494,13.359605307734219,21.572999999974854
312437.2937,21.990779141484488,3.653630679883935,8.675235613252692,11.29465820507589,21.573999999964144
312437.2947,19.495620961984713,1.896747223750334,6.35866505305898,9.087080215217062,21.57500000001164
312437.2957,16.80174009253948,0.18720761787500279,4.047700379922576,6.852713386189561,21.57600000000093
312437.2967,14.04651151185784,-1.3753593188436881,1.8579466723724594,4.704744663471948,21.57699999999022
312437.2977,11.357898200120095,-2.7033786014083487,-0.1077251244829234,2.744711879102746,21.57799999997951
312437.2987,8.845853339723236,-3.7284744716528864,-1.7670809217645542,1.054712371712963,21.5789999999688
312437.2997,6.595608866279513,-4.406802488893288,-3.064477272268359,-0.30850011546780143,21.57999999995809
312437.3007,4.663367950752996,-4.722103006376493,-3.9743626055308146,-1.3170271258640232,21.581000000005588
312437.3017,3.074690952536308,-4.6862296360513245,-4.502054053120491,-1.972671279347649,21.581999999994878
312437.3027,1.8256125559833636,-4.337146835908585,-4.681773563866985,-2.305094374108286,21.582999999984168
312437.3037,0.88627614762964,-3.7346296777961077,-4.572181940180833,-2.367518482024831,21.583999999973457
312437.3047,0.20664382558861147,-2.9541132098704064,-4.249879457713932,-2.2304287767744517,21.584999999962747
312437.3057,-0.2763418554283592,-2.079308151428831,-3.8015250876899027,-1.9739187738657193,21.586000000010245
312437.3067,-0.6308883013482647,-1.194307956807406,-3.31534583842768,-1.6794373380381453,21.586999999999534
312437.3077,-0.9225662538089562,-0.37594957806049917,-2.8728524102353328,-1.4217412890794507,21.587999999988824
312437.3087,-1.2073670083056454,0.3128464813843221,-2.5415435142365506,-1.2618240218747063,21.588999999978114
312437.3097,-1.5262613795092044,0.828137803156066,-2.3692727244332827,-1.2414831353763014,21.589999999967404
312437.3107,-1.9017530508828842,1.1479698009710815,-2.3807796757313473,-1.380019686286326,21.590999999956694
312437.3117,-2.3367081469675908,1.2730876673766436,-2.5766689298341374,-1.6733454471142422,21.59200000000419
312437.3127,-2.8155076014016154,1.2253338613510292,-2.9348764399403193,-2.095533908821803,21.59299999999348
312437.3137,-3.3073324637726826,1.0439427044051925,-3.414419073847801,-2.602609413766266,21.59399999998277
312437.3147,-3.7711779450182474,0.7801485101165351,-3.9610008849636444,-3.1381503284493792,21.59499999997206
312437.3157,-4.162020669965554,0.49068527255895317,-4.513872181146393,-3.6401077565406905,21.59599999996135
312437.3167,-4.437451847969902,0.23085878854435027,-5.013220930561671,-4.048127672701032,21.597000000008848
312437.3177,-4.56404748252482,0.04790657926205172,-5.407331588809131,-4.310622168596103,21.597999999998137
312437.3187,-4.522778934805151,-0.024675707200801797,-5.65877784658786,-4.390868298333546,21.598999999987427
312437.3197,-4.312869453005577,0.02873361694527164,-5.74901944202794,-4.271516952855423,21.599999999976717
312437.3207,-3.953664097540046,0.20370687987704755,-5.68093835363667,-3.957058473702291,21.600999999966007
312437.3217,-3.484285423845268,0.47576369074578195,-5.479059706725266,-3.47399966496427,21.601999999955297
312437.3227,-2.9610747366857675,0.8025352234115136,-5.187436594785078,-2.868737619974392,21.603000000002794
312437.3237,-2.453045968937505,1.1278739516226053,-4.86541251714516,-2.2033463788465117,21.603999999992084
312437.3247,-2.0357836354766543,1.387492342023459,-4.581687112391205,-1.549700070138467,21.604999999981374
312437.3257,-1.7843775720632393,1.5155622868266714,-4.407279515416773,-0.9825204673313502,21.605999999970663
312437.3267,-1.7660893137658897,1.451612677358171,-4.408092558015647,-0.5720418123100746,21.606999999959953
312437.3277,-2.033477901591843,1.1470345031260818,-4.637819720073889,-0.3770212806198644,21.60800000000745
312437.3287,-2.6186733934704,0.5705436245489562,-5.131901752267702,-0.438786457286304,21.60899999999674
312437.3297,-3.529378326292322,-0.2879434837592029,-5.90313505517726,-0.7769057185487789,21.60999999998603
312437.3307,-4.747011528680131,-1.4154069318146134,-6.939369922547251,-1.3869042961161302,21.61099999997532
312437.3317,-6.227201429214179,-2.7759830449147866,-8.20353014869319,-2.240244526377919,21.61199999996461
312437.3327,-7.902607842187687,-4.313361537220526,-9.635956922266542,-3.286563865989561,21.613000000012107
312437.3337,-9.687824710435171,-5.955084393894184,-11.15885213339262,-4.457941171941198,21.614000000001397
312437.3347,-11.485913848823033,-7.618324093872175,-12.68239179328287,-5.6747627234322,21.614999999990687
312437.3357,-13.195961391343696,-9.216575173315182,-14.111919382747558,-6.852604261775109,21.615999999979977
312437.3367,-14.720950065725864,-10.666606568507905,-15.355527384276124,-7.909449271478417,21.616999999969266
312437.3377,-15.975211350405012,-11.895001134114189,-16.331302830820224,-8.772536200912246,21.617999999958556
312437.3387,-16.89076486942203,-12.843655102235612,-16.97355232742133,-9.384170831268712,21.619000000006054
312437.3397,-17.421963735001263,-13.47371919002201,-17.23742938974763,-9.705949941427578,21.619999999995343
312437.3407,-17.548032887538888,-13.767623494960313,-17.10155107854041,-9.721007533995703,21.620999999984633
312437.3417,-17.273296085097666,-13.72902401976566,-16.568395148475634,-9.434098422636355,21.621999999973923
312437.3427,-16.62511533769748,-13.380719911074252,-15.6624926762446,-8.869555339450606,21.622999999963213
312437.3437,-15.649791601088264,-12.760796000000102,-14.426651890391177,-8.067372538877548,21.62400000001071
312437.3447,-14.406875081373862,-11.917424296126454,-12.916644543646813,-7.077859251268049,21.625
312437.3457,-12.962487722290739,-10.902892649204885,-11.194937045235791,-5.955451029141332,21.62599999998929
312437.3467,-11.38235401377752,-9.767505240678894,-9.324139602975428,-4.752351366634381,21.62699999997858
312437.3477,-9.725259859155958,-8.554010098033327,-7.360868712490954,-3.512691344009599,21.62799999996787
312437.3487,-8.037610508030795,-7.293152239163831,-5.350669283973574,-2.2678397627632227,21.62899999995716
312437.3497,-6.349642338423829,-6.0008328898723216,-3.324527460586783,-1.033375706047748,21.630000000004657
312437.3507,-4.673671115471701,-4.67718721762255,-1.2973353518392894,0.1919383233719653,21.630999999993946
312437.3517,-3.0045484123791226,-3.307691981883388,0.7315384208084386,1.4250541790160192,21.631999999983236
312437.3527,-1.3222691908055815,-1.8662005992371673,2.7756423815369526,2.6955026912714946,21.632999999972526
312437.3537,0.40355005098740326,-0.3195979300489579,4.857087934409154,4.040537652596126,21.633999999961816
312437.3547,2.2077992540515563,1.366408579375947,7.000924730022445,5.499058455820302,21.635000000009313
312437.3557,4.123234492845931,3.2209729544050485,9.228865332156515,7.104948522836509,21.635999999998603
312437.3567,6.17378161516695,5.261948891120873,11.553058664713536,8.880541276318302,21.636999999987893
312437.3577,8.368511487661369,7.490560295097027,13.970620651959095,10.830928703245535,21.637999999977183
312437.3587,10.69695683594509,9.887512903937875,16.459566961044786,12.939758505158718,21.638999999966472
312437.3597,13.126315223620775,12.411023822833178,18.97666246698451,15.167030580001061,21.639999999955762
312437.3607,15.60090154095583,14.99706391848662,21.457517321611615,17.44921489233404,21.64100000000326
312437.3617,18.043994058911355,17.561893687982845,23.819038152915596,19.70178879353419,21.64199999999255
312437.3627,20.361982058449467,20.006747296429342,25.964106553427488,21.82405429337646,21.64299999998184
312437.3637,22.450493409125194,22.224304102109034,27.788128907184635,23.705867893871645,21.64399999997113
312437.3647,24.201979850049252,24.106403425411475,29.186904417986863,25.235719833422657,21.64499999996042
312437.3657,25.514085974193847,25.552324869333244,30.065111767228338,26.30945543601312,21.646000000007916
312437.3667,26.29804018475877,26.476886698503904,30.34463418229021,26.838853304557453,21.646999999997206
312437.3677,26.48629113182035,26.81761605121824,29.97193657019474,26.759271586607724,21.647999999986496
312437.3687,26.03867320710408,26.540317648088575,28.923778298753405,26.03564554260184,21.648999999975786
312437.3697,24.94651413587654,25.642505768751487,27.210685317330704,24.666260908565487,21.649999999965075
312437.3707,23.23428433161528,24.154354823371072,24.877802844339012,22.68392506015806,21.651000000012573
312437.3717,20.958613632250803,22.137048918585986,22.002986359739545,20.154393220298907,21.652000000001863
312437.3727,18.204744590616276,19.678649035341852,18.69224174453583,17.172157618321755,21.652999999991152
312437.3737,15.08072914449099,16.887825040495702,15.072870938382612,13.853949699724904,21.653999999980442
312437.3747,11.709884255263347,13.885996801673892,11.284893827460055,10.330515990931298,21.654999999969732
312437.3757,8.22218175015121,10.798575167115594,7.471479463533612,6.737386777560249,21.655999999959022
312437.3767,4.745342643856234,7.746075308950023,3.7692142673774836,3.2054480139540313,21.65700000000652
312437.3777,1.3964274296935897,4.835883903019039,0.2990521475397588,-0.14785806826473716,21.65799999999581
312437.3787,-1.72534082256919,2.1553968182888394,-2.841270574695513,-3.2259409392290532,21.6589999999851
312437.3797,-4.543908886194388,-0.2328884799382671,-5.582708314979756,-5.958450275767648,21.65999999997439
312437.3807,-7.009453056136325,-2.2939290874598925,-7.887817121446343,-8.30421061461081,21.66099999996368
312437.3817,-9.098961539010972,-4.020169134831487,-9.75089215395191,-10.251501893064892,21.662000000011176
312437.3827,-10.814377077392297,-5.429116190394009,-11.195379333224812,-11.815737618094271,21.663000000000466
312437.3837,-12.178574003698213,-6.558761284885378,-12.26886232042535,-13.03483797396861,21.663999999989755
312437.3847,-13.229651934356523,-7.461344114840726,-13.036150062930755,-13.962810589560927,21.664999999979045
312437.3857,-14.014187205959011,-8.196117105219518,-13.571163188062217,-14.662216118763991,21.665999999968335
312437.3867,-14.580177269506859,-8.82184968760762,-13.948422910201643,-15.196293366319418,21.666999999957625
312437.3877,-14.970433318436944,-9.389828946048372,-14.23497373805406,-15.621540050566354,21.668000000005122
312437.3887,-15.217120462172595,-9.938053379398218,-14.483518562528388,-15.981488508265333,21.668999999994412
312437.3897,-15.338018326205995,-10.487188868800594,-14.727416909268413,-16.30228643244399,21.669999999983702
312437.3907,-15.334890616068892,-11.038672656343874,-14.978006795703106,-16.590503906077604,21.67099999997299
312437.3917,-15.19412825405602,-11.575130336764381,-15.22447637178372,-16.833358215559507,21.67199999996228
312437.3927,-14.889589488820077,-12.063034335642287,-15.436256250239254,-17.00129988595726,21.67300000000978
312437.3937,-14.38732597563182,-12.45730345325652,-15.567652086382473,-17.052661564087646,21.67399999999907
312437.3947,-13.651679724603932,-12.70734441982048,-15.564214090101117,-16.939859674633965,21.67499999998836
312437.3957,-12.652082602537995,-12.763887707772211,-15.370167490994127,-16.616478135222774,21.67599999997765
312437.3967,-11.369803397438115,-12.585885865090138,-14.936122367582533,-16.044469788157265,21.676999999966938
312437.3977,-9.803876469498801,-12.146731812929941,-14.226252982398538,-15.200693977925507,21.677999999956228
312437.3987,-7.975512469774301,-11.439118157713601,-13.224188583915842,-14.082069779423898,21.679000000003725
312437.3997,-5.930429659902786,-10.477990559898492,-11.936984488169925,-12.70875799031774,21.679999999993015
312437.4007,-3.7387411109424176,-9.301235808994686,-10.39673177471789,-11.124978248658005,21.680999999982305
312437.4017,-1.4922697699933594,-7.967970216547531,-8.659597655496178,-9.397301756172393,21.681999999971595
312437.4027,0.7005826946368112,-6.5545342781424765,-6.802343719679335,-7.610512255716336,21.682999999960884
312437.4037,2.7220408177604467,-5.1485317141805815,-4.916620934878459,-5.861373464471709,21.684000000008382
312437.4047,4.4536464760082355,-3.841452132590612,-3.1015639111275055,-4.250855993692959,21.68499999999767
312437.4057,5.785686214923907,-2.7205667607628676,-1.4553806117193124,-2.8755396825203468,21.68599999998696
312437.4067,6.626511173383161,-1.8608709502899894,-0.06674033795312016,-1.8190019974713907,21.68699999997625
312437.4077,6.910891118684466,-1.31785680656421,0.9932081893923345,-1.1440200188564191,21.68799999996554
312437.4087,6.606610168084693,-1.1218328916322082,1.677408581253322,-0.8863503834793115,21.68900000001304
312437.4097,5.718653358073509,-1.2743714218158144,1.9674060694760356,-1.0507139564764936,21.69000000000233
312437.4107,4.290537666987239,-1.7472694751770113,1.875333734182533,-1.6094127635700368,21.690999999991618
312437.4117,2.4025896948823067,-2.484177776377931,1.4431523582770485,-2.50376462859014,21.691999999980908
312437.4127,0.16724198130708945,-3.4048008074617546,0.7391807018119998,-3.6482790260704983,21.692999999970198
312437.4137,-2.2783141694769635,-4.411329167416129,-0.14778912374156505,-4.93724085444669,21.693999999959487
312437.4147,-4.781544260449857,-5.3965525301242145,-1.1162656897910757,-6.2531417178021345,21.695000000006985
312437.4157,-7.185293042904625,-6.252939639513746,-2.061014742676204,-7.476222638003513,21.695999999996275
312437.4167,-9.338934042378474,-6.881876125339399,-2.8823766265399025,-8.494284778763665,21.696999999985565
312437.4177,-11.109027294441454,-7.202230796106978,-3.4950865008075005,-9.211896104456128,21.697999999974854
312437.4187,-12.388610047882903,-7.1574785274467185,-3.835784135431361,-9.55817475721241,21.698999999964144
312437.4197,-13.104367347783448,-6.720737564922422,-3.8685222123617393,-9.492459361393626,21.70000000001164
312437.4207,-13.221118540721942,-5.897268756149814,-3.587769688348417,-9.007370184913038,21.70100000000093
312437.4217,-12.743294066103426,-4.7242159602003335,-3.018641841477706,-8.129004698882166,21.70199999999022
312437.4227,-11.713342097374705,-3.2676187089119786,-2.2143485515570265,-6.914273817872982,21.70299999997951
312437.4237,-10.207271963106368,-1.6169762964576353,-1.2511122279558329,-5.445646044084831,21.7039999999688
312437.4247,-8.327786059116127,0.12213655357484272,-0.221041747852774,-3.823801187004215,21.70499999995809
312437.4257,-6.195651723180248,1.8367291931869063,0.7763635659017267,-2.158881205375274,21.706000000005588
312437.4267,-3.940101289423066,3.41554734318896,1.643283244140737,-0.5611456735765723,21.706999999994878
312437.4277,-1.6891104098938658,4.757900540676538,2.2923753116898387,0.8681175444702591,21.707999999984168
312437.4287,0.4396129056398335,5.7813885433383385,2.6544974492645137,2.0446131495610675,21.708999999973457
312437.4297,2.346190234337723,6.427864065485056,2.684651540492475,2.907291027948498,21.709999999962747
312437.4307,3.954107777157228,6.667143494771492,2.365629542378103,3.4223090449254854,21.711000000010245
312437.4317,5.213356759019735,6.498195033336773,1.7090626575865895,3.584409578142108,21.711999999999534
312437.4327,6.101050311978298,5.947773783455907,0.7538258343804569,3.4156634254088676,21.712999999988824
312437.4337,6.619631928238363,5.066712435295399,-0.4379986588004294,2.9617853657806448,21.713999999978114
312437.4347,6.793015912588822,3.924291471827464,-1.7871657730367752,2.2864526729558365,21.714999999967404
312437.4357,6.661185385371744,2.601283745659139,-3.204703073307471,1.4642395629845104,21.715999999956694
312437.4367,6.273900935326688,1.182378940754891,-4.599997352834709,0.5728997797424789,21.71700000000419
312437.4377,5.684231556442471,-0.2512661557304783,-5.888743808636841,-0.31422460864164736,21.71799999999348
312437.4387,4.942604570371716,-1.6286385131807348,-6.999997476932388,-1.1349212408525682,21.71899999998277
312437.4397,4.091985744320766,-2.894029788398859,-7.881668797327794,-1.8433095116490363,21.71999999997206
312437.4407,3.164654678515296,-4.010296521247368,-8.503970386463749,-2.4130499467511117,21.72099999996135
312437.4417,2.1808496300561426,-4.959970808512414,-8.86053348307083,-2.8382952144981135,21.722000000008848
312437.4427,1.1493404574434731,-5.744196006438209,-8.967148802380542,-3.1323516159370044,21.722999999998137
312437.4437,0.06977077773786422,-6.379684296450021,-8.858324153880709,-3.3242544408113543,21.723999999987427
312437.4447,-1.0635868066650405,-6.8940921035314195,-8.582066634806594,-3.453671807076265,21.724999999976717
312437.4457,-2.2571752177034905,-7.320365774159917,-8.193469390049462,-3.5647186668786413,21.725999999966007
312437.4467,-3.5132100987597426,-7.690708378673606,-7.747795149862131,-3.699369238365944,21.726999999955297
312437.4477,-4.825096178020858,-8.030849641071685,-7.293790404567701,-3.89119199640427,21.728000000002794
312437.4487,-6.173812922102699,-8.355262207353869,-6.867931604175444,-4.160093395621463,21.728999999992084
312437.4497,-7.525777234089327,-8.663863099244326,-6.490202003746266,-4.5086489269292604,21.729999999981374
312437.4507,-8.832533152193445,-8.94058011828202,-6.161835475328668,-4.920434037644031,21.730999999970663
312437.4517,-10.032421503595458,-9.153965408903442,-5.8652583640101135,-5.3605597468876685,21.731999999959953
312437.4527,-11.054166484375406,-9.259822356035478,-5.566233016706441,-5.778389394502707,21.73300000000745
312437.4537,-11.822103356441042,-9.205599240370143,-5.21797976854103,-6.112186779547908,21.73399999999674
312437.4547,-12.262583801437824,-8.936114962455028,-4.766850554483814,-6.2952445835836475,21.73499999998603
312437.4557,-12.310952420752473,-8.400037528793307,-4.158967128832758,-6.262885519054544,21.73599999997532
312437.4567,-11.918404488258867,-7.556449365933915,-3.347135938514467,-5.959632683636161,21.73699999996461
312437.4577,-11.058020503796461,-6.380813616313278,-2.297319905403229,-5.345819712720287,21.738000000012107
312437.4587,-9.729329677875205,-4.869704481189211,-0.9939877640123129,-4.402958142690947,21.739000000001397
312437.4597,-7.9608774311075585,-3.043777712930021,0.5562299194990658,-3.137294389150865,21.739999999990687
312437.4607,-5.810449905306529,-0.9486234904512844,2.322983149829281,-1.5811606549182808,21.740999999979977
312437.4617,-3.362824410233946,1.3466531325683226,4.252941790881828,0.20806393629694409,21.741999999969266
312437.4627,-0.7251478358916367,3.753059144514424,6.272803131562413,2.151334418792873,21.742999999958556
312437.4637,1.9797273432837215,6.167267596046573,8.294314050077068,4.153387846349336,21.744000000006054
312437.4647,4.621420078971543,8.478629089677053,10.220853270820262,6.1097803923125875,21.744999999995343
312437.4657,7.071029202581574,10.57702620300684,11.95496249156986,7.914879627255057,21.745999999984633
312437.4667,9.21020241014397,12.360870182006554,13.406118096331769,9.47008237932973,21.746999999973923
312437.4677,10.93947759150664,13.744520443457896,14.49800745203872,10.691503455350665,21.747999999963213
312437.4687,12.185165382273475,14.664457925705705,15.174618296883922,11.5164283174075,21.74900000001071
312437.4697,12.904168296891996,15.083658302677458,15.404562244474429,11.90793897123028,21.75
312437.4707,13.086316020906278,14.993779386141526,15.18322303401391,11.857295541691327,21.75099999998929
312437.4717,12.754021088534563,14.414982313224149,14.5325302987866,11.383869417024004,21.75199999997858
312437.4727,11.959302965919557,13.393428351947847,13.498389728025572,10.532656633002478,21.75299999996787
312437.4737,10.77846830163461,11.99671069498671,12.146027975043774,9.369629642105737,21.75399999995716
312437.4747,9.304947924172257,10.307672253558655,10.553713133192995,7.975389399374233,21.755000000004657
312437.4757,7.640956737735653,8.417207561837209,8.805469076289388,6.4377379468356875,21.755999999993946
312437.4767,5.888745190706689,6.416735196986865,6.983498826206664,4.843889013242938,21.756999999983236
312437.4777,4.142240724500655,4.391048145521336,5.161058669438319,3.2730611703292007,21.757999999972526
312437.4787,2.4798318268598645,2.412201471951498,3.3964781903171324,1.7901523175454768,21.758999999961816
312437.4797,0.9589305719110205,0.534984459399932,1.7289061088197029,0.44108038337797983,21.760000000009313
312437.4807,-0.387226762476163,-1.2056405851679977,0.17618898364206617,-0.7497954794700045,21.760999999998603
312437.4817,-1.5503001001548615,-2.7949518989808784,-1.2649236377466366,-1.7799692852044133,21.761999999987893
312437.4827,-2.5450859586078747,-4.236770608101104,-2.616287199071002,-2.6668234744088237,21.762999999977183
312437.4837,-3.405514594854949,-5.549900046602152,-3.913852663781534,-3.443655608585887,21.763999999966472
312437.4847,-4.1788534451976895,-6.7631353357156,-5.201612774895456,-4.154146065268934,21.764999999955762
312437.4857,-4.918733669637896,-7.909416427617182,-6.524634641727003,-4.8458692554875755,21.76600000000326
312437.4867,-5.677722411739896,-9.019778628305813,-7.921904537255974,-5.563542621326395,21.76699999999255
312437.4877,-6.500197799041689,-10.117768292666264,-9.419734259100021,-6.342729104988154,21.76799999998184
312437.4887,-7.416243838381186,-11.21493664303053,-11.026427424905881,-7.204657841277033,21.76899999997113
312437.4897,-8.437172589421307,-12.307907086445406,-12.728783355446188,-8.152709672463526,21.76999999996042
312437.4907,-9.553112548776637,-13.377342912856227,-14.49083736879185,-9.170940607654545,21.771000000007916
312437.4917,-10.732891981095307,-14.388939916231475,-16.255016768517848,-10.224804993800086,21.771999999997206
312437.4927,-11.926214956796372,-15.296352816644015,-17.945653034313704,-11.264012202390461,21.772999999986496
312437.4937,-13.067899013633197,-16.045757300596936,-19.47455615299435,-12.227229040478084,21.773999999975786
312437.4947,-14.083739246584118,-16.581572173124766,-20.74814975168714,-13.048147253495136,21.774999999965075
312437.4957,-14.89740429120667,-16.85273674393346,-21.67550617560901,-13.662290956035802,21.776000000012573
312437.4967,-15.437670615007576,-16.818870609196985,-22.176524705439828,-14.013857365532349,21.777000000001863
312437.4977,-15.645272235121107,-16.455643772749852,-22.189473340060445,-14.061874297633942,21.777999999991152
312437.4987,-15.478685936628496,-15.758755021734757,-21.67716742892778,-13.78502083586544,21.778999999980442
312437.4997,-14.918282581326443,-14.7460491195274,-20.63118197603789,-13.18458743329917,21.779999999969732
312437.5007,-13.96844177955545,-13.457485852492573,-19.073676794525706,-12.28523573425743,21.780999999959022
312437.5017,-12.657433112079577,-11.952888334192961,-17.05663726171091,-11.133438433020597,21.78200000000652
312437.5027,-11.03509145834546,-10.307622981721964,-14.658576583444885,-9.793713643557393,21.78299999999581
312437.5037,-9.168534273350854,-8.606576768098046,-11.978984694761596,-8.34299315107913,21.7839999999851
312437.5047,-7.136362805591509,-6.936977266916051,-9.131021064387795,-6.863656968376704,21.78499999997439
312437.5057,-5.021937890449099,-5.380729329105247,-6.233113240991478,-5.435908293890752,21.78599999996368
312437.5067,-2.906409315704324,-4.007005627133967,-3.400224118394432,-4.13023873113291,21.787000000011176
312437.5077,-0.8621971301006273,-2.8658197452166165,-0.7355789089717013,-3.0007354071525403,21.788000000000466
312437.5087,1.052428136093158,-1.9832300025058103,1.6764049016283304,-2.0799086332144876,21.788999999989755
312437.5097,2.797136244679998,-1.3586768661255344,3.775360051463541,-1.3755775904536738,21.789999999979045
312437.5107,4.351339409025432,-0.9647601607375861,5.527937969077541,-0.8701555804317503,21.790999999968335
312437.5117,5.713853086244987,-0.7495329644180945,6.928276835719323,-0.5224445289750971,21.791999999957625
312437.5127,6.900484968857123,-0.6411490901086657,7.995983578133625,-0.27180320502442096,21.793000000005122
312437.5137,7.93983703915148,-0.554473591588695,8.771882028434364,-0.044319010942287865,21.793999999994412
312437.5147,8.867791991041038,-0.3990729597763965,9.311991451675631,0.23958767362351266,21.794999999983702
312437.5157,9.721293916877583,-0.08786253340048203,9.680365069985987,0.6568448058237614,21.79599999997299
312437.5167,10.532109649214096,0.45438299336706656,9.941521048983942,1.273492558582407,21.79699999996228
312437.5177,11.321263469937305,1.2834468064753881,10.153228723896184,2.137328661081036,21.79800000000978
312437.5187,12.094772992055367,2.4297273784470645,10.36036780554118,3.2721586184565425,21.79899999999907
312437.5197,12.841183967604133,3.894501962464457,10.590462502350846,4.674228070974351,21.79999999998836
312437.5207,13.531219231797415,5.6487611156729525,10.851317481741424,6.311211428290357,21.80099999997765
312437.5217,14.119639949143258,7.634742685442406,11.130965786027097,8.123890143860743,21.801999999966938
312437.5227,14.549187344319241,9.770044062075895,11.399901780725394,10.0303986457287,21.802999999956228
312437.5237,14.75625318814084,11.9539524780769,11.615338543228038,11.93267059236825,21.804000000003725
312437.5247,14.677739645814825,14.07542747549801,11.727022092773868,13.724506480436538,21.804999999993015
312437.5257,14.258432826360718,16.02201695761743,11.683975201031878,15.300526217865473,21.805999999982305
312437.5267,13.4581436983664,17.688903016465073,11.441447215596646,16.565182430710802,21.806999999971595
312437.5277,12.257872779533754,18.987264047510102,10.967323109287447,17.44100065316595,21.807999999960884
312437.5287,10.664331798442245,19.8512063515769,10.247297309743027,17.875282280499693,21.809000000008382
312437.5297,8.712299703896518,20.24265499108007,9.288240716720766,17.844648712979122,21.80999999999767
312437.5307,6.464488611734814,20.153786938703455,8.119370590139864,17.357006921672273,21.81099999998696
312437.5317,4.008828765458384,19.606820950703487,6.791054747776725,16.45075843465923,21.81199999997625
312437.5327,1.453327967839102,18.651225924246653,5.37132172033793,15.191332320660813,21.81299999996554
312437.5337,-1.081103606749867,17.358649104610045,3.9403832397427663,13.665373356438204,21.81400000001304
312437.5347,-3.4692707336454016,15.816074559700823,2.5836812164364953,11.973135196184408,21.81500000000233
312437.5357,-5.591012237899547,14.117881024778903,1.3841275242348856,10.219794103493065,21.815999999991618
312437.5367,-7.340402116362798,12.357561658133276,0.4142956452020491,8.506495869172118,21.816999999980908
312437.5377,-8.634010220201821,10.619887914308825,-0.27066083953378256,6.921967781290368,21.817999999970198
312437.5387,-9.417474894113326,8.974244274929315,-0.6386487818749981,5.535467329172293,21.818999999959487
312437.5397,-9.669785778719154,7.469735890780972,-0.6842529238073004,4.391705781376425,21.820000000006985
312437.5407,-9.40487827281828,6.132489868673371,-0.42993872709119113,3.5081910275945694,21.820999999996275
312437.5417,-8.670382873504842,4.965350994181011,0.0753204000403566,2.8751990517677455,21.821999999985565
312437.5427,-7.54362996921094,3.9499357803360464,0.7599043268901522,2.458329979068966,21.822999999974854
312437.5437,-6.1252593071301895,3.050778064565614,1.5355673100023186,2.203357385479018,21.823999999964144
312437.5447,-4.530999742217705,2.221097395568174,2.305079391993572,2.0428623570373357,21.82500000001164
312437.5457,-2.8823485170993153,1.4095676874714367,2.970788581550824,1.9039775066149163,21.82600000000093
312437.5467,-1.2969747788395993,0.5673727801725903,3.4433112903055814,1.7164666367886294,21.82699999999022
312437.5477,0.12030960490025873,-0.34518389574246455,3.64954164289219,1.4203422572373325,21.82799999997951
312437.5487,1.2852291430112879,-1.3531949639967644,3.5392314126719135,0.9722775616802246,21.8289999999688
312437.5497,2.13972385831039,-2.4633489839773173,3.0895256988579582,0.350195983276431,21.82999999995809
312437.5507,2.655171213110925,-3.662198202303278,2.30703223463961,-0.44439269235137074,21.831000000005588
312437.5517,2.832927282990092,-4.916665348938041,1.2272357830725886,-1.3865139847338463,21.831999999994878
312437.5527,2.7022159465857465,-6.176732255201797,-0.08867916680575222,-2.4302673809816473,21.832999999984168
312437.5537,2.3156415664716707,-7.380031460333262,-1.5592886362306175,-3.513501884381173,21.833999999973457
312437.5547,1.74281818528429,-8.45786912702021,-3.0901479993854295,-4.564138206648972,21.834999999962747
312437.5557,1.0627760087109805,-9.342062575646384,-4.582080425179889,-5.5074870011571,21.836000000010245
312437.5567,0.35590815162767525,-9.971892864543083,-5.939748034788449,-6.273817516150708,21.836999999999534
312437.5577,-0.3037520436234943,-10.30046020598717,-7.079697241895202,-6.805410478208403,21.837999999988824
312437.5587,-0.8551823804828578,-10.2997887685044,-7.937126313764375,-7.0623846569593605,21.838999999978114
312437.5597,-1.255332178420565,-9.96415166448196,-8.470752357807878,-7.026712669224745,21.839999999967404
312437.5607,-1.4819521026825089,-9.311264277000662,-8.66534400510487,-6.7040254876543255,21.840999999956694
312437.5617,-1.5340751389418785,-8.3812069179711,-8.531716504625447,-6.123028491906175,21.84200000000419
312437.5627,-1.4301707148188454,-7.233165006743147,-8.104235213185667,-5.332592547559603,21.84299999999348
312437.5637,-1.2042296348819508,-5.940293970269387,-7.436117196513355,-4.3968176522879325,21.84399999998277
312437.5647,-0.9002453070985266,-4.583205146461596,-6.593035027821789,-3.3885709520930614,21.84499999997206
312437.5657,-0.5657163001455249,-3.2427093104876508,-5.645690935702614,-2.3821551489255817,21.84599999996135
312437.5667,-0.2448909756502375,-1.992532012190531,-4.662127180578001,-1.4458521723532993,21.847000000008848
312437.5677,0.027502512540330763,-0.8927218492213037,-3.7005603752007055,-0.6351015856418915,21.847999999998137
312437.5687,0.2313502587030373,0.015591813457420405,-2.803471272805505,0.012988033394841843,21.848999999987427
312437.5697,0.36450271766003134,0.7135652044598682,-1.99355282285668,0.4832276536299792,21.849999999976717
312437.5707,0.443993267743015,1.2057869906167669,-1.2719306429687283,0.7836574893158277,21.850999999966007
312437.5717,0.5049577701846562,1.5190799035496063,-0.6188399690402495,0.9444259667649546,21.851999999955297
312437.5727,0.5973258213325606,1.6990630378906326,0.003305791118648895,1.0143293616823004,21.853000000002794
312437.5737,0.7805868882135157,1.8048032596313266,0.6447630841848371,1.055339129524584,21.853999999992084
312437.5747,1.1171382307300242,1.9020757375902113,1.3617446990616473,1.135648612523524,21.854999999981374
312437.5757,1.6648761010313466,2.055895239012313,2.208829540700778,1.3219241772219399,21.855999999970663
312437.5767,2.469781604974356,2.3230573649188426,3.231276471740085,1.6715325586199141,21.856999999959953
312437.5777,3.559268552012654,2.7454344180899533,4.458042249568719,2.2255273976775998,21.85800000000745
312437.5787,4.937000571793551,3.3447031875903157,5.89624386803927,3.003112171188223,21.85899999999674
312437.5797,6.579754137550797,4.119047812589277,7.527672385904093,3.9981599790826268,21.85999999998603
312437.5807,8.43671523063875,5.04219280389654,9.30777123812928,5.17817598896424,21.86099999997532
312437.5817,10.431368264734223,6.064897310424316,11.16725570918737,6.485854459878751,21.86199999996461
312437.5827,12.465888605861391,7.118803434908904,13.016294502810426,7.843131780904624,21.863000000012107
312437.5837,14.427708465785912,8.12230190407979,14.750923938115786,9.157394153552897,21.864000000001397
312437.5847,16.19771352727531,8.98787997450162,16.261144562489907,10.329287026311333,21.864999999990687
312437.5857,17.659365044427563,9.630268443793666,17.439980412449255,11.261413777428622,21.865999999979977
312437.5867,18.70794525129595,9.974621536580422,18.192679383787567,11.867119066230865,21.866999999969266
312437.5877,19.259102297124095,9.963953490866944,18.445209272099053,12.078536843341169,21.867999999958556
312437.5887,19.25592694781442,9.565120068483955,18.151260577186857,11.8531459276685,21.869000000006054
312437.5897,18.673921810131457,8.77276595518391,17.297098916396934,11.178211447884241,21.869999999995343
312437.5907,17.52341271810171,7.610847496555677,15.90380436987507,10.072685424104678,21.870999999984633
312437.5917,15.849183223264063,6.131566437410298,14.026673719808256,8.586375685726418,21.871999999973923
312437.5927,13.727364823947347,4.411792642008858,11.751821507368525,6.796446581676778,21.872999999963213
312437.5937,11.259863677299572,2.5472889542206283,9.19027222151028,4.801563169315857,21.87400000001071
312437.5947,8.566825458667372,0.6452568737681147,6.470064224228861,2.714208987605071,21.875
312437.5957,5.777812823038423,-1.184122101170386,3.7270644300761133,0.6518752400068453,21.87599999998929
312437.5967,3.02247832711144,-2.83638269916606,1.0953043864189682,-1.272079742900714,21.87699999997858
312437.5977,0.42154969270067627,-4.220923952702898,-1.3023171493690961,-2.957077037612168,21.87799999996787
312437.5987,-1.9210988397698079,-5.267879078945364,-3.3621656457550952,-4.322699406682452,21.87899999995716
312437.5997,-3.92463089624234,-5.933101834952116,-5.006157509637059,-5.31416541410212,21.880000000004657
312437.6007,-5.535206228022468,-6.200845545320214,-6.185707044028144,-5.905438178646911,21.880999999993946
312437.6017,-6.72745045625314,-6.083931606688995,-6.883067002497459,-6.09974030840667,21.881999999983236
312437.6027,-7.503414889097915,-5.621442478041574,-7.110046615536759,-5.9274949652214435,21.882999999972526
312437.6037,-7.889243837893235,-4.874206837639829,-6.904339050012908,-5.441956870083657,21.883999999961816
312437.6047,-7.929980288831359,-3.918549213843328,-6.323911718277336,-4.7130127083250555,21.885000000009313
312437.6057,-7.683108192070657,-2.8389332896784145,-5.440086250197838,-3.8197970124010223,21.885999999998603
312437.6067,-7.211535071375732,-1.7202223029211088,-4.330043716969417,-2.8428712706250607,21.886999999987893
312437.6077,-6.576752422962419,-0.6403027844274849,-3.069524767396976,-1.8567412581881817,21.887999999977183
312437.6087,-5.832870905538233,0.33623238627769975,-1.7264510714633174,-0.9234382955428044,21.888999999966472
312437.6097,-5.022117437646856,1.1627634726922027,-0.356078907563119,-0.08776973349955045,21.889999999955762
312437.6107,-4.172213681167035,1.8132810821268137,1.0018799251745232,0.625335149272046,21.89100000000326
312437.6117,-3.2958473342206247,2.2827874596791977,2.3239523250414664,1.2111773294347974,21.89199999999255
312437.6127,-2.392220437965884,2.5854962226183327,3.6014330911844303,1.6833699673003437,21.89299999998184
312437.6137,-1.4504355747837927,2.751086849156342,4.837002017602212,2.069914594238693,21.89399999997113
312437.6147,-0.45428396384992886,2.8194641646897893,6.039886878788837,2.407740398369747,21.89499999996042
312437.6157,0.6121511182505294,2.8346197895266876,7.220186690599862,2.736330945868119,21.896000000007916
312437.6167,1.7587512965119239,2.838277611734045,8.383061445527007,3.091153941233714,21.896999999997206
312437.6177,2.9841748510523427,2.8640205849410005,9.523512392610176,3.4976276690888395,21.897999999986496
312437.6187,4.2718640490527795,2.9325402548793327,10.622418886695208,3.966300867629474,21.898999999975786
312437.6197,5.587768185573902,3.0485292070213967,11.644369500900012,4.489796705457018,21.899999999965075
312437.6207,6.880126813341965,3.199562415817082,12.537639160863307,5.0418888918417615,21.901000000012573
312437.6217,8.081444531621278,3.3571038477895785,13.236439000562507,5.578856994598063,21.902000000001863
312437.6227,9.112559447692064,3.4795507314473233,13.665323916488756,6.043030841032208,21.902999999991152
312437.6237,9.88848500163958,3.5170121898411444,13.745408633588632,6.368204149988626,21.903999999980442
312437.6247,10.325511632340206,3.417333165887751,13.4018400931614,6.486398303597405,21.904999999969732
312437.6257,10.348910319687372,3.1327375308571916,12.571822779439865,6.335308464209463,21.905999999959022
312437.6267,9.900499173456863,2.6263899139566083,11.212409876470275,5.865681175577356,21.90700000000652
312437.6277,8.945325539630417,1.8781718888258834,9.307266003826568,5.047863815543657,21.90799999999581
312437.6287,7.476781066192186,0.8890354898039152,6.87167837078864,3.876833142138624,21.9089999999851
312437.6297,5.519600071389402,-0.31657066993264293,3.9552365144188775,2.3751465933501303,21.90999999997439
312437.6307,3.130379945943456,-1.6905228850591456,0.6418032520789366,0.593452987695872,21.91099999996368
312437.6317,0.3954882569337763,-3.1631928782384247,-2.9533578595286993,-1.3915697630905668,21.912000000011176
312437.6327,-2.5735369873756655,-4.647837182759828,-6.689173377909299,-3.4817357742352972,21.913000000000466
312437.6337,-5.646753135224816,-6.04685360155958,-10.406691621686328,-5.563978880726605,21.913999999989755
312437.6347,-8.684199819754257,-7.259363261575191,-13.938756990787988,-7.5185282640592135,21.914999999979045
312437.6357,-11.545207919863213,-8.189437912053908,-17.120661225556944,-9.227918997265236,21.915999999968335
312437.6367,-14.097842302209068,-8.754218072248754,-19.800907487642128,-10.586037384907948,21.916999999957625
312437.6377,-16.227674702542945,-8.89116612435548,-21.851203651541365,-11.506389890536422,21.918000000005122
312437.6387,-17.845143090506145,-8.563770102077115,-23.174862714952972,-11.928850752804065,21.918999999994412
312437.6397,-18.890883540302887,-7.76515221160254,-23.71292514607068,-11.824280928874504,21.919999999983702
312437.6407,-19.33860756967921,-6.519227962002342,-23.447517455213728,-11.196606661780455,21.92099999997299
312437.6417,-19.19532414547413,-4.8792888143303506,-22.40220450497151,-10.08218096640457,21.92199999996228
312437.6427,-18.498949337191103,-2.924121622392343,-20.639357102953706,-8.546503042573114,21.92300000000978
312437.6437,-17.31358452161409,-0.7520086064621117,-18.254816366412044,-6.678614793318239,21.92399999999907
312437.6447,-15.722953315095783,1.5268501471630422,-15.370367791067546,-4.5837067248193115,21.92499999998836
312437.6457,-13.822648091647888,3.798802862623062,-12.124719304921081,-2.3746270360560127,21.92599999997765
312437.6467,-11.711933870706188,5.955331022333696,-8.66379214993781,-0.1630822065630698,21.926999999966938
312437.6477,-9.485881611964013,7.900975650186923,-5.1311710157527255,1.9486640659476708,21.927999999956228
312437.6487,-7.22855271865694,9.55989426402225,-1.6595177151811986,3.8748456619294136,21.929000000003725
312437.6497,-5.007837261799602,10.880472405162307,1.6363641975464942,5.551385047297506,21.929999999993015
312437.6507,-2.872372231026229,11.83760294409442,4.664305963886631,6.938791853757339,21.930999999982305
312437.6517,-0.8507506164367774,12.432471973402535,7.357107403880057,8.022569139571093,21.931999999971595
312437.6527,1.0470013000802152,12.689930122619826,9.672390222973883,8.811173576767862,21.932999999960884
312437.6537,2.8259294029196793,12.653759282170308,11.590177219495088,9.331815243174324,21.934000000008382
312437.6547,4.501091756433797,12.380344619603777,13.108621892794627,9.624592050106704,21.93499999999767
312437.6557,6.091538735290634,11.93141110275439,14.238483950727748,9.7356127439482,21.93599999998696
312437.6567,7.6140305972263755,11.366568157186787,14.997053739987964,9.709855509623006,21.93699999997625
312437.6577,9.077210844732898,10.736417570384354,15.402262709671907,9.584527588650477,21.93799999996554
312437.6587,10.476902224831411,10.076917419021068,15.467675038862208,9.383633457134502,21.93900000001304
312437.6597,11.793073555818196,9.40556493501036,15.198942444526415,9.114330919699087,21.94000000000233
312437.6607,12.98885168560668,8.719776700344003,14.592131905681237,8.765468775333462,21.940999999991618
312437.6617,14.011741112471931,7.997623524656549,13.634122384799946,8.30847492495679,21.941999999980908
312437.6627,14.796985153765478,7.20084147967374,12.30503342603863,7.700522140960299,21.942999999970198
312437.6637,15.272779666380192,6.279812897342936,10.582419451098591,6.8896640437060235,21.943999999959487
312437.6647,15.366855237108489,5.180013876064738,8.446761857668783,5.821429245706758,21.945000000006985
312437.6657,15.013795748663803,3.849277149505374,5.887637073646856,4.4462072679539615,21.945999999996275
312437.6667,14.16237493186399,2.2451353391748117,2.9098481700044023,2.726670901375725,21.946999999985565
312437.6677,12.782176527351913,0.3414976625687212,-0.4612101846483749,0.6444649652720489,21.947999999974854
312437.6687,10.868819714914032,-1.8660258835617918,-4.175626610415058,-1.7945475616940993,21.948999999964144
312437.6697,8.44723420944103,-4.356711071075689,-8.157034307040409,-4.55706014027172,21.95000000001164
312437.6707,5.572607057953346,-7.083592860273241,-12.303021237819028,-7.581507919936663,21.95100000000093
312437.6717,2.328838556062711,-9.974783231165294,-16.48802795246462,-10.779826304193717,21.95199999999022
312437.6727,-1.1754229683180806,-12.937157060038329,-20.568630094807276,-14.041701122470728,21.95299999997951
312437.6737,-4.812870914981774,-15.862103101904435,-24.390866502069155,-17.240990791906412,21.9539999999688
312437.6747,-8.445258657832623,-18.63283974313105,-27.799066274831496,-20.24379234672463,21.95499999995809
312437.6757,-11.932097338858258,-21.132645911957095,-30.645469637365967,-22.917464175318198,21.956000000005588
312437.6767,-15.139592659388265,-23.253270598339753,-32.799843517212544,-25.13982400273562,21.956999999994878
312437.6777,-17.949058511589403,-24.902767980523123,-34.15827308079881,-26.807720093577377,21.957999999984168
312437.6787,-20.26409563690734,-26.012060482704467,-34.650367404988174,-27.844228713774864,21.958999999973457
312437.6797,-22.01594076881818,-26.53965355149283,-34.244246140339904,-28.203856180371638,21.959999999962747
312437.6807,-23.166564417915236,-26.47410152134018,-32.94886264531846,-27.875307198108302,21.961000000010245
312437.6817,-23.709306743401648,-25.83403643701821,-30.81345008830111,-26.881604920042925,21.961999999999534
312437.6827,-23.66707028002467,-24.665800409108844,-27.92412877309472,-25.277590726945206,21.962999999988824
312437.6837,-23.088313411605263,-23.038944809649756,-24.397961756440058,-23.14506979950798,21.963999999978114
312437.6847,-22.04128763629186,-21.040054861249207,-20.374968236536674,-20.586079372100265,21.964999999967404
312437.6857,-20.607115690691955,-18.76550719412996,-16.00877922550932,-17.71492003785743,21.965999999956694
312437.6867,-18.872401798272843,-16.31385658716912,-11.456731202913431,-14.649691211922768,21.96700000000419
312437.6877,-16.922090895012417,-13.778568170692033,-6.870230404634637,-11.504100588399853,21.96799999999348
312437.6887,-14.833248635777217,-11.2417613916844,-2.3861798645052104,-8.380271919187308,21.96899999998277
312437.6897,-12.67032322654729,-8.769517438674777,1.8798525300394984,-5.363160714018605,21.96999999997206
312437.6907,-10.482285057058453,-6.409134337058049,5.838222648660705,-2.5170152694793573,21.97099999996135
312437.6917,-8.301837470371296,-4.188510470925263,9.427273882565752,0.11589187263141444,21.972000000008848
312437.6927,-6.146672245930835,-2.1176182845648883,12.61283867384454,2.5142681288278923,21.972999999998137
312437.6937,-4.022528622205792,-0.1918172779779624,15.385384076661797,4.6747738769747444,21.973999999987427
312437.6947,-1.9276265726467727,1.6034296238227321,17.75522710935495,6.607397739809376,21.974999999976717
312437.6957,0.14209744776800398,3.2870112145788197,19.746419709435642,8.329821414369407,21.975999999966007
312437.6967,2.1876065180055857,4.876448598719938,21.390014969530867,9.861453356137726,21.976999999955297
312437.6977,4.2018992350682565,6.382666445076377,22.717465460744567,11.217831936784844,21.978000000002794
312437.6987,6.166277807965707,7.80586256628931,23.75486754626719,12.406047375175733,21.978999999992084
312437.6997,8.048239784121696,9.132962963414428,24.51865694947132,13.421713195051673,21.979999999981374
312437.7007,9.801311773676346,10.336978170035751,25.013191927882893,14.247844362584942,21.980999999970663
312437.7017,11.366935209873912,11.37837197136259,25.230448688687925,14.855788339461036,21.981999999959953
312437.7027,12.67829169168773,12.208336097714074,25.151820882451347,15.208128583976025,21.98300000000745
312437.7037,13.665741355180558,12.773656376520009,24.75178490456889,15.263260717473086,21.98399999999674
312437.7047,14.263363874805457,13.022678287481959,24.002988750378837,14.981152139748387,21.98499999998603
312437.7057,14.415957087327369,12.911751132845696,22.88216503858381,14.329655879939088,21.98599999997532
312437.7067,14.085777057416779,12.41146352972148,21.376174483897152,13.290673557358641,21.98699999996461
312437.7077,13.258303642893187,11.511985914548264,19.487464133409425,11.865458759945078,21.988000000012107
312437.7087,11.946388200759918,10.226908579910098,17.238277331147703,10.078421950841161,21.989000000001397
312437.7097,10.192278755342421,8.59509983821978,14.67307436255332,7.978934845907824,21.989999999990687
312437.7107,8.067209874419785,6.6802952880758415,11.858801794073496,5.640822964547308,21.990999999979977
312437.7117,5.668471435166657,4.56834782787299,8.882866660357614,3.1594611539188917,21.991999999969266
312437.7127,3.1141105532628606,2.3622976703641,5.848906926243262,0.6466260678067675,21.992999999958556
312437.7137,0.5356508377374036,0.17563957257305324,2.8706783840986647,-1.7765118850004407,21.994000000006054
312437.7147,-1.9305897612754412,-1.8756508082477104,0.06457727613401464,-3.987679587472148,21.994999999995343
312437.7157,-4.152856516744076,-3.681636605824676,-2.45853269983013,-5.872355948505693,21.995999999984633
312437.7167,-6.0131872205220445,-5.146723102932496,-4.601435982321075,-7.332397131051903,21.996999999973923
312437.7177,-7.41570716008208,-6.196987474591063,-6.287859792646598,-8.293641150878278,21.997999999963213
312437.7187,-8.293257695379145,-6.785855630786883,-7.468249131103395,-8.711779414757677,21.99900000001071
312437.7197,-8.611770290269295,-6.897590902009832,-8.123457687562981,-8.57593123444615,22.0
312437.7207,-8.371998548815673,-6.548256026602735,-8.26598111595449,-7.909561865672452,22.00099999998929
312437.7217,-7.608459469208024,-5.784040741462636,-7.938588179976567,-6.768625874964286,22.00199999997858
312437.7227,-6.385689169039133,-4.677090257664898,-7.210450248262992,-5.237072616614272,22.00299999996787
312437.7237,-4.7921635516876835,-3.3192017310636692,-6.171106611418481,-3.4200948194544223,22.00399999995716
312437.7247,-2.932447303366437,-1.813954192847185,-4.922808938967974,-1.43571116799857,22.005000000004657
312437.7257,-0.91829478314095,-0.2679831123059833,-3.571942714421587,0.5945710294667966,22.005999999993946
312437.7267,1.1404816352301144,1.2178103229311237,-2.2203114815100404,2.555181583044425,22.006999999983236
312437.7277,3.1445452816129182,2.5563207325901067,-0.9570824742475225,4.3451628671350155,22.007999999972526
312437.7287,5.012204091407742,3.6808470713886337,0.14787171420687792,5.885328130230635,22.008999999961816
312437.7297,6.684583866242778,4.549663385140567,1.0486352776695282,7.12327999040132,22.010000000009313
312437.7307,8.12837047169696,5.148161101671031,1.7255071669698314,8.035869133636632,22.010999999998603
312437.7317,9.335921494922422,5.488402672656634,2.1846781326173184,8.628915049733182,22.011999999987893
312437.7327,10.322801666935353,5.606171202428828,2.4553980431560936,8.934268405131272,22.012999999977183
312437.7337,11.123043578856576,5.555836360210304,2.584945352086674,9.004543677182431,22.013999999966472
312437.7347,11.782652169061658,5.403560832964559,2.631920680042202,8.906067156582296,22.014999999955762
312437.7357,12.352037379950971,5.219524410414027,2.6585456789337374,8.710748749243503,22.01600000000326
312437.7367,12.878158501184828,5.069930064465652,2.722741282059161,8.487680738372143,22.01699999999255
312437.7377,13.39718673767953,5.009570028971787,2.8707771907680435,8.295284023161187,22.01799999998184
312437.7387,13.928437537086616,5.0756689737834035,3.131225382137736,8.174761042513692,22.01899999997113
312437.7397,14.47019678305264,5.283592169925174,3.5108203809299146,8.145480921113652,22.01999999996042
312437.7407,14.997877669868208,5.624821894823976,3.9926407484576054,8.202729596839857,22.021000000007916
312437.7417,15.464716207285262,6.067383355295507,4.536798072511028,8.318024706578841,22.021999999997206
312437.7427,15.804965081455435,6.5586637513611805,5.08357392251201,8.44194452206289,22.022999999986496
312437.7437,15.939302008493367,7.030337802942916,5.558705677244711,8.509176521336201,22.023999999975786
312437.7447,15.78195319113445,7.404912304939587,5.880312111277573,8.445277760119298,22.024999999965075
312437.7457,15.24886563170923,7.603250256628753,5.966789503512949,8.174476520996464,22.026000000012573
312437.7467,14.266159665051244,7.5523461710453414,5.744914278195134,7.627748189106352,22.027000000001863
312437.7477,12.778064638829626,7.192606429063602,5.15736788031122,6.7503768469007435,22.027999999991152
312437.7487,10.753588472621203,6.483943139370294,4.168955524449461,5.508269267420211,22.028999999980442
312437.7497,8.191290775451114,5.410110979635831,2.7709169980847834,3.8924139170308822,22.029999999969732
312437.7507,5.121707353645651,3.98089156232968,0.9829123246892673,1.9210614940700184,22.030999999959022
312437.7517,1.607193710175804,2.2319414247800298,-1.1475103721954876,-0.3605729198716502,22.03200000000652
312437.7527,-2.2608049646467476,0.22234676534034223,-3.5479150512787077,-2.883044956267709,22.03299999999581
312437.7537,-6.36681305593854,-1.969851862208444,-6.126159679658977,-5.557577302575204,22.0339999999851
312437.7547,-10.57825794968762,-4.253710091051583,-8.777266021842847,-8.282635606957681,22.03499999997439
312437.7557,-14.753657671763712,-6.532406231543518,-11.391325018659053,-10.9515457358773,22.03599999996368
312437.7567,-18.75133930310081,-8.71056087693711,-13.86169161291606,-13.460421843482262,22.037000000011176
312437.7577,-22.437931864088025,-10.701151892384924,-16.09270248225841,-15.715655188055145,22.038000000000466
312437.7587,-25.695917347326223,-12.431381630880743,-18.00620490945126,-17.640268285631187,22.038999999989755
312437.7597,-28.429631473273655,-13.846971176071753,-19.546309229599526,-19.178561835183213,22.039999999979045
312437.7607,-30.569269957728217,-14.914525355456297,-20.68195837063036,-20.298660152303494,22.040999999968335
312437.7617,-32.07265957544461,-15.621814764879812,-21.40712778175013,-20.99277642126466,22.041999999957625
312437.7627,-32.924775325683584,-15.976036380728885,-21.73870556990661,-21.275250100440847,22.043000000005122
312437.7637,-33.135203174715244,-16.00032059617619,-21.712332373936167,-21.178632029373105,22.043999999994412
312437.7647,-32.73394041029231,-15.728928792990935,-21.376680568864277,-20.74828580295567,22.044999999983702
312437.7657,-31.76607363123009,-15.201714045992453,-20.786802974614336,-20.03611752834537,22.04599999997299
312437.7667,-30.28596352698149,-14.458485340536932,-19.997267473755397,-19.094125924980464,22.04699999996228
312437.7677,-28.351587678405345,-13.53391604013958,-19.055807387672104,-17.96847307565005,22.04800000000978
312437.7687,-26.019646309264594,-12.453570409829624,-17.9981569540772,-16.69471240901259,22.04899999999907
312437.7697,-23.341926889554692,-11.23149476696518,-16.844613004507792,-15.294681373299317,22.04999999998836
312437.7707,-20.363263756553657,-9.869645424508727,-15.598680928781004,-13.775385009433819,22.05099999997765
312437.7717,-17.12123562151541,-8.359221963236715,-14.247943669618612,-12.129981755925183,22.051999999966938
312437.7727,-13.647537478916627,-6.683762483612186,-12.76705888069311,-10.340756209790857,22.052999999956228
312437.7737,-9.970765812499767,-4.823659210522179,-11.12256500691025,-8.383748310303186,22.054000000003725
312437.7747,-6.120187932535659,-2.761588715628563,-9.278984505988987,-6.234526466967217,22.054999999993015
312437.7757,-2.129945549773251,-0.4882382620168067,-7.2055711716134345,-3.8744621610144128,22.055999999982305
312437.7767,1.9569178125603752,1.9923395782771738,-4.882972895153214,-1.2967989652033907,22.056999999971595
312437.7777,6.085209540743614,4.658392124652541,-2.309079043862952,1.488183331493428,22.057999999960884
312437.7787,10.18565157290505,7.46771206465091,0.49660654432055107,4.449529054468191,22.059000000008382
312437.7797,14.174652849157782,10.356876245724,3.4905869985564477,7.533966751308665,22.05999999999767
312437.7807,17.956009070220396,13.24269776671149,6.605315803112077,10.66654967677813,22.06099999998696
312437.7817,21.424540481688325,16.0258914992568,9.751562443425998,13.753631145776,22.06199999997625
312437.7827,24.47146337542938,18.596728179019248,12.823061116988692,16.68799406056618,22.06299999996554
312437.7837,26.991090840449672,20.84224444202816,15.703075182805884,19.355732986702627,22.06400000001304
312437.7847,28.888293857113027,22.654406497503906,18.27231585517151,21.644302519928196,22.06500000000233
312437.7857,30.086042619433204,23.93851081206293,20.417512752977725,23.45101594672064,22.065999999991618
312437.7867,30.532302384804474,24.621058235631512,22.03986041505991,24.69121665598354,22.066999999980908
312437.7877,30.205584195524967,24.65636394398495,23.062566326814117,25.30535809702184,22.067999999970198
312437.7887,29.11854745623371,24.031262861643047,23.436802589521893,25.26431569429068,22.068999999959487
312437.7897,27.319210539622578,22.767430364074414,23.145507958446387,24.572408152792036,22.070000000006985
312437.7907,24.889532989656875,20.92104637453453,22.204685759872145,23.267811621619,22.070999999996275
312437.7917,21.941369201370083,18.579768023097774,20.662077009663328,21.420288675544928,22.071999999985565
312437.7927,18.610036260411288,15.857219455521527,18.593334249468896,19.126402201865947,22.072999999974854
312437.7937,15.045964536111388,12.885434025931826,16.096056258701918,16.502618152997186,22.073999999964144
312437.7947,11.405086550354287,9.805872298833066,13.282244004938917,13.676898110735616,22.07500000001164
312437.7957,7.838748965217431,6.7597709045598,10.269884361876777,10.779523534666168,22.07600000000093
312437.7967,4.483990929640784,3.8786395497026063,7.174445864571028,7.933964607071751,22.07699999999022
312437.7977,1.455012843074,1.2757101796695285,4.101072338651569,5.248600623495937,22.07799999997951
312437.7987,-1.1634364496247571,-0.9609455635433065,1.1381853125237396,2.8100162276042733,22.0789999999688
312437.7997,-3.3201908240671445,-2.7730686959307977,-1.6469381298575536,0.6784461993321727,22.07999999995809
312437.8007,-4.99897199449164,-4.134279282869906,-4.2102449771101025,-1.114264567042321,22.081000000005588
312437.8017,-6.2167768907280605,-5.049439552456529,-6.530511745144153,-2.564060029411832,22.081999999994878
312437.8027,-7.019518733204474,-5.551444578695364,-8.606592289244071,-3.6915573080158035,22.082999999984168
312437.8037,-7.475342110872292,-5.695805666640664,-10.45266101304186,-4.5367821164277835,22.083999999973457
312437.8047,-7.666243457780834,-5.553589732852199,-12.09200595143798,-5.152324397231249,22.084999999962747
312437.8057,-7.6787815745989585,-5.203421253706306,-13.5500725238367,-5.595630752712578,22.086000000010245
312437.8067,-7.594743573965294,-4.7233282898646785,-14.847535244676527,-5.921227624640828,22.086999999999534
312437.8077,-7.482631988490412,-4.183213823806558,-15.994173439325136,-6.173668852930767,22.087999999988824
312437.8087,-7.3907585190772895,-3.638658562905541,-16.984247763642653,-6.381923234085062,22.088999999978114
312437.8097,-7.342576429368131,-3.126619072063453,-17.79392446679057,-6.555769576582061,22.089999999967404
312437.8107,-7.334671293464175,-2.6633896894677167,-18.381088262741248,-6.68456292864039,22.090999999956694
312437.8117,-7.337578676789123,-2.2449673334382805,-18.687642390130037,-6.738496009745055,22.09200000000419
312437.8127,-7.2993310829403,-1.8497174566382815,-18.644139618174663,-6.672227821779383,22.09299999999348
312437.8137,-7.151380286439114,-1.4430105404560412,-18.1763456389982,-6.43051162042726,22.09399999998277
312437.8147,-6.816319181411684,-0.9833039253078101,-17.21313042907874,-5.955250421049019,22.09499999997206
312437.8157,-6.216660412269803,-0.4290023388983725,-15.694934280656868,-5.1932600791686925,22.09599999996135
312437.8167,-5.283832924063222,0.2546441086561154,-13.581978349014376,-4.103942390529916,22.097000000008848
312437.8177,-3.9665409965927063,1.0893463210026768,-10.861392824135839,-2.6660713997062646,22.097999999998137
312437.8187,-2.2376944961642704,2.0789556426631037,-7.552519528035278,-0.8829753430061454,22.098999999987427
312437.8197,-0.09925744933151047,3.2065452457973582,-3.7098023410612826,1.2144531448535172,22.099999999976717
312437.8207,2.4154390101991114,4.433730066505448,0.5771062697106836,3.567279243159708,22.100999999966007
312437.8217,5.242133116610046,5.702335929359711,5.186141559030728,6.090698120571501,22.101999999955297
312437.8227,8.288774025830541,6.938291235302141,9.968377966986623,8.678718653048692,22.103000000002794
312437.8237,11.441072795243747,8.057389407115457,14.755933082170769,11.210976381833026,22.103999999992084
312437.8247,14.569946648154655,8.972379382056312,19.371602525240245,13.561085358739035,22.104999999981374
312437.8257,17.540171567640222,9.600703629278001,23.639442253782022,15.605786575285537,22.105999999970663
312437.8267,20.219456829075828,9.872132048796722,27.395425353166992,17.234069626984557,22.106999999959953
312437.8277,22.487130087428223,9.735542735226375,30.49729193781065,18.35544202891593,22.10800000000745
312437.8287,24.241674664808656,9.164176797929752,32.832784076279964,18.90659741613255,22.10899999999674
312437.8297,25.40648572530671,8.15883686120451,34.3256055698159,18.85588230316853,22.10999999998603
312437.8307,25.933396106482494,6.748693702004213,34.93865471999321,18.205166776886344,22.11099999997532
312437.8317,25.8037470712225,4.98959378942886,34.6743269318584,16.988967565257205,22.11199999996461
312437.8327,25.027021710471942,2.9600000806047815,33.57194931624375,15.270928882823043,22.113000000012107
312437.8337,23.63729512665153,0.7549260107663067,31.702666068085946,13.138012515812864,22.114000000001397
312437.8347,21.687962577646097,-1.5215839400630429,29.162316923056128,10.692960084978932,22.114999999990687
312437.8357,19.245364217594453,-3.7647332412952834,26.06302032527693,8.045747007013073,22.115999999979977
312437.8367,16.382017703842205,-5.87724418425385,22.52427227377056,5.304834408008013,22.116999999969266
312437.8377,13.170189019264692,-7.776853026864176,18.664392177799158,2.569033956725105,22.117999999958556
312437.8387,9.676476000784568,-9.40233585278024,14.59308714498167,-0.0792693119942203,22.119000000006054
312437.8397,5.957954352474867,-10.71751250953282,10.405772447094852,-2.578932589629395,22.119999999995343
312437.8407,2.0602552978952144,-11.712870200857152,6.180092101650037,-4.892504791296633,22.120999999984633
312437.8417,-1.982273993329282,-12.404677045773814,1.9748490280628392,-7.006142585696543,22.121999999973923
312437.8427,-6.144409232815777,-12.83169705976687,-2.1686975522395295,-8.927077550169797,22.122999999963213
312437.8437,-10.40619364576972,-13.04984822246193,-6.223453917762128,-10.678961186370982,22.12400000001071
312437.8447,-14.74788788703811,-13.12534227752067,-10.171531576013244,-12.295623185590905,22.125
312437.8457,-19.144366205681404,-13.12698957857907,-13.998363113821444,-13.813933114266469,22.12599999998929
