TimeStamp,ECR,FCR,ECU,FCU,time_index
312486.7197,9.180515663053582,13.14352655932497,2.8536699498493796,11.60437812881773,71.0
312486.7207,10.341673978685163,11.763675471640418,3.2530230671821787,10.994969456562263,71.00099999998929
312486.7217,11.367545036981442,10.337925761239358,3.7089615160469993,10.38130157321534,71.00199999997858
312486.7227,12.343729045866011,8.99549687834189,4.29564698022708,9.875917023261803,71.00299999996787
312486.7237,13.341177130780547,7.848331963475322,5.066515906272652,9.572645115288084,71.00399999995716
312486.7247,14.40921901073946,6.983257245899106,6.048401083137578,9.539171538008922,71.00500000000466
312486.7257,15.570824740481214,6.4564191173109755,7.238101102837092,9.811970247364226,71.00599999999395
312486.7267,16.82049578301452,6.290408987352429,8.601740370894792,10.394001479486214,71.00699999998324
312486.7277,18.124938956876306,6.47424503877599,10.07700888188927,11.255331228937344,71.00799999997253
312486.7287,19.426422054391036,6.966126546541811,11.57810672362809,12.336566146783927,71.00899999996182
312486.7297,20.648465763729163,7.698633888725232,13.002968019318423,13.55474778177509,71.01000000000931
312486.7307,21.70331557363558,8.585838018006298,14.242126403538235,14.811134548439808,71.0109999999986
312486.7317,22.500479101003453,9.531626022156345,15.188429374912081,16.00013862165875,71.01199999998789
312486.7327,22.95552330261315,10.43845851240949,15.746726820301676,17.018592834211873,71.01299999997718
312486.7337,22.998310521686637,11.215757649566651,15.84265768483778,17.774507747218035,71.01399999996647
312486.7347,22.579913373184045,11.787182327977268,15.42973857527222,18.19454220860086,71.01499999995576
312486.7357,21.677579970227576,12.09617300022822,14.494111754265555,18.229545357639598,71.01600000000326
312486.7367,20.297310188169792,12.109330029795828,13.056523223416008,17.857720869346032,71.01699999999255
312486.7377,18.473832387832893,11.817408327942422,11.171354453520035,17.085196491575186,71.01799999998184
312486.7387,16.26801642795467,11.233945971555189,8.922800083783402,15.944031188203471,71.01899999997113
312486.7397,13.761999444720795,10.391772774957724,6.418543350231408,14.487934550025843,71.01999999996042
312486.7407,11.052512962759883,9.337844519128895,3.781506787673433,12.786185470044826,71.02100000000792
312486.7417,8.24306345014641,8.127000803032947,1.140426769931588,10.916399334214153,71.0219999999972
312486.7427,5.435718196499348,6.815335119582903,-1.3798991642224936,8.956890043314594,71.0229999999865
312486.7437,2.723275322620905,5.453886728269923,-3.667822632608106,6.9793963454233445,71.02399999997579
312486.7447,0.18254880980518776,4.083314004232158,-5.632703469637132,5.042889723804082,71.02499999996508
312486.7457,-2.130618130894388,2.7300939203446895,-7.210744321525993,3.18905927976042,71.02600000001257
312486.7467,-4.18417335783386,1.4046242189136249,-8.368324969510736,1.4398902257867845,71.02700000000186
312486.7477,-5.970287472847345,0.1014008162890685,-9.102600474459619,-0.20246521727778777,71.02799999999115
312486.7487,-7.5034094604771076,-1.1987763759118335,-9.439386487775213,-1.753560835548169,71.02899999998044
312486.7497,-8.81619005206584,-2.524828795090457,-9.428608793684464,-3.2425388035529745,71.02999999996973
312486.7507,-9.953721647188797,-3.9101003337829416,-9.137818128377717,-4.706487513993368,71.03099999995902
312486.7517,-10.966702910108346,-5.3863177624963,-8.64444436001375,-6.183893446424221,71.03200000000652
312486.7527,-11.904234558179635,-6.977473262955182,-8.027570053359618,-7.70789527453413,71.03299999999581
312486.7537,-12.806981310707874,-8.694303687693873,-7.3600327179632385,-9.300066602637004,71.0339999999851
312486.7547,-13.701391293077966,-10.52998457738961,-6.701615577801575,-10.9653990492478,71.03499999997439
312486.7557,-14.595553267933223,-12.457537770545098,-6.093964097226726,-12.689035602676961,71.03599999996368
312486.7567,-15.4771052984366,-14.429281619173684,-5.557682433191949,-14.435127601027798,71.03700000001118
312486.7577,-16.313402610794846,-16.378449357957287,-5.091838951901256,-16.147975033445253,71.03800000000047
312486.7587,-17.053927969516042,-18.22288433776479,-4.675865418398512,-17.755380407112035,71.03899999998976
312486.7597,-17.63470691150861,-19.870512179946676,-4.273594659418405,-19.173923935632992,71.03999999997905
312486.7607,-17.98429427076617,-21.226110125945695,-3.838969994383435,-20.315674260643195,71.04099999996834
312486.7617,-18.030746483906952,-22.198760728623682,-3.322797155750147,-21.095703356633337,71.04199999995762
312486.7627,-17.70890064042565,-22.709303678251473,-2.679811442332492,-21.439690917303,71.04300000000512
312486.7637,-16.967254722462034,-22.69709315721447,-1.8753086545010902,-21.290890420688488,71.04399999999441
312486.7647,-15.773785926448973,-22.12542922629374,-0.8906397902936727,-20.615787312096714,71.0449999999837
312486.7657,-14.120150574764528,-20.985154262438574,0.2730091061360264,-19.40790340114393,71.04599999997299
312486.7667,-12.023868890345625,-19.2960772729313,1.5929516888139226,-17.689378314136547,71.04699999996228
312486.7677,-9.528294717789485,-17.106093084075496,3.0256322288177686,-15.510171190176742,71.04800000000978
312486.7687,-6.700384560419609,-14.488079910776154,4.509498786097945,-12.944952854847559,71.04899999999907
312486.7697,-3.626490962042732,-11.534866490398038,5.9698354611013835,-10.087978188730137,71.04999999998836
312486.7707,-0.4065917247498337,-8.352738590117477,7.325070451944521,-7.0464188942892605,71.05099999997765
312486.7717,2.8524893233499578,-5.054086972654747,8.493925645434226,-3.9327798342616576,71.05199999996694
312486.7727,6.044226095143316,-1.7498721323559276,9.40268662449243,-0.8571037609921103,71.05299999995623
312486.7737,9.069230653922487,1.4574115818909152,9.991857943208311,2.080318180918766,71.05400000000373
312486.7747,11.841164473302463,4.479648855117953,10.22152872384659,4.795070287138677,71.05499999999302
312486.7757,14.291198278205673,7.247388936009248,10.07490209492647,7.223032212063953,71.0559999999823
312486.7767,16.37065244779524,9.712166895131688,9.559625925553602,9.322730327320295,71.0569999999716
312486.7777,18.051639261339062,11.846722682800062,8.706783359838663,11.07546415686347,71.05799999996088
312486.7787,19.325733496544064,13.64319080015385,7.567637696364042,12.483273807399353,71.05900000000838
312486.7797,20.200898364240892,15.109534999723394,6.208453501275819,13.565028547201845,71.05999999999767
312486.7807,20.69706928331366,16.264674917816784,4.703911591941861,14.35110162612099,71.06099999998696
312486.7817,20.84093085649474,17.132877820786586,3.129779873433799,14.877233725419432,71.06199999997625
312486.7827,20.660499159222265,17.73805620648126,1.5555802351744703,15.178263445369291,71.06299999996554
312486.7837,20.180134290624444,18.098614146774217,0.037995691345486825,15.282410425064766,71.06400000001304
312486.7847,19.41655569422554,18.223421789034983,-1.3843090247450693,15.206734326575916,71.06500000000233
312486.7857,18.376320292381163,18.10937469026317,-2.6939193066701925,14.954267216688544,71.06599999999162
312486.7867,17.055062377809442,17.740824900985633,-3.8956144209132146,14.513140385204792,71.06699999998091
312486.7877,15.438600867905095,17.0909709409686,-5.014911475426539,13.85781698828278,71.0679999999702
312486.7887,13.505813737151929,16.125084068663213,-6.094339349441073,12.95232009361306,71.06899999995949
312486.7897,11.232982381571233,14.805249671185345,-7.187802238028978,11.755134000754326,71.07000000000698
312486.7907,8.59914077107618,13.096135299457051,-8.35358791253603,10.225276443945562,71.07099999999627
312486.7917,5.5918431122802295,10.971177922238763,-9.64671719026694,8.32890871825188,71.07199999998556
312486.7927,2.2127023310975864,8.418524706143225,-11.111404182972915,6.045783270419545,71.07299999997485
312486.7937,-1.5179430527084392,5.446070382390248,-12.774394139078382,3.3748309911281127,71.07399999996414
312486.7947,-5.557803942930274,2.085009714038846,-14.639867088783683,0.33826349636701947,71.07500000001164
312486.7957,-9.841295448583484,-1.6085412479510073,-16.686448523123527,-3.016297749154581,71.07600000000093
312486.7967,-14.280329427439835,-5.554119505597471,-18.866667228860056,-6.615966717475001,71.07699999999022
312486.7977,-18.767293184311143,-9.64973845943857,-21.10896475889557,-10.365094767306777,71.07799999997951
312486.7987,-23.18004427290613,-13.77679432422735,-23.322113864923473,-14.149981903340436,71.0789999999688
312486.7997,-27.388546014971343,-17.806683607501125,-25.401668732801042,-17.845432377315216,71.07999999995809
312486.8007,-31.262596915244398,-21.608587276260845,-27.237870994487185,-21.322605554964,71.08100000000559
312486.8017,-34.67998714505257,-25.057755782631254,-28.72429171550835,-24.457480637982123,71.08199999999488
312486.8027,-37.534359180406796,-28.043570843552803,-29.766414955198066,-27.139186489649997,71.08299999998417
312486.8037,-39.74206368795868,-30.476670867753395,-30.28937038229373,-29.27745232721386,71.08399999997346
312486.8047,-41.24738507771493,-32.29450650297098,-30.244100637968113,-30.808511229490403,71.08499999996275
312486.8057,-42.02565611491133,-33.46483351063355,-29.61139605835139,-31.698929047721617,71.08600000001024
312486.8067,-42.08397378992016,-33.98683862226649,-28.403430691178368,-31.947022859033513,71.08699999999953
312486.8077,-41.45945068550544,-33.88981205026257,-26.662669674959112,-31.581757027948136,71.08799999998882
312486.8087,-40.215165807446894,-33.229506853218275,-24.458266043860423,-30.65923953391597,71.08899999997811
312486.8097,-38.43419388627351,-32.08253847738302,-21.880300817688642,-29.25716373635975,71.0899999999674
312486.8107,-36.212271523214866,-30.539356892657256,-19.03242101799223,-27.46772963454811,71.0909999999567
312486.8117,-33.64978469507108,-28.696451514391388,-16.02357667234157,-25.38971569804585,71.09200000000419
312486.8127,-30.843822669310093,-26.648513263128244,-12.959635934840994,-23.12044434624559,71.09299999999348
312486.8137,-27.88103231019567,-24.481272586105614,-9.935659871627841,-20.748384363337884,71.09399999998277
312486.8147,-24.83192504270698,-22.265657767520622,-7.029545341128952,-18.34706218626894,71.09499999997206
312486.8157,-21.747144218004344,-20.053781827713077,-4.297603205928197,-15.970818311185095,71.09599999996135
312486.8167,-18.656007233485376,-17.877082172162556,-1.7724439149401452,-13.652758491020347,71.09700000000885
312486.8177,-15.567413193211229,-15.746722973753933,0.5366874380897845,-11.40503031919939,71.09799999999814
312486.8187,-12.472974776985387,-13.656147012236195,2.6412265713024876,-9.221325690683468,71.09899999998743
312486.8197,-9.35201478579376,-11.58545313983614,4.56858658709333,-7.08129097778979,71.09999999997672
312486.8207,-6.177884685575356,-9.507098183057193,6.355962950619813,-4.956340834837326,71.100999999966
312486.8217,-2.9249321523240948,-7.392295131688231,8.04331790312957,-2.816236371938577,71.1019999999553
312486.8227,0.42462017408094854,-5.217415157412835,9.666292319403262,-0.6357170330389268,71.1030000000028
312486.8237,3.8746153919551514,-2.9697054634881352,11.24979597608812,1.5995253516506815,71.10399999999208
312486.8247,7.41037462409229,-0.6517075961110009,12.802956080364686,3.888172306341518,71.10499999998137
312486.8257,10.996090462261064,1.7161055959025082,14.315965853446263,6.2104131896267125,71.10599999997066
312486.8267,14.574518142110929,4.094774860455743,15.759183580311777,8.527214012411589,71.10699999995995
312486.8277,18.06905603587671,6.428470577480721,17.084606571325995,10.781830532852702,71.10800000000745
312486.8287,21.388071684222464,8.648148793521084,18.22960598885764,12.903448737643549,71.10899999999674
312486.8297,24.431106516797296,10.676908162862643,19.12258069956706,14.812620036575629,71.10999999998603
312486.8307,27.09640320775879,12.436533641122104,19.68999337137564,16.42797489837602,71.11099999997532
312486.8317,29.28906267128806,13.854587854754211,19.864108878576985,17.673565243579137,71.11199999996461
312486.8327,30.929066453534542,14.871348656178172,19.59067760435702,18.48611580574707,71.11300000001211
312486.8337,31.95840187726899,15.445897753870899,18.835801958444737,18.821464838319027,71.1140000000014
312486.8347,32.346601914045465,15.560740058981033,17.59129379230178,18.659545106000838,71.11499999999069
312486.8357,32.09415254334697,15.224469420225573,15.877966716531775,18.00739033083844,71.11599999997998
312486.8367,31.233414076859123,14.472180641737872,13.746497480362816,16.899837240053913,71.11699999996927
312486.8377,29.82693123046997,13.36354228694687,11.275716280626146,15.397811221533141,71.11799999995856
312486.8387,27.96324791506732,11.978668967856738,8.5684254771547,13.584313269389199,71.11900000000605
312486.8397,25.750573824762093,10.412143840020521,5.745076786862896,11.558445182607121,71.11999999999534
312486.8407,23.308848914367154,8.76572126001702,2.9358366434902914,9.427997662050641,71.12099999998463
312486.8417,20.760899837989925,7.140368566765735,0.2717191369488299,7.30126390332665,71.12199999997392
312486.8427,18.223465328210505,5.628372133040708,-2.124448261870885,5.2788162007797705,71.12299999996321
312486.8437,15.798877540404742,4.306229696228872,-4.146446994611997,3.4459877680637594,71.12400000001071
312486.8447,13.568122771928364,3.2289787315003387,-5.711757308683102,1.866736048783799,71.125
312486.8457,11.585873952525928,2.426476185150955,-6.76672088904078,0.5794336667819951,71.12599999998929
312486.8467,9.877901593799113,1.9019611733837396,-7.289361371984602,-0.405048531424722,71.12699999997858
312486.8477,8.441047387815301,1.6330169715154061,-7.289664872306739,-1.1028175870876207,71.12799999996787
312486.8487,7.245706725818386,1.5748225176799484,-6.807355729460694,-1.5540738219316204,71.12899999995716
312486.8497,6.240535824621877,1.6653685140554333,-5.907429530914133,-1.8181656829962534,71.13000000000466
312486.8507,5.358897843990107,1.832129726975277,-4.67390453320865,-1.9670742969204458,71.13099999999395
312486.8517,4.5264093637514335,1.9995508748999338,-3.2024051206078266,-2.0779599826816617,71.13199999998324
312486.8527,3.6688581132938323,2.096631362988869,-1.592282780271453,-2.2254834446031464,71.13299999997253
312486.8537,2.7197430337682684,2.063890850859554,0.06099693946754721,-2.4746259085020954,71.13399999996182
312486.8547,1.62673984407261,1.8590633133996224,1.672520320024143,-2.8746743743952137,71.13500000000931
312486.8557,0.35651353817473985,1.4609952719743713,3.1730752159151447,-3.454916503629931,71.1359999999986
312486.8567,-1.102528461932273,0.8714015967942511,4.512380987381991,-4.222416654853342,71.13699999998789
312486.8577,-2.739739741144303,0.11434227500656076,5.660196620528795,-5.162037395725535,71.13799999997718
312486.8587,-4.52396716341528,-0.7664947225577777,6.605322732630564,-6.238649866476183,71.13899999996647
312486.8597,-6.407265472050377,-1.7124074682850339,7.3527251608389665,-7.4012633302819255,71.13999999995576
312486.8607,-8.330156628185966,-2.6557125577927843,7.919193098032388,-8.588619914813776,71.14100000000326
312486.8617,-10.227851480437046,-3.5265841508820963,8.328085009545921,-9.735662821948162,71.14199999999255
312486.8627,-12.036766718936775,-4.260015002239015,8.603797151606097,-10.780208396094409,71.14299999998184
312486.8637,-13.700653491904433,-4.80220980741153,8.76660464453516,-11.669141691305038,71.14399999997113
312486.8647,-15.175706654984474,-5.115783825901862,8.828472630370259,-12.363512216261812,71.14499999996042
312486.8657,-16.434139611752624,-5.183263645295996,8.790320731834312,-12.842025329009076,71.14600000000792
312486.8667,-17.465877032540188,-5.008559659010912,8.641059689356247,-13.102593188332607,71.1469999999972
312486.8677,-18.278219277593653,-4.616284138415563,8.35852155951221,-13.161810266618732,71.1479999999865
312486.8687,-18.893547603416803,-4.049004432481129,7.912194421534157,-13.052432027594916,71.14899999997579
312486.8697,-19.345346376327047,-3.3627265149074823,7.2674706953974395,-12.819140120584546,71.14999999996508
312486.8707,-19.67299657672368,-2.6210795469126777,6.390945647876021,-12.513052908096125,71.15100000001257
312486.8717,-19.91592580033277,-1.8888000817174677,5.256177293856008,-12.185568823858828,71.15200000000186
312486.8727,-20.107770417975487,-1.2251824572592414,3.8492538638683804,-11.882199104387366,71.15299999999115
312486.8737,-20.271208259696987,-0.6781631855482679,2.1735174810200655,-11.63704891517864,71.15399999998044
312486.8747,-20.41405463787987,-0.27964169585149784,0.252863103871502,-11.4685414682323,71.15499999996973
312486.8757,-20.52708705682249,-0.042514138250796134,-1.8668362454433671,-11.376854703416296,71.15599999995902
312486.8767,-20.5838871483026,0.04027645112459936,-4.11844605952385,-11.343366811404444,71.15700000000652
312486.8777,-20.54277980993969,-0.005425680573062174,-6.416484648448401,-11.332202465367857,71.15799999999581
312486.8787,-20.350730078874424,-0.1381554191057648,-8.662068570068987,-11.29375640708651,71.1589999999851
312486.8797,-19.94885004994847,-0.30567521135892967,-10.749511924759048,-11.169866465159,71.15999999997439
312486.8807,-19.27899228467191,-0.45101459013141043,-12.574024677389225,-10.90013467998808,71.16099999996368
312486.8817,-18.290780718461747,-0.5190859419960977,-14.039828868257892,-10.428770500451717,71.16200000001118
312486.8827,-16.948368223280212,-0.4631986625205606,-15.067949836364074,-9.71126679727569,71.16300000000047
312486.8837,-15.236218636024041,-0.25079833119301553,-15.602949441714427,-8.720224480593247,71.16399999998976
312486.8847,-13.163290149359113,0.1321705835000451,-15.617949775268535,-7.449714857088934,71.16499999997905
312486.8857,-10.765139382787765,0.6787474891481715,-15.11744195689702,-5.917703786120817,71.16599999996834
312486.8867,-8.103657743958053,1.3605726248417453,-14.137571884747375,-4.166245321433339,71.16699999995762
312486.8877,-5.26437533105063,2.1297164768169656,-12.74382460310265,-2.2593670822805048,71.16800000000512
312486.8887,-2.351500856661301,2.922579999043527,-11.026269335106699,-0.2787941484160856,71.16899999999441
312486.8897,0.5189139510792763,3.665516313264547,-9.092755003432192,1.6821292226830482,71.1699999999837
312486.8907,3.2271119504069303,4.281649759517789,-7.060639118473265,3.5257812669298763,71.17099999997299
312486.8917,5.658364834863768,4.698243676565692,-5.047772372849351,5.158200319381265,71.17199999996228
312486.8927,7.7115332174298015,4.853906651037511,-3.16353337504995,6.49688595445852,71.17300000000978
312486.8937,9.306689342081661,4.704934562152572,-1.5007053962359258,7.477736713358787,71.17399999999907
312486.8947,10.391119420215379,4.230162136795478,-0.12890972115295168,8.06047312238411,71.17499999998836
312486.8957,10.9431678420601,3.4338357118964558,0.9098346406135741,8.23203347767165,71.17599999997765
312486.8967,10.973581911760299,2.346205197541812,1.6030537807829126,8.007618497447424,71.17699999996694
312486.8977,10.524244423871258,1.0217497954070072,1.9671266632049187,7.429281264107345,71.17799999995623
312486.8987,9.664420352863488,-0.4648221889443062,2.0440662586809273,6.562189625661989,71.17900000000373
312486.8997,8.484870234700686,-2.024446056554627,1.8961174081778451,5.488907103989079,71.17999999999302
312486.9007,7.090374853217849,-3.560912980904628,1.5987161609904041,4.30222422745365,71.1809999999823
312486.9017,5.591355388715231,-4.978760185937451,1.232503912585659,3.0972071501897163,71.1819999999716
312486.9027,4.09534719800373,-6.1911120949912055,0.8751713151480407,1.9632014848623993,71.18299999996088
312486.9037,2.6990872396129495,-7.126749870341635,0.5939140006032693,0.976529718044863,71.18400000000838
312486.9047,1.4819052103577646,-7.735760280791388,0.43921419240180093,0.19455050677007438,71.18499999999767
312486.9057,0.5009740160367231,-7.993250293925682,0.44052607320975695,-0.3483854997240215,71.18599999998696
312486.9067,-0.21121028505238898,-7.900797989054152,0.6042516710294001,-0.642732853668176,71.18699999997625
312486.9077,-0.6469671889613885,-7.4855254464892305,0.9141666423425979,-0.7031678802521535,71.18799999996554
312486.9087,-0.8212669984936245,-6.796904385460998,1.3342137456111087,-0.5657194649720432,71.18900000001304
312486.9097,-0.7675596004247407,-5.901618799747434,1.8133494174202955,-0.28292698990900267,71.19000000000233
312486.9107,-0.5320811571501015,-4.876990190720612,2.2919281617456777,0.08247488852975127,71.19099999999162
312486.9117,-0.16726107045269456,-3.803602920850536,2.70895982013267,0.4647073634921287,71.19199999998091
312486.9127,0.2750727722341411,-2.7578372460059852,3.0094906281153664,0.802221932852103,71.1929999999702
312486.9137,0.7499859030185543,-1.8050192908934064,3.151348358601953,1.0443795666467508,71.19399999995949
312486.9147,1.2245843884431018,-0.9938307807656818,3.1105557662265766,1.1568795017767683,71.19500000000698
312486.9157,1.6815004337987396,-0.3524934756547332,2.8848487297532475,1.125409308013652,71.19599999999627
312486.9167,2.1203749907432208,0.11293339138962226,2.494923088063267,0.9571653316235783,71.19699999998556
312486.9177,2.55720377174977,0.41801249446446714,1.9832589548091266,0.6801034931804513,71.19799999997485
312486.9187,3.0216331667319234,0.5972337569266255,1.4106114375835375,0.34000417949856854,71.19899999996414
312486.9197,3.552503268668944,0.6994640128749087,0.8504888288687795,-0.004350100702359918,71.20000000001164
312486.9207,4.192115907739719,0.782018181847527,0.3821408718322702,-0.287400376028702,71.20100000000093
312486.9217,4.979838558375955,0.9039603315650201,0.08273096104824414,-0.44381864112012703,71.20199999999022
312486.9227,5.9457271510905185,1.1193139150915787,0.01945228774798649,-0.41559883145384413,71.20299999997951
312486.9237,7.104855030792024,1.4708643850528647,0.24236044478060315,-0.15852478218640423,71.2039999999688
312486.9247,8.452971010908804,1.9851741271124006,0.7786324653183953,0.35263064563923063,71.20499999995809
312486.9257,9.963982817960348,2.669305602120425,1.6288305624895645,1.1206972412708531,71.20600000000559
312486.9267,11.589585449241321,3.509576071903101,2.765560570413038,2.1248370770983076,71.20699999999488
312486.9277,13.261144250436384,4.472463381351936,4.134688374883503,3.321550572321564,71.20799999998417
312486.9287,14.893720299419016,5.507567124430706,5.659034330307101,4.647875322358029,71.20899999997346
312486.9297,16.39191267385571,6.552324372902897,7.2442292800838946,6.026480142255284,71.20999999996275
312486.9307,17.657009257849943,7.538004237871395,8.786209160232909,7.372172029718179,71.21100000001024
312486.9317,18.59480289542719,8.3963781203693,10.17966821462008,8.599196179015465,71.21199999999953
312486.9327,19.123356264024356,9.066395152293886,11.32669870163993,9.628632162792723,71.21299999998882
312486.9337,19.179994193536782,9.500191666015024,12.144826449462574,10.395180394373634,71.21399999997811
312486.9347,18.726866976506205,9.667829606479605,12.57370839992166,10.852692771299395,71.2149999999674
312486.9357,17.754556415276124,9.560285067728683,12.57988475876897,10.977924028560356,71.2159999999567
312486.9367,16.28337566626378,9.190382103414418,12.159162205526655,10.77215370093822,71.21700000000419
312486.9377,14.362227120667074,8.591571420193702,11.336427966836451,10.26053566367872,71.21799999999348
312486.9387,12.065109056970387,7.814668288374191,10.162935826663457,9.489252675576155,71.21899999998277
312486.9397,9.48557977406873,6.9228677477438625,8.711341095415541,8.520765601883843,71.21999999997206
312486.9407,6.729676366191832,5.985527771954438,7.068969566571405,7.427630304362602,71.22099999996135
312486.9417,3.9079261226053204,5.071335365970453,5.329965741946573,6.28549168542773,71.22200000000885
312486.9427,1.1271682689202636,4.241534237506017,3.5870630123665923,5.16594081570349,71.22299999999814
312486.9437,-1.517085086201814,3.5438892988888604,1.9237441088155842,4.129930121291557,71.22399999998743
312486.9447,-3.9470781923288647,3.007993011416762,0.40751206205264484,3.2223825390581124,71.22499999997672
312486.9457,-6.107482205386623,2.6423882546968422,-0.9151246421866633,2.46850932611047,71.225999999966
312486.9467,-7.967931253002393,2.4338046893850462,-2.0215221978443636,1.8721798848511895,71.2269999999553
312486.9477,-9.523255603396793,2.3485978721787983,-2.9134088922343797,1.4164824955731181,71.2280000000028
312486.9487,-10.791464797320964,2.336263056182605,-3.6150426044184507,1.0663974352592982,71.22899999999208
312486.9497,-11.809747078994848,2.3346900432331257,-4.169257649168372,0.7732950647044502,71.22999999998137
312486.9507,-12.628936272946035,2.2766519215014545,-4.631840224643736,0.4807916967015435,71.23099999997066
312486.9517,-13.307035412489082,2.096896198526745,-5.064825914369733,0.13136314459938542,71.23199999995995
312486.9527,-13.902464608005491,1.739144108260606,-5.529406383566623,-0.3269571126435526,71.23300000000745
312486.9537,-14.467711512382147,1.1623090852377094,-6.079156981151302,-0.9344740654344016,71.23399999999674
312486.9547,-15.04400568327931,0.34531824589819676,-6.75425070673184,-1.7149387564960754,71.23499999998603
312486.9557,-15.657519335444077,-0.7099457708582902,-7.5772122689379,-2.6723612668260937,71.23599999997532
312486.9567,-16.31742878145273,-1.9778840238955042,-8.550600571473673,-3.789850739525972,71.23699999996461
312486.9577,-17.01597058816288,-3.4106916951892727,-9.65680601142127,-5.030599811987082,71.23800000001211
312486.9587,-17.730414661184586,-4.942009197120013,-10.859931093763707,-6.340914985977725,71.2390000000014
312486.9597,-18.42667480282579,-6.492374994582655,-12.109511147763774,-7.654988579799276,71.23999999999069
312486.9607,-19.064106437552816,-7.975965404440278,-13.345647704729998,-8.900932535238073,71.24099999997998
312486.9617,-19.60091871693071,-9.30798081060526,-14.504988797313818,-10.007467035147517,71.24199999996927
312486.9627,-19.99956676051868,-10.411974249177371,-15.526911769192425,-10.910590401228463,71.24299999995856
312486.9637,-20.23149582296673,-11.226423468540315,-16.359252750703682,-11.559557821262798,71.24400000000605
312486.9647,-20.28068228760536,-11.709920923995924,-16.96298353363597,-11.921565116258089,71.24499999999534
312486.9657,-20.145549290587052,-11.844490606782974,-17.31535504240413,-11.984663282264227,71.24599999998463
312486.9667,-19.839014020633325,-11.636723017234829,-17.41119455594588,-11.758607129302527,71.24699999997392
312486.9677,-19.386631006577954,-11.11663213726097,-17.26224387673318,-11.273549365903836,71.24799999996321
312486.9687,-18.82300964784162,-10.334360128435524,-16.894637101520615,-10.576709228393039,71.24900000001071
312486.9697,-18.186882606007106,-9.355064929020731,-16.344817673603043,-9.727350473302502,71.25
312486.9707,-17.515363539802454,-8.252502387485452,-15.654364159066674,-8.79057659650798,71.25099999998929
312486.9717,-16.83804057650915,-7.101940701388246,-14.864314982949702,-7.830574036579666,71.25199999997858
312486.9727,-16.17159368022418,-5.973108294431322,-14.009641397436976,-6.903994296173371,71.25299999996787
312486.9737,-15.515594066779828,-4.92387057086879,-13.114508675345201,-6.0541569848626855,71.25399999995716
312486.9747,-14.850043594646475,-3.9952567181262553,-12.188888294679499,-5.30667819742732,71.25500000000466
312486.9757,-14.135050336939099,-3.208322107268758,-11.226946000413044,-4.6669896646688045,71.25599999999395
312486.9767,-13.312828378054547,-2.5631481323365386,-10.207445637227915,-4.120027156574435,71.25699999998324
312486.9777,-12.311975285991087,-2.0400675527521543,-9.096195008285598,-3.6321499263497863,71.25799999997253
312486.9787,-11.053742706849388,-1.6029805711807548,-7.850339305990133,-3.155127863364324,71.25899999996182
312486.9797,-9.459797892710105,-1.204416941692877,-6.424102423607315,-2.6318217467756773,71.26000000000931
312486.9807,-7.460798899968244,-0.7918230906910502,-4.775407944284514,-2.0030056067770245,71.2609999999986
312486.9817,-5.004992063265071,-0.3144280188533623,-2.8726976341691004,-1.2146564457002202,71.26199999998789
312486.9827,-2.065999861403785,0.27001987151200296,-0.7012184024044549,-0.2249781126993298,71.26299999997718
312486.9837,1.35099385982,0.9893446377720058,1.7319250665263384,0.989560712836914,71.26399999996647
312486.9847,5.205338117360438,1.8524854229656054,4.394556679126723,2.4298103599261593,71.26499999995576
312486.9857,9.419781192271078,2.84697245564947,7.228497365612059,4.071634310943912,71.26600000000326
312486.9867,13.882366182265127,3.938631090270486,10.151148375359185,5.866005208897494,71.26699999999255
312486.9877,18.451346701861073,5.073590364239012,13.05958310916159,7.741566618291188,71.26799999998184
312486.9887,22.962842060484355,6.182445331354102,15.836896104164154,9.60948785115656,71.26899999997113
312486.9897,27.24069926492284,7.186208332139234,18.360330582362387,11.37021645237192,71.26999999996042
312486.9907,31.107820621536604,8.003504283217778,20.510518965849574,12.921545602266027,71.27100000000792
312486.9917,34.398070370741955,8.558336635325881,22.181042663391622,14.167279911830795,71.2719999999972
312486.9927,36.967805668967785,8.787686495628764,23.28746148276989,15.025715922520137,71.2729999999865
312486.9937,38.706093183680636,8.648213949978043,23.77498567494003,15.437159778850047,71.27399999997579
312486.9947,39.54277162480638,8.121407434645523,23.624063876498905,15.369783713021286,71.27499999996508
312486.9957,39.45369403750243,7.21666688606559,22.853329703029804,14.823267895143093,71.27600000001257
312486.9967,38.46271608979482,5.971996046860385,21.519573448869597,13.829871330581215,71.27700000000186
312486.9977,36.64026696703282,4.452200636616036,19.714663032974705,12.45280634495582,71.27799999999115
312486.9987,34.098623468142335,2.7447209697537973,17.559606430627984,10.782034126269531,71.27899999998044
312486.9997,30.984279973239985,0.9534478768076874,15.196201667317164,8.927831023689956,71.27999999996973
312487.0007,27.46804283070872,-0.8089415577192524,12.77693655359678,7.012675125773429,71.28099999995902
312487.0017,23.73365657609157,-2.429454756995959,10.4539586573685,5.162151470575252,71.28200000000652
312487.0027,19.965875802922966,-3.80331354871505,8.368021802643149,3.4956583664615724,71.28299999999581
312487.0037,16.338921784858616,-4.841792535732529,6.638320614087824,2.117709179322822,71.2839999999851
312487.0047,13.006205952039055,-5.478682489179908,5.354048721876807,1.1105628823402696,71.28499999997439
312487.0057,10.09206947824637,-5.674826380464712,4.568366152996497,0.5287888812010996,71.28599999996368
312487.0067,7.6860928773625785,-5.420357819233335,4.295250988477067,0.39618961552330867,71.28700000001118
312487.0077,5.840290584303588,-4.734487238357382,4.509458960053641,0.7052857572099445,71.28800000000047
312487.0087,4.5692457369797825,-3.6629093330642437,5.1495454384797155,1.4193344075525827,71.28899999998976
312487.0097,3.8529841235669995,-2.273124038542823,6.1236419325128395,2.476622816328115,71.28999999997905
312487.0107,3.6421571528414005,-0.6481517241922097,7.317447700042973,3.7965802924818495,71.29099999996834
312487.0117,3.8649224452884,1.1207366716542402,8.60371726104975,5.2870977719017915,71.29199999995762
312487.0127,4.434793045580789,2.9415753290303708,9.852412378780633,6.852351931604127,71.29300000000512
312487.0137,5.258681786688227,4.728835952843901,10.940651829621949,8.400406790324304,71.29399999999441
312487.0147,6.244398254842426,6.4094869347380685,11.76163605158845,9.849911684267404,71.2949999999837
312487.0157,7.306957027988781,7.927451017588258,12.231841090456678,11.135324808753655,71.29599999997299
312487.0167,8.373215527940868,9.24610491697742,12.295954787555834,12.210254393052503,71.29699999996228
312487.0177,9.384560537194393,10.348668591761502,11.92924985835862,13.048708211406641,71.29800000000978
312487.0187,10.297583019514972,11.236548013836218,11.137331529696484,13.644256369713053,71.29899999999907
312487.0197,11.082898559855948,11.925901669362483,9.953438184703755,14.0073206650518,71.29999999998836
312487.0207,11.72246338405737,12.442877017598017,8.433689088609528,14.160985640526052,71.30099999997765
312487.0217,12.205884295370467,12.818091270660071,6.650843679902376,14.135863978032388,71.30199999996694
312487.0227,12.52631053115349,13.08099855613719,4.687246848572675,13.96462895076542,71.30299999995623
312487.0237,12.676518268794995,13.254786337724491,2.627675052573774,13.67684207573099,71.30400000000373
312487.0247,12.64575305673539,13.352378214037381,0.5527670399826663,13.294654236068274,71.30499999999302
312487.0257,12.417787635556508,13.37399492024134,-1.4663745382542328,12.829849353698679,71.3059999999823
312487.0267,11.970494677833699,13.306553532567724,-3.371976607611475,12.282543095709226,71.3069999999716
312487.0277,11.277043262974892,13.124984192355578,-5.121540423864035,11.641661694540465,71.30799999996088
312487.0287,10.308625074925859,12.795334665878293,-6.6879015955226695,10.887127332626655,71.30900000000838
312487.0297,9.03842320587388,12.27933708455759,-8.05757309788993,9.993487247378813,71.30999999999767
312487.0307,7.446373844791248,11.539948275747173,-9.2277177889797,8.934563212854412,71.31099999998696
312487.0317,5.524156614689374,10.54726186845034,-10.202232852446373,7.68858275620689,71.31199999997625
312487.0327,3.2797955020678056,9.284138514952735,-10.987508407207018,6.243195088948935,71.31299999996554
312487.0337,0.7412655315459977,7.750915627636727,-11.588438987483839,4.599779156751662,71.31400000001304
312487.0347,-2.0414200060197625,5.968638813718284,-12.005219094021273,2.7765179247428096,71.31500000000233
312487.0357,-4.99602831529074,3.9803959524720782,-12.231348541844772,0.809835199834632,71.31599999999162
312487.0367,-8.03003432822527,1.8505180581176695,-12.253121798980038,-1.2460434596901888,71.31699999998091
312487.0377,-11.034647752362172,-0.33837928394726846,-12.05069448675118,-3.3214526114973792,71.3179999999702
312487.0387,-13.890714351318481,-2.490324690296094,-11.600629176544496,-5.335419872654634,71.31899999995949
312487.0397,-16.47606521670767,-4.502500824609013,-10.879641968718705,-7.201232742628393,71.32000000000698
312487.0407,-18.67372406522023,-6.272781602209074,-9.869120320197595,-8.832948425501002,71.32099999999627
312487.0417,-20.380272967495653,-7.707630242632179,-8.559877346737272,-10.15224948024745,71.32199999998556
312487.0427,-21.513633332204716,-8.729642055497198,-6.956559797629605,-11.095000112308162,71.32299999997485
312487.0437,-22.019546934305527,-9.284034726599048,-5.081141658705661,-11.61687329560834,71.32399999996414
312487.0447,-21.876139769422522,-9.343474879574448,-2.9750120366404453,-11.697496534670076,71.32500000001164
312487.0457,-21.096111095096106,-8.910774946072348,-0.6992974193121828,-11.342696650477222,71.32600000000093
312487.0467,-19.726296609488063,-8.019185248364137,1.6667682460192772,-10.584598787128606,71.32699999999022
312487.0477,-17.844589002820836,-6.73022460739364,4.029414184726509,-9.479535002013636,71.32799999997951
312487.0487,-15.554438899185234,-5.129217967965238,6.285629856439578,-8.103923915731887,71.3289999999688
312487.0497,-12.977381555625982,-3.3189200240481678,8.329787194524469,-6.5484749348504625,71.32999999995809
312487.0507,-10.244218162424799,-1.4117795532778434,10.061034913877057,-4.911229830674582,71.33100000000559
312487.0517,-7.485607331849055,0.4784766360517442,11.390811040944467,-3.2900654248817838,71.33199999999488
312487.0527,-4.822879833514698,2.245200425457699,12.249781327791613,-1.7753329275475391,71.33299999998417
312487.0537,-2.3598718512094483,3.796388404458643,12.593540057379613,-0.44329694478688025,71.33399999997346
312487.0547,-0.17648017889292605,5.060802515542003,12.406504431113534,0.6490386070818921,71.33499999996275
312487.0557,1.6755148979583376,5.992128357387947,11.70358624054421,1.4672622859431323,71.33600000001024
312487.0567,3.174022200634636,6.5708397197247885,10.529421054068626,2.000764498508702,71.33699999999953
312487.0577,4.3255115325616025,6.803653585192377,8.955157377094874,2.2617462605152094,71.33799999998882
312487.0587,5.161338371552637,6.720685041508571,7.073035077720909,2.2821582444734125,71.33899999997811
312487.0597,5.731910218753348,6.370624846486178,4.98919196781792,2.1088972001197424,71.3399999999674
312487.0607,6.099282058426267,5.814443503811587,2.815309318602232,1.7977511995188222,71.3409999999567
312487.0617,6.328911508123537,5.118257490637821,0.6598241731548529,1.4067018786676182,71.34200000000419
312487.0627,6.481378319643526,4.346063355189857,-1.380513425682271,0.9892496873919084,71.34299999999348
312487.0637,6.604870928222618,3.5530473627211236,-3.227982467156791,0.5884215754385961,71.34399999998277
312487.0647,6.729164979450461,2.780112375873297,-4.829470081580431,0.23205022163737393,71.34499999997206
312487.0657,6.861672653605565,2.050136427729934,-6.159782455019427,-0.07021329083457103,71.34599999996135
312487.0667,6.985941133168716,1.366301593677377,-7.222388213538886,-0.32786317693600087,71.34700000000885
312487.0677,7.062742873801158,0.7126245662937146,-8.047530809791972,-0.5683884365460518,71.34799999999814
312487.0687,7.033651928858191,0.05660204053919516,-8.687890113715666,-0.8341256134669062,71.34899999998743
312487.0697,6.826763099494212,-0.6463241140611411,-9.212201813035016,-1.177428727105921,71.34999999997672
312487.0707,6.364006686762996,-1.446954683823849,-9.697434589786814,-1.6546360014672292,71.350999999966
312487.0717,5.56936038432493,-2.395776965810181,-10.220260972624706,-2.3194320259307046,71.3519999999553
312487.0727,4.377175524196227,-3.5363378932353378,-10.848625074656427,-3.216264798356081,71.3530000000028
312487.0737,2.739825159403086,-4.899223320289881,-11.63420240257465,-4.374473898956877,71.35399999999208
312487.0747,0.6339468403346565,-6.497257372163749,-12.606464017993193,-5.80371921057627,71.35499999998137
312487.0757,-1.9353132769098578,-8.322412627248688,-13.768907149661569,-7.491175688155368,71.35599999997066
312487.0767,-4.932459368252282,-10.344750938721809,-15.097810944750194,-9.400790753674512,71.35699999995995
312487.0777,-8.292386526671432,-12.513512897918751,-16.54363857418757,-11.474703352905584,71.35800000000745
312487.0787,-11.923640829893559,-14.760261234695164,-18.03495782702021,-13.636716691742457,71.35899999999674
312487.0797,-15.71390404615018,-17.00378078890938,-19.48451524203228,-15.797520181943904,71.35999999998603
312487.0807,-19.53720565156036,-19.15626497231533,-20.796896216110863,-17.861189112720464,71.36099999997532
312487.0817,-23.26221157217365,-21.13019277579183,-21.877054612314875,-19.73236907242479,71.36199999996461
312487.0827,-26.76084914485355,-22.84523362079209,-22.63891426672476,-21.32348777578787,71.36300000001211
312487.0837,-29.916509102343934,-24.234516123988943,-23.013239094314255,-22.561335749742064,71.3640000000014
312487.0847,-32.63111886692243,-25.24966109718069,-22.954038650377143,-23.392419204002504,71.36499999999069
312487.0857,-34.83050103017458,-25.864102348501063,-22.442915200682005,-23.786607156223692,71.36599999997998
312487.0867,-36.46760419590952,-26.07438878870652,-21.490953185885914,-23.738758789367186,71.36699999996927
312487.0877,-37.52340286104618,-25.899361089408153,-20.137983730687004,-23.26821003055476,71.36799999995856
312487.0887,-38.005487843550384,-25.377305874855573,-18.449303348771785,-22.41620161341126,71.36900000000605
312487.0897,-37.94458678986806,-24.56138937191214,-16.51016368425921,-21.241524638694745,71.36999999999534
312487.0907,-37.38944426111627,-23.513840894967913,-14.41855538865594,-19.814825098535437,71.37099999998463
312487.0917,-36.40063455359491,-22.29947783797803,-12.27696454995553,-18.212130034147616,71.37199999997392
312487.0927,-35.043964278440114,-20.979226003852542,-10.183869948513431,-16.50822341137347,71.37299999996321
312487.0937,-33.38413841216604,-19.604286015237268,-8.225765672863684,-14.770503405226687,71.37400000001071
312487.0947,-31.47931241236095,-18.211528594286083,-6.470435288084269,-13.05389467217814,71.375
312487.0957,-29.377040233778363,-16.82057549031616,-4.9620770099530445,-11.397275525875248,71.37599999998929
312487.0967,-27.111965959177954,-15.432851357545276,-3.718696955107859,-9.821722337822376,71.37699999997858
312487.0977,-24.705412394508492,-14.032692039478937,-2.731967538432644,-8.330687860228178,71.37799999996787
312487.0987,-22.166813568117195,-12.590386415109272,-1.9695119855031102,-6.912035104050474,71.37899999995716
312487.0997,-19.496740841111368,-11.066832952208193,-1.3793466004621662,-5.541663326097916,71.38000000000466
312487.1007,-16.691104379815595,-9.419327914291674,-0.8960118957584522,-4.188305912656906,71.38099999999395
312487.1017,-13.745990016703418,-7.607886134125979,-0.44777097551486506,-2.818966908568412,71.38199999998324
312487.1027,-10.662528154230046,-5.6014389641773095,0.03583711818584481,-1.4044046131666106,71.38299999997253
312487.1037,-7.451192441007175,-3.383263077430852,0.616821976297046,0.07592747325799187,71.38399999996182
312487.1047,-4.134990961840732,-0.9550673689253211,1.3426265113279103,1.6300105634408624,71.38500000000931
312487.1057,-0.7511346090588251,1.6607039476059131,2.2416377812791097,3.2508749117210196,71.3859999999986
312487.1067,2.649066648879972,4.420618759557935,3.3207203774878757,4.9159560686605275,71.38699999998789
312487.1077,6.002135953250795,7.262119461486251,4.564963005817295,6.588268991575064,71.38799999997718
312487.1087,9.236046659670423,10.107355498153861,5.939607465656492,8.219287155977842,71.38899999996647
312487.1097,12.27519458351188,12.868645461944629,7.393914113693808,9.753236815708851,71.38999999995576
312487.1107,15.046242209995505,15.455065328261691,8.866530213816215,11.132369105463038,71.39100000000326
312487.1117,17.4842470120267,17.779545541946458,10.291785566944379,12.302669527951844,71.39199999999255
312487.1127,19.538441019793616,19.765805995366417,11.606257075485486,13.219415825234147,71.39299999998184
312487.1137,21.177048435096463,21.35446977297632,12.754928049170289,13.852006142293211,71.39399999997113
312487.1147,22.3906108588699,22.50777274709576,13.696320039822025,14.187548663594637,71.39499999996042
312487.1157,23.193427747797895,23.212419247626976,14.406088999782922,14.232824646204651,71.39600000000792
312487.1167,23.62289962788304,23.480311072406188,14.878741662346304,14.014396982170991,71.3969999999972
312487.1177,23.736765734911206,23.347080746605513,15.127325400769045,13.576820184003665,71.3979999999865
312487.1187,23.608436001131547,22.868570289758637,15.181155378067874,12.979096757309842,71.39899999997579
312487.1197,23.32080903201227,22.11559329015559,15.081845287305631,12.289700538274621,71.39999999996508
312487.1207,22.959123800416915,21.16748168118055,14.878082044804133,11.580632293454505,71.40100000001257
312487.1217,22.603497501815713,20.10503337146602,14.619713006163616,10.92107231036185,71.40200000000186
312487.1227,22.321844569277662,19.003531697573894,14.35178384127431,10.371238906631252,71.40299999999115
312487.1237,22.16384744239185,17.92649729884412,14.10916924071731,9.977046231484895,71.40399999998044
312487.1247,22.156560001026044,16.920758566331962,13.912376805794791,9.766080762808933,71.40499999996973
312487.1257,22.302077635588354,16.013295628295666,13.764983052103876,9.745290579001756,71.40599999995902
312487.1267,22.577517349132588,15.210137744799985,13.652991638606524,9.900616907402025,71.40700000000652
312487.1277,22.937335007710416,14.497392085484044,13.546204669642174,10.19860958603399,71.40799999999581
312487.1287,23.317785428452908,13.844272840225095,13.401488225904476,10.58987520854559,71.4089999999851
312487.1297,23.643125643164467,13.207803830980927,13.167614280344917,11.014027691743028,71.40999999997439
312487.1307,23.83299226480904,12.538704340009712,12.791192981567065,11.405663377475966,71.41099999996368
312487.1317,23.810267013911645,11.787852701382834,12.22308910162295,11.70078114350423,71.41200000001118
312487.1327,23.50869184878763,10.912666599257262,11.424656725588866,11.843022532851634,71.41300000000047
312487.1337,22.879512459930343,9.88274848057873,10.373133543333305,11.789122382619054,71.41399999998976
312487.1347,21.896515164340425,8.684218199844828,9.065610299260952,11.513035694651935,71.41499999997905
312487.1357,20.558969887320778,7.322285883569549,7.5211253074459306,11.008334557510706,71.41599999996834
312487.1367,18.892187415309635,5.821793349511245,5.780615641459989,10.288637619231661,71.41699999995762
312487.1377,16.945624201735473,4.225655173041666,3.9046680212894516,9.386027691099976,71.41800000000512
312487.1387,14.788701460000807,2.5913408513152247,1.9692327760643313,8.347611803565398,71.41899999999441
312487.1397,12.50472483705599,0.9857368430038023,0.05967169275155916,7.2305630148984985,71.4199999999837
312487.1407,10.183475507919754,-0.5211078897262323,-1.7363157445173762,6.096136267632876,71.42099999997299
312487.1417,7.91317511000098,-1.8627331979417199,-3.3362209462013035,5.003256359153609,71.42199999996228
312487.1427,5.77259250586469,-2.9828407636244507,-4.669984784137557,4.002323898349795,71.42300000000978
312487.1437,3.8240530940963016,-3.8410244293204383,-5.686273951023675,3.1298697952872097,71.42399999999907
312487.1447,2.1080313678757006,-4.417069842082116,-6.3571459871468265,2.4046113336186856,71.42499999998836
312487.1457,0.6398617016389673,-4.713370337515581,-6.680619973207889,1.8253302374963658,71.42599999997765
312487.1467,-0.5910956814490259,-4.755186591756664,-6.680865481338077,1.370817827151827,71.42699999996694
312487.1477,-1.6197284564095635,-4.5886864622876935,-6.405948848671211,1.0019310722215666,71.42799999995623
312487.1487,-2.5010243771649567,-4.276918380130953,-5.92331139945233,0.6655954623497395,71.42900000000373
312487.1497,-3.303873286550496,-3.8940755133453924,-5.313376019278508,0.3003962676355699,71.42999999999302
312487.1507,-4.103389683503777,-3.5185787310228225,-4.661864753119552,-0.15676206354696795,71.4309999999823
312487.1517,-4.972473426811547,-3.2256273149501933,-4.051542406898029,-0.7635619595591232,71.4319999999716
312487.1527,-5.973406290181099,-3.0799253238014423,-3.554166120707839,-1.565431283649976,71.43299999996088
312487.1537,-7.150287548418116,-3.1292824107554806,-3.223411607439963,-2.5896293371544483,71.43400000000838
312487.1547,-8.523041676561133,-3.3997112122546103,-3.089463397816884,-3.840858159435782,71.43499999999767
312487.1557,-10.083591858052037,-3.8925062073386587,-3.1558063365797984,-5.298861743732289,71.43599999998696
312487.1567,-11.79459718654431,-4.583604138905543,-3.3985525546066713,-6.918294877731841,71.43699999997625
312487.1577,-13.590917444453988,-5.425311299689961,-3.7684012081462948,-8.6309336466893,71.43799999996554
312487.1587,-15.383719027817397,-6.3502587943314035,-4.1950798279089465,-10.350080968146115,71.43900000001304
312487.1597,-17.066892398413643,-7.27723484981879,-4.593879807110345,-11.976813581830092,71.44000000000233
312487.1607,-18.525238142050735,-8.118363800915454,-4.873697009943804,-13.407541388527148,71.44099999999162
312487.1617,-19.643715213678174,-8.786971864161965,-4.9458411313906465,-14.542222688505372,71.44199999998091
312487.1627,-20.316946435371253,-9.205412783170178,-4.73279863423609,-15.292511947918308,71.4429999999702
312487.1637,-20.458151790439167,-9.312128416352726,-4.176131695989498,-15.589116739072843,71.44399999995949
312487.1647,-20.006731525174164,-9.067290233796411,-3.242770221523247,-15.387707630307114,71.44500000000698
312487.1657,-18.933843357517354,-8.45650074087405,-1.929098875890394,-14.672852850765443,71.44599999999627
312487.1667,-17.24549938328364,-7.492216315433387,-0.2624428030748988,-13.45962655763109,71.44699999998556
312487.1677,-14.982931266230844,-6.212767345088669,1.700204693778823,-11.792748891477059,71.44799999997485
312487.1687,-12.220215895829158,-4.679077335283632,3.8761142944454265,-9.74333807873338,71.44899999996414
312487.1697,-9.059395026398226,-2.969398209853156,6.163068206669755,-7.403568819826283,71.45000000001164
312487.1707,-5.623539029404983,-1.1725637419025274,8.447364497619299,-4.879717093724324,71.45100000000093
312487.1717,-2.0483769174181226,0.6196006665126305,10.612857644738343,-2.2842120383390854,71.45199999999022
312487.1727,1.526773204141852,2.319998698699399,12.550220309731127,0.27260218895329486,71.45299999997951
312487.1737,4.967996690538011,3.8533945538631555,14.165593275299802,2.69027505246947,71.4539999999688
312487.1747,8.15495134239093,5.1622973979636475,15.38785035176428,4.884959371840107,71.45499999995809
312487.1757,10.987564514377462,6.211065691565578,16.17383699989916,6.79446432692687,71.45600000000559
312487.1767,13.390765974633053,6.987873041905847,16.51113270591628,8.381255926629073,71.45699999999488
312487.1777,15.316961747828739,7.504385215095196,16.418119427221765,9.633205793076787,71.45799999998417
312487.1787,16.746173678431585,7.793218941192626,15.941389479545306,10.562101442116935,71.45899999997346
312487.1797,17.68398925608714,7.903465768697864,15.150772110508017,11.200138907824257,71.45999999996275
312487.1807,18.157665059685208,7.894747974785604,14.132475342743716,11.594801831825349,71.46100000001024
312487.1817,18.210886086855968,7.830410775151168,12.981007953518576,11.802672783831524,71.46199999999953
312487.1827,17.897787534388286,7.770532729575241,11.790649986350447,11.882809509680925,71.46299999998882
312487.1837,17.276886183535588,7.765447055845671,10.64726958353419,11.890343316160632,71.46399999997811
312487.1847,16.405542772393346,7.850409809200278,9.62123701392438,11.870917299716988,71.4649999999674
312487.1857,15.335488604348159,8.041932393318726,8.762068763121139,11.856483235602413,71.4659999999567
312487.1867,14.109809336880453,8.336127471004376,8.095257516344024,11.862828033397976,71.46700000000419
312487.1877,12.761601731335215,8.709215697004101,7.621525501014162,11.889018803222237,71.46799999999348
312487.1887,11.314323985538142,9.120125658783868,7.318500555455914,11.918758037446597,71.46899999998277
312487.1897,9.783667614886879,9.514912095472248,7.144579799003213,11.923446867125117,71.46999999997206
312487.1907,8.180608752214795,9.832538173538167,7.044537709817933,11.866583933376242,71.47099999996135
312487.1917,6.515166799703058,10.011433840091826,6.956273817987713,11.708996835877917,71.47200000000885
312487.1927,4.800321953606485,9.99616705827758,6.817995426586996,11.414325042141757,71.47299999999814
312487.1937,3.0555280268926954,9.743555290268269,6.575101923221429,10.95415493164062,71.47399999998743
312487.1947,1.309304652816309,9.22760169440374,6.18608142483047,10.312250678888935,71.47499999997672
312487.1957,-0.39950169763631554,8.442758365213393,5.626842576252209,9.487424206305299,71.475999999966
312487.1967,-2.0220464585278113,7.405185822367581,4.893072495710848,8.494733094859004,71.4769999999553
312487.1977,-3.5014813317101146,6.151877293575575,4.00041886030387,7.364872185170104,71.4780000000028
312487.1987,-4.7764958798888495,4.737728408084483,2.9825189572012767,6.1418146133182345,71.47899999999208
312487.1997,-5.786102685206258,3.2308367607988213,1.8871185684885983,4.878941908579285,71.47999999998137
312487.2007,-6.475205856718384,1.7064912938951098,0.7707168077275507,3.6340618917541665,71.48099999997066
312487.2017,-6.800381814296946,0.24044126042212813,-0.3076797161638509,2.4638313239951426,71.48199999995995
312487.2027,-6.735248564207858,-1.0978941085011849,-1.2930232719714385,1.4181655635618053,71.48300000000745
312487.2037,-6.274811731082192,-2.251608223645507,-2.140223903402974,0.5352232136038851,71.48399999999674
312487.2047,-5.438252484053399,-3.181275153511555,-2.819045298335095,-0.1625007954319276,71.48499999998603
312487.2057,-4.269757624684536,-3.8682162802145568,-3.3173792786535303,-0.6705496670767461,71.48599999997532
312487.2067,-2.8371728901810793,-4.3157470738995105,-3.64255043085602,-1.003076112566664,71.48699999996461
312487.2077,-1.2284695399189258,-4.54828512890923,-3.8205076231639854,-1.1915220082525546,71.48800000001211
312487.2087,0.45376901381343127,-4.608411932222428,-3.892978912875661,-1.2815100562607036,71.4890000000014
312487.2097,2.099431039600772,-4.5521829140039705,-3.9128783994782097,-1.3282345112991494,71.48999999999069
312487.2107,3.5989530980409796,-4.4431531770915775,-3.9384364918442913,-1.3907938731286658,71.49099999997998
312487.2117,4.851695514232119,-4.345712834617249,-4.026660341174231,-1.5260209716761937,71.49199999996927
312487.2127,5.7738710542829175,-4.318393610017068,-4.226805134858742,-1.7824235683716665,71.49299999995856
312487.2137,6.305300207036451,-4.40781060037302,-4.574541977868841,-2.1948453776566343,71.49400000000605
312487.2147,6.414355748133547,-4.6438396781997335,-5.087443518779552,-2.7803932424191826,71.49499999999534
312487.2157,6.100611273887552,-5.036508205321365,-5.762280563106517,-3.5360571063636637,71.49599999998463
312487.2167,5.394909431649439,-5.5749067157998855,-6.574444232379886,-4.438286920532512,71.49699999997392
312487.2177,4.356797010150659,-6.228228810746231,-7.479596418844337,-5.444600549568616,71.49799999996321
312487.2187,3.069514119342392,-6.9488355065719745,-8.417427322359057,-6.497097736789372,71.49900000001071
312487.2197,1.6329505835272948,-7.6770395343087525,-9.317184960255002,-7.527566821317663,71.5
312487.2207,0.15517277384209807,-8.347134421591736,-10.10445899593351,-8.463711765109867,71.50099999998929
312487.2217,-1.2567399188249018,-8.894069442791004,-10.708568285238554,-9.235912913344205,71.50199999997858
312487.2227,-2.5057411832340772,-9.260106901704582,-11.069831605455981,-9.783877174313133,71.50299999996787
312487.2237,-3.512944365490801,-9.400799084458976,-11.146001369823624,-10.062537861334286,71.50399999995716
312487.2247,-4.224107243057237,-9.289688499013462,-10.917211127712827,-10.04663110232792,71.50500000000466
312487.2257,-4.613899435128238,-8.921260169866407,-10.38892277654594,-9.733498235081322,71.50599999999395
312487.2267,-4.687576948283834,-8.311846455767373,-9.5925458486654,-9.143830247471524,71.50699999998324
312487.2277,-4.47992311147734,-7.498386201552787,-8.58362112470081,-8.320265050856108,71.50799999997253
312487.2287,-4.0515626807646985,-6.535151209607335,-7.437692996850108,-7.32395239325302,71.50899999996182
312487.2297,-3.4829930777390747,-5.488753249220815,-6.244217042502888,-6.229394804053712,71.51000000000931
312487.2307,-2.8668814695563802,-4.431914423997577,-5.0990396801943785,-5.118037388832408,71.5109999999986
312487.2317,-2.299329727354976,-3.4366060178329727,-4.096127092131117,-4.071198658801245,71.51199999998789
312487.2327,-1.8708971607134184,-2.567223924206222,-3.3192971500594584,-3.162997353959023,71.51299999997718
312487.2337,-1.6581855125869036,-1.8744662520594786,-2.834713357042663,-2.4539303660578953,71.51399999996647
312487.2347,-1.7167311751565997,-1.39051095436568,-2.6848331767421434,-1.9856944325488906,71.51499999995576
312487.2357,-2.07582213531198,-1.1259650132040413,-2.884370866174861,-1.7777253751502726,71.51600000000326
312487.2367,-2.7356743572182256,-1.0688842591594439,-3.418649691446366,-1.8257648896599152,71.51699999999255
312487.2377,-3.667181892948171,-1.18596125025821,-4.244497926806472,-2.102572188378557,71.51799999998184
312487.2387,-4.814218139139671,-1.4257675897959081,-5.293608433070187,-2.5606948634222704,71.51899999997113
312487.2397,-6.098234855241386,-1.7237373337500261,-6.478055324462284,-3.1370198376068785,71.51999999996042
312487.2407,-7.424702543833111,-2.0084093078606773,-7.697464847827844,-3.7586598858530733,71.52100000000792
312487.2417,-8.690779382491215,-2.2083247493069744,-8.847189744134965,-4.34960983248646,71.5219999999972
312487.2427,-9.793500210053871,-2.258914559988609,-9.826750907050632,-4.837540699289513,71.5229999999865
312487.2437,-10.637750202854857,-2.108713622394255,-10.54779486575448,-5.160095867609512,71.52399999997579
312487.2447,-11.143331164538159,-1.7243076751170674,-10.940871430601439,-5.270110744293439,71.52499999996508
312487.2457,-11.250536304685076,-1.093544383161307,-10.96045677881188,-5.1392904629958,71.52600000001257
312487.2467,-10.923810276786726,-0.22671196873639354,-10.587821058676361,-4.760037349795026,71.52700000000186
312487.2477,-10.15326834314826,0.8444108861740461,-9.831548925228427,-4.145305477196355,71.52799999999115
312487.2487,-8.95406176043808,2.0695209777750243,-8.725745614616992,-3.3265551280213685,71.52899999998044
312487.2497,-7.363784439315268,3.3844621086154207,-7.326178246384981,-2.3500659857934685,71.52999999996973
312487.2507,-5.438298032265561,4.717125880951939,-5.704790907890616,-1.2720259636159772,71.53099999995902
312487.2517,-3.2464910894375163,5.9939870318895965,-3.9431745595973333,-0.15292720448764843,71.53200000000652
312487.2527,-0.8645696155425272,7.146619553698608,-2.125655457866363,0.9481392833499663,71.53299999999581
312487.2537,1.629506056879837,8.117546012259432,-0.3326811993929189,1.978699403217034,71.5339999999851
312487.2547,4.160870457599474,8.864843255316282,1.364869048142406,2.8970918778153703,71.53499999997439
312487.2557,6.661426957443985,9.365056116101133,2.909937984040297,3.6752285551289807,71.53599999996368
312487.2567,9.072038850706923,9.614144087983176,4.261759237572629,4.2996601360207505,71.53700000001118
312487.2577,11.343114112620102,9.626387123227426,5.396390707404059,4.770871411906696,71.53800000000047
312487.2587,13.433655656174814,9.43138574921078,6.305369858293063,5.100920912715335,71.53899999998976
312487.2597,15.309034385971943,9.069486809120619,6.992748620871235,5.309719038136049,71.53999999997905
312487.2607,16.937898254633744,8.586129724045566,7.4709360396920435,5.420387988914278,71.54099999996834
312487.2617,18.288740072605812,8.025722759641068,7.755900478787668,5.454250752935822,71.54199999995762
312487.2627,19.32669790231412,7.425712626551461,7.862347412999025,5.426044104521756,71.54300000000512
312487.2637,20.011148318546343,6.811498024277015,7.7994870131256295,5.339936666419816,71.54399999999441
312487.2647,20.294575073749417,6.192759136701372,7.567937955246886,5.186858295539625,71.5449999999837
312487.2657,20.123060815803875,5.561637764191786,7.158186910085255,4.943518195190769,71.54599999997299
312487.2667,19.438570483418488,4.89301970923517,6.55084978262579,4.573318485932292,71.54699999996228
312487.2677,18.182989604034283,4.146959788599175,5.7187785381882685,4.029174025951587,71.54800000000978
312487.2687,16.303669719586583,3.2730709087840073,4.630846986791035,3.2580472980858537,71.54899999999907
312487.2697,13.760038342375223,2.2164934435521126,3.25705184467218,2.2068192462166296,71.54999999998836
312487.2707,10.53067281888976,0.9248899966349036,1.5744022698966709,0.8289619973592028,71.55099999997765
312487.2717,6.620133657021095,-0.644209281926976,-0.42704077635362675,-0.9086265918450523,71.55199999996694
312487.2727,2.0648156584121273,-2.5164419300306693,-2.7386621454286866,-3.0193122902602316,71.55299999995623
312487.2737,-3.0628893089321654,-4.6947463302190835,-5.328992163014852,-5.4916031562605765,71.55400000000373
312487.2747,-8.652716783853947,-7.155226761876192,-8.14118249256916,-8.285797306438539,71.55499999999302
312487.2757,-14.557369228159097,-9.845238315586078,-11.09267988407037,-11.332835708997672,71.5559999999823
312487.2767,-20.59627785699934,-12.683984170153725,-14.077319328244462,-14.535606526856967,71.5569999999716
312487.2777,-26.562243576103043,-15.56569081853903,-16.96982909794436,-17.772729904266146,71.55799999996088
312487.2787,-32.23065617948648,-18.36518964131181,-19.63250421787682,-20.90462641646027,71.55900000000838
312487.2797,-37.370750120834785,-20.945508088229595,-21.923585067362858,-23.781459869672133,71.55999999999767
312487.2807,-41.75815397421896,-23.16688197790212,-23.706695881348047,-26.25236590078866,71.56099999998696
312487.2817,-45.187848678757376,-24.89646036814779,-24.860572303415356,-28.175249065858385,71.56199999997625
312487.2827,-47.48658114012032,-26.01789959839653,-25.288251089705405,-29.42636538160319,71.56299999996554
312487.2837,-48.52379243399377,-26.44004087457664,-24.924915242668032,-29.908911303740116,71.56400000001304
312487.2847,-48.22021399275903,-26.103936748397377,-23.74368367689933,-29.559914087757882,71.56500000000233
312487.2857,-46.55345350669033,-24.987629734820594,-21.75879810900989,-28.35485602251052,71.56599999999162
312487.2867,-43.5601206825818,-23.108278504460575,-19.025876751957295,-26.309653818746447,71.56699999998091
312487.2877,-39.334311696249486,-20.521455853996365,-15.639154865322908,-23.479837311160335,71.5679999999702
312487.2887,-34.02255655791198,-17.31768682942552,-11.725893163841372,-19.957008215796122,71.56899999995949
312487.2897,-27.815610458332806,-13.61653235315715,-7.438382231384303,-15.862888300458224,71.57000000000698
312487.2907,-20.93771397400347,-9.558731598550192,-2.944181289624724,-11.341466050241598,71.57099999999627
312487.2917,-13.634136284625047,-5.29707606981048,1.584616826009941,-6.549903549310468,71.57199999998556
312487.2927,-6.157933820718272,-0.9867853951582054,5.982220286623369,-1.6489571137379935,71.57299999997485
312487.2937,1.2431058954304972,3.223819274858373,10.099194865535086,3.206311784278009,71.57399999996414
312487.2947,8.338411444914122,7.201595370278892,13.810940684156474,7.874806034720389,71.57500000001164
312487.2957,14.92466602126809,10.835178276378839,17.023935103948208,12.236025968837671,71.57600000000093
312487.2967,20.83332717737826,14.039436455771462,19.67929360869616,16.194615311653646,71.57699999999022
312487.2977,25.93525455736028,16.757528652823847,21.75344494496639,19.682572998364908,71.57799999997951
312487.2987,30.14233376276334,18.960538035714002,23.255976757027554,22.659105245046128,71.5789999999688
312487.2997,33.406245891403636,20.644883220696602,24.224959072837827,25.108310114466754,71.57999999995809
312487.3007,35.71476944408058,21.82790624477874,24.720271854377636,27.03508040411932,71.58100000000559
312487.3017,37.08619269396718,22.542193820541947,24.815629216683032,28.459761855277012,71.58199999999488
312487.3027,37.562543467567075,22.829286208264346,24.590091773588263,29.412198600480117,71.58299999998417
312487.3037,37.202399112728386,22.733459214352532,24.119881356969323,29.92582822274824,71.58399999997346
312487.3047,36.07401899366764,22.296227254066025,23.471257875437264,30.03245297034367,71.58499999996275
312487.3057,34.249449393736235,21.552113962753417,22.695092516719722,29.75821624666886,71.58600000001024
312487.3067,31.800097427660923,20.526082611965485,21.823587797249754,29.121165165459857,71.58699999999953
312487.3077,28.794073449605747,19.232827794823187,20.86937153045191,28.13059631459444,71.58799999998882
312487.3087,25.295381511569996,17.67792215906703,19.826950687576506,26.788181817879003,71.58899999997811
312487.3097,21.364817610232816,15.860608544408688,18.676275933034127,25.090676663531394,71.5899999999674
312487.3107,17.06223830880331,13.77784926233509,17.387961119044547,23.03383583028533,71.5909999999567
312487.3117,12.449707763862316,11.429108329039485,15.929544026697718,20.617038196211723,71.59200000000419
312487.3127,7.594934577524172,8.821262703829307,14.272080059292028,17.848036543845296,71.59299999999348
312487.3137,2.574380516960781,5.973022753594298,12.396338037690626,14.747236675427802,71.59399999998277
312487.3147,-2.5245366622498735,2.9182915577194857,10.297918214718745,11.350955027935242,71.59499999997206
312487.3157,-7.602619066824623,-0.29199796687587304,7.990731397635409,7.713208247046963,71.59599999996135
312487.3167,-12.549757566480283,-3.5898710574807993,5.508452305977773,3.9057392034114766,71.59700000000885
312487.3177,-17.24761308971527,-6.892236458187648,2.9037722794750205,0.016166512047425714,71.59799999999814
312487.3187,-21.574018486825473,-10.1046574204748,0.24550485418633908,-3.85565976834869,71.59899999998743
312487.3197,-25.408803931460497,-13.126680067557535,-2.386180293353638,-7.602824703898987,71.59999999997672
312487.3207,-28.640571117946333,-15.85826155146746,-4.905926064610432,-11.117602710220185,71.600999999966
312487.3217,-31.17381003903636,-18.206715602098367,-7.230144563123575,-14.29824405960154,71.6019999999553
312487.3227,-32.93568101114546,-20.093525439127877,-9.284063132066974,-17.05567208832938,71.6030000000028
312487.3237,-33.881781907382084,-21.460370646426952,-11.008147802046242,-19.31946468867355,71.60399999999208
312487.3247,-34.00028745004975,-22.273776166740486,-12.363250047790808,-21.04255093221036,71.60499999998137
312487.3257,-33.31397809592314,-22.527912290796383,-13.333946184131937,-22.20416758330571,71.60599999997066
312487.3267,-31.879858286132492,-22.24524275286524,-13.929715347015746,-22.810779761747714,71.60699999995995
312487.3277,-29.78628017569584,-21.474917459656112,-14.183814239796892,-22.894859526324232,71.60800000000745
312487.3287,-27.147718456667718,-20.28901753899648,-14.149933648882117,-22.511617134670374,71.60899999999674
312487.3297,-24.097562163132594,-18.776962698700697,-13.896940735535617,-21.73397251604047,71.60999999998603
312487.3307,-20.779478787802255,-17.03856459463755,-13.502200710340986,-20.646220210417795,71.61099999997532
312487.3317,-17.338045938428174,-15.176338078093144,-13.044113055670758,-19.336963483322094,71.61199999996461
312487.3327,-13.909422144113652,-13.287752337133568,-12.594577102206612,-17.891960577866318,71.61300000001211
312487.3337,-10.612833424266787,-11.458109242487689,-12.212111712408568,-16.387531588163366,71.6140000000014
312487.3347,-7.543584880521004,-9.754676154505075,-11.936293141118561,-14.885117750055569,71.61499999999069
312487.3357,-4.768172878882781,-8.222580898955083,-11.784049802109044,-13.42747164263643,71.61599999997998
312487.3367,-2.321885782665757,-6.882809200669352,-11.74817493910475,-12.03679798740761,71.61699999996927
312487.3377,-0.20905731496974936,-5.732445822984589,-11.798205429760147,-10.714975943967767,71.61799999995856
312487.3387,1.5941023835161392,-4.747089273946919,-11.883587860778302,-9.44579343804685,71.61900000000605
312487.3397,3.134404474482213,-3.8851666275133083,-11.938833662100887,-8.198931603415984,71.61999999999534
312487.3407,4.474816573720212,-3.0936993423976595,-11.890174727708652,-6.9352715305657195,71.62099999998463
312487.3417,5.6864977588915835,-2.314939764185864,-11.663087955626093,-5.61297220345688,71.62199999997392
312487.3427,6.840486829493895,-1.4932237056434416,-11.189975234382256,-4.1936995815062295,71.62299999996321
312487.3437,7.999817045787612,-0.581373967756663,-10.4172723400035,-2.6483787141641972,71.62400000001071
312487.3447,9.212777759449331,0.4539564988902359,-9.311317030319737,-0.9618940641315984,71.625
312487.3457,10.507923357649855,1.6285005599785984,-7.862427582430257,0.8637276322759451,71.62599999998929
312487.3467,11.891254668002304,2.9384909159270163,-6.086816147640406,2.8079635660662756,71.62699999997858
312487.3477,13.34578456671623,4.360819913094317,-4.026169591420193,4.832398030961533,71.62799999996787
312487.3487,14.833468729738081,5.855189323790581,-1.7449535704802126,6.883215352041292,71.62899999995716
312487.3497,16.299256558732445,7.367998415215194,0.6742882723694018,8.89532799242051,71.63000000000466
312487.3507,17.676817982359818,8.837549706729126,3.137179937179143,10.797724093613642,71.63099999999395
312487.3517,18.895348047709888,10.200026304006832,5.544701427323302,12.519499493793981,71.63199999998324
312487.3527,19.8867574031372,11.395624703901248,7.800635477559379,13.995973610423755,71.63299999997253
312487.3537,20.592531434606048,12.374219043859801,9.818573497476201,15.174282757309749,71.63399999996182
312487.3547,20.969585733946772,13.099987307363044,11.527835351157902,16.017898862320273,71.63500000000931
312487.3557,20.994555668984823,13.55454118301446,12.877774267511706,16.509630590174318,71.6359999999986
312487.3567,20.66612168084678,13.738257703150941,13.840105912736936,16.652816600566556,71.63699999998789
312487.3577,20.005172955706456,13.669696599646707,14.409102609076188,16.47060183381966,71.63799999997718
312487.3587,19.052830172257043,13.383183780970386,14.599709650223684,16.003379273045564,71.63899999996647
312487.3597,17.866561429622973,12.924828717536172,14.44384907352051,15.3046625335214,71.63999999995576
312487.3607,16.514813117949792,12.347403032629405,13.985356287772783,14.435810697340322,71.64100000000326
312487.3617,15.070720970055403,11.704623254147657,13.274128617911698,13.460140528963462,71.64199999999255
312487.3627,13.605551858015115,11.045440899958338,12.360138701065907,12.437021254521254,71.64299999998184
312487.3637,12.18254593345263,10.408941796843553,11.287972270232862,11.416547457107026,71.64399999997113
312487.3647,10.851779930494699,9.820393857339523,10.092488398147317,10.435326233076886,71.64499999996042
312487.3657,9.64656108080827,9.288864679029498,8.796076745681242,9.51380139513558,71.64600000000792
312487.3667,8.581698573168618,8.806669025974918,7.407812998460364,8.655381377522453,71.6469999999972
312487.3677,7.653802341793464,8.350717605925079,5.9246077696158626,7.847454040540556,71.6479999999865
312487.3687,6.8435471366529965,7.885641452672382,4.3342264589526724,7.0641789802467105,71.64899999997579
312487.3697,6.119634717569747,7.368380460640584,2.619849908640051,6.270765385572568,71.64999999996508
312487.3707,5.44400935771514,6.753768960141807,0.7656693922793467,5.428789196015657,71.65100000001257
312487.3717,4.7777496535576,6.000541530177256,-1.2371171846910112,4.50199283308649,71.65200000000186
312487.3727,4.086986416182132,5.077129904463177,-3.3846044578027814,3.4619553929829188,71.65299999999115
312487.3737,3.3481897986577764,3.9666325892228893,-5.655463577508605,2.2930268031977348,71.65399999998044
312487.3747,2.5522297926837982,2.6704121996384282,-8.007822138484418,0.9959859823934778,71.65499999996973
312487.3757,1.7067370406827385,1.20990483121541,-10.378208378195962,-0.40999559013088044,71.65599999995902
312487.3767,0.8364635760985927,-0.37360129861632707,-12.682833583970375,-1.8873388305908723,71.65700000000652
312487.3777,-0.01845140938692012,-2.0212609165804882,-14.821259043773349,-3.3820524031869965,71.65799999999581
312487.3787,-0.8061877863776828,-3.6608763415337346,-16.682254881842603,-4.8275995663458815,71.6589999999851
312487.3797,-1.468591213560523,-5.212653616157012,-18.151431008099284,-6.150307817432188,71.65999999997439
312487.3807,-1.9476507820386562,-6.595990515051345,-19.12002762281206,-7.275832582179445,71.66099999996368
312487.3817,-2.192468407037027,-7.73666407499077,-19.49411367006435,-8.136071844167331,71.66200000001118
312487.3827,-2.1660131694283535,-8.573732944510736,-19.20337079076363,-8.675871578474402,71.66300000000047
312487.3837,-1.8509555360919505,-9.065483694013212,-18.208645751674634,-8.85886823394523,71.66399999998976
312487.3847,-1.2539480580263977,-9.193829605992407,-16.507536841286843,-8.67188424834283,71.66499999997905
312487.3857,-0.40785445266489223,-8.96670828846712,-14.137432757758921,-8.127419459150552,71.66599999996834
312487.3867,0.6283846914470567,-8.41820785625088,-11.175632680310526,-7.263953477450245,71.66699999995762
312487.3877,1.7723417024535832,-7.606362984736849,-7.736424536608319,-6.1439753444477105,71.66800000000512
312487.3887,2.9230073434409802,-6.608781567015684,-3.965262170891425,-4.849867911428652,71.66899999999441
312487.3897,3.9676505956262362,-5.516468804585961,-0.03043675215956371,-3.4779751532512675,71.6699999999837
312487.3907,4.790081234619386,-4.426388314767121,3.887140395808887,-2.13135174760663,71.67099999997299
312487.3917,5.279623943031768,-3.4334223676906075,7.605258062327906,-0.9118192444031715,71.67199999996228
312487.3927,5.340036832110341,-2.622453611415805,10.951944036456817,0.08798003951793472,71.67300000000978
312487.3937,4.897602789249089,-2.0612825654814935,13.776317657557707,0.7918380662076767,71.67399999999907
312487.3947,3.9076895842082497,-1.7950193587737149,15.957910910820164,1.1459143136268475,71.67499999998836
312487.3957,2.359207704943904,-1.8424518541638508,17.413747276937993,1.1228377151908342,71.67599999997765
312487.3967,0.27658063160875007,-2.1947085445620393,18.102663514245037,0.7236359641208641,71.67699999996694
312487.3977,-2.2809372305715057,-2.81632115506897,18.0265985494103,-0.022650411458177925,71.67799999995623
312487.3987,-5.222525699601771,-3.6485693620554254,17.228833142206053,-1.061601655704044,71.67900000000373
312487.3997,-8.431352677857845,-4.6147799163036805,15.789419724930246,-2.3180311820968034,71.67999999999302
312487.4007,-11.771927618529412,-5.627074947425274,13.818270213088871,-3.7021345136661914,71.6809999999823
312487.4017,-15.098619415626063,-6.593936293247376,11.44655000272722,-5.116603466545209,71.6819999999716
312487.4027,-18.264619478459757,-7.427886386533975,8.817143091384182,-6.464061356226166,71.68299999996088
312487.4037,-21.13061582105994,-8.052587496548487,6.074996946307495,-7.654164432983867,71.68400000000838
312487.4047,-23.572498397096208,-8.40872926062687,3.3581242554593116,-8.609766556992895,71.68499999999767
312487.4057,-25.487532973054797,-8.458202185900916,0.7899371858379721,-9.271652198650452,71.68599999998696
312487.4067,-26.798607742459076,-8.186229076400782,-1.5265699445180354,-9.601495617833667,71.68699999997625
312487.4077,-27.456356024247622,-7.601329581513084,-3.512474397531276,-9.582885693016175,71.68799999996554
312487.4087,-27.439169156916737,-6.733204981949413,-5.114320895846215,-9.220447848136313,71.68900000001304
312487.4097,-26.751314618833508,-5.628829948917608,-6.303384263245237,-8.537277599918497,71.69000000000233
312487.4107,-25.419545304021657,-4.347205743622281,-7.073118714126475,-7.571056319504107,71.69099999999162
312487.4117,-23.488709935602788,-2.953348909089854,-7.435266741586607,-6.3693337286170495,71.69199999998091
312487.4127,-21.016940007952627,-1.5121496091945397,-7.415197444192697,-4.984522738901915,71.6929999999702
312487.4137,-18.07098980672175,-0.08272907318020462,-7.04707689795708,-3.469155277276729,71.69399999995949
312487.4147,-14.722244074911796,1.2861427017481675,-6.369440555533059,-1.8718934519055679,71.69500000000698
312487.4157,-11.043790445113107,2.5591322141345842,-5.421645073260809,-0.2346853530570169,71.69599999999627
312487.4167,-7.108794250441246,3.7156612657302253,-4.241535905269028,1.408689392862132,71.69699999998556
312487.4177,-2.9902294989723526,4.749382905473961,-2.8644937271352937,3.032606946643273,71.69799999997485
312487.4187,1.2381681195560796,5.665936997924173,-1.3238365930182416,4.6182155814923895,71.69899999996414
312487.4197,5.500031692337745,6.479292413869618,0.3476239149885673,6.150938080763925,71.70000000001164
312487.4207,9.714018399211469,7.207134239939964,2.1152260520821944,7.617248772974216,71.70100000000093
312487.4217,13.791516235429533,7.865857365061758,3.939762812743903,9.001201997883685,71.70199999999022
312487.4227,17.63495307557358,8.46577190545384,5.774963930019256,10.281224420627597,71.70299999997951
312487.4237,21.1372188490428,9.00710668080576,7.5656631800699605,11.427662684949148,71.7039999999688
312487.4247,24.18260978214371,9.477316203613533,9.247091435617481,12.401502256872417,71.70499999995809
312487.4257,26.64954949932118,9.85006238535836,10.745614545604107,13.154550375579683,71.70600000000559
312487.4267,28.415150082118306,10.086067728171004,11.981072598356231,13.63121805568588,71.70699999999488
312487.4277,29.36146584628601,10.135839504158707,12.870690287071664,13.771858952030476,71.70799999998417
312487.4287,29.383084738299356,9.944063981294182,13.33433647753905,13.517444537093974,71.70899999997346
312487.4297,28.395518180347977,9.455286178640144,13.30073496696495,12.815193680125088,71.70999999996275
312487.4307,26.343709330500488,8.6203424086306,12.71408682796854,11.624647095023784,71.71100000001024
312487.4317,23.209897715534627,7.402915120025874,11.540473468926912,9.92359685081466,71.71199999999953
312487.4327,19.020065357026546,5.78554259698898,9.773379622964608,7.713257351868869,71.71299999998882
312487.4337,13.84824978703777,3.774444366354573,7.437711957178693,5.022100639198997,71.71399999997811
312487.4347,7.818139831092088,1.4026148914828986,4.591790383345425,1.9078734766447094,71.7149999999674
312487.4357,1.1015611310806868,-1.2692146928438497,1.3269474680742344,-1.5425412677854344,71.7159999999567
312487.4367,-6.086305404223259,-4.153957833741138,-2.2354272149429635,-5.215573686252043,71.71700000000419
312487.4377,-13.494867753058676,-7.14189416677548,-5.949334734882007,-8.975677202671266,71.71799999999348
312487.4387,-20.848861559912187,-10.106510848962733,-9.651813621159839,-12.67204498108311,71.71899999998277
312487.4397,-27.861273367207048,-12.91204141165993,-13.172281693218096,-16.146888125604786,71.71999999997206
312487.4407,-34.24763934782563,-15.422114134386115,-16.342896602797897,-19.244677706416915,71.72099999996135
312487.4417,-39.740773808937064,-17.508808077659232,-19.009143192042142,-21.82164922185239,71.72200000000885
312487.4427,-44.104920268527835,-19.0613643148751,-21.039809011678244,-23.75482549339096,71.72299999999814
312487.4437,-47.14833847691538,-19.993817975168717,-22.335537358498758,-24.949837122243107,71.72399999998743
312487.4447,-48.73344281711569,-20.250902364788193,-22.835248894499994,-25.346907334603817,71.72499999997672
312487.4457,-48.78378320769381,-19.81172215697185,-22.519890198362834,-24.924513065152766,71.725999999966
312487.4467,-47.28739442358717,-18.690885164532855,-21.41318604104562,-23.700423799749995,71.7269999999553
312487.4477,-44.29631373424165,-16.937003764038852,-19.5793223205357,-21.730037068483355,71.7280000000028
312487.4487,-39.92235643489189,-14.628707033338962,-17.117745780804185,-19.10215490208166,71.72899999999208
312487.4497,-34.329519271837135,-11.868521648491194,-14.15551115852468,-15.932558541608145,71.72999999998137
312487.4507,-27.723628839504077,-8.775163317836233,-10.837813730432988,-12.35591981737523,71.73099999997066
312487.4517,-20.340044728340494,-5.474913915436575,-7.317496219336043,-8.516720417277876,71.73199999995995
312487.4527,-12.430349506405715,-2.0928302133576664,-3.74439971304707,-4.559922780020963,71.73300000000745
312487.4537,-4.248999972761216,1.2554681213071424,-0.25543127297307744,-0.6221422510159951,71.73399999999674
312487.4547,3.9591257026972295,4.47075054832951,3.033853850650511,3.1759906540693006,71.73499999998603
312487.4557,11.969467095488353,7.475315847710428,6.035502840688659,6.735710362195616,71.73599999997532
312487.4567,19.58617056821594,10.215946758262525,8.692798399761074,9.983841282802993,71.73699999996461
312487.4577,26.647720330637785,12.664515411209457,10.981063889696918,12.874172832408133,71.73800000001211
312487.4587,33.029657094518065,14.81629769812809,12.905685368750959,15.386505228536077,71.7390000000014
312487.4597,38.64448474875065,16.686266997666472,14.497642168148959,17.523595488605043,71.73999999999069
312487.4607,43.43909840730993,18.303820327363574,15.807053223448008,19.30641522330708,71.74099999997998
312487.4617,47.39025750534968,19.706525868620524,16.895411121389767,20.76827077958144,71.74199999996927
312487.4627,50.498759182572186,20.933557479743246,17.82727513485168,21.948419687843515,71.74299999995856
312487.4637,52.78302983219559,22.019492650509157,18.662220146060623,22.88583829534611,71.74400000000605
312487.4647,54.27284309556888,22.989095193739136,19.447789135366428,23.613753107599525,71.74499999999534
312487.4657,55.00379447560161,23.853589064822987,20.214078803403567,24.155448014104927,71.74599999998463
312487.4667,55.01302640142935,24.60876706407761,20.970413350292674,24.521712090402847,71.74699999997392
312487.4677,54.336518698456686,25.235084377041456,21.70434813439826,24.71011333126256,71.74799999996321
312487.4687,53.00805748434558,25.699681414197155,22.38301402181533,24.706090670973786,71.74900000001071
312487.4697,51.0597918088584,25.960083669835353,22.956587253495098,24.485669276315193,71.75
312487.4707,48.5241028426214,25.969157738858076,23.363470330984672,24.01944084286747,71.75099999998929
312487.4717,45.436363657221065,25.680778681200394,23.53661557873307,23.27732735915788,71.75199999997858
312487.4727,41.83807297894522,25.05559653434393,23.410328797844755,22.233575243336038,71.75299999996787
312487.4737,37.77981251205486,24.066285178732603,22.926863864894894,20.871413342867424,71.75399999995716
312487.4747,33.32350689835621,22.701714910774633,22.042161568699257,19.186853584084457,71.75500000000466
312487.4757,28.543553939520717,20.96960467724815,20.730191912522056,17.191211743683528,71.75599999999395
312487.4767,23.526530124914633,18.89736907775289,18.985516818093853,14.912067249334225,71.75699999998324
312487.4777,18.369347574350634,16.5310626530251,16.823882928300442,12.392550237559108,71.75799999997253
312487.4787,13.175924621589648,13.932520582561002,14.280861991224988,9.689023721559856,71.75899999996182
312487.4797,8.052613347754153,11.174980784636686,11.408757803225507,6.867400119503373,71.76000000000931
312487.4807,3.102783912604075,8.337628733954181,8.272173417588707,3.9984769468615253,71.7609999999986
312487.4817,-1.5789194231406447,5.499617267628649,4.942762691983784,1.1527812445068477,71.76199999998789
312487.4827,-5.91207479587373,2.7341679889500954,1.4937632819286804,-1.6045344676804034,71.76299999997718
312487.4837,-9.835156290379834,0.10335304327042304,-2.0050831735475345,-4.2182057633111185,71.76399999996647
312487.4847,-13.30887135968393,-2.3459132729950434,-5.491674145151237,-6.646301057953568,71.76499999995576
312487.4857,-16.31776749981262,-4.584267514519394,-8.914317955940811,-8.862230448605642,71.76600000000326
312487.4867,-18.869876889317474,-6.600435242787563,-12.232860943940238,-10.855102218315094,71.76699999999255
312487.4877,-20.994359529247163,-8.399866485984646,-15.418087757794797,-12.628385302270317,71.76799999998184
312487.4887,-22.73730641152571,-10.001618462980618,-18.44951295708115,-14.19701694293395,71.76899999997113
312487.4897,-24.156053925877547,-11.43381952915784,-21.311870989894736,-15.583263315960997,71.76999999996042
312487.4907,-25.312519536089617,-12.72819976648611,-23.9907689712791,-16.811779635511744,71.77100000000792
312487.4917,-26.26618006775843,-13.91427701008275,-26.46807560080756,-17.904410591010183,71.7719999999972
312487.4927,-27.067365700804974,-15.013831534305693,-28.717667976058863,-18.875311738207074,71.7729999999865
312487.4937,-27.75152873562602,-16.03628307908798,-30.702139989687577,-19.726952884675246,71.77399999997579
312487.4947,-28.335066683736056,-16.975501678715165,-32.37099216200922,-20.44748670836098,71.77499999996508
312487.4957,-28.813141020925453,-17.8084463882045,-33.66068057014453,-21.009836801946868,71.77600000001257
312487.4967,-29.159748724660865,-18.49584653392407,-34.49671540768175,-21.372691207856917,71.77700000000186
312487.4977,-29.330090874396255,-18.984935859162263,-34.79778579086253,-21.48339648489965,71.77799999999115
312487.4987,-29.26506151273319,-19.21404080071074,-34.48166783561008,-21.28255207387698,71.77899999998044
312487.4997,-28.897472071398223,-19.11863069117172,-33.4724697936618,-20.709924498979074,71.77999999996973
312487.5007,-28.159452328643468,-18.6382791646244,-31.708601931505246,-19.711153807033224,71.78099999995902
312487.5017,-26.99034539888096,-17.723878456211818,-29.15074732308479,-18.244625640846863,71.78200000000652
312487.5027,-25.34435420545848,-16.344402828053926,-25.789065194133556,-16.287841982257472,71.78299999999581
312487.5037,-23.197206764883745,-14.492539292405521,-21.648886939341516,-13.842646815997524,71.7839999999851
312487.5047,-20.55118721154497,-12.188591919163267,-16.794265448688787,-10.938748570446512,71.78499999997439
312487.5057,-17.43802186521674,-9.482212673535667,-11.328902928594522,-7.635121941579568,71.78599999996368
312487.5067,-13.919301719180035,-6.451703573434852,-5.394196670733772,-4.01905495112861,71.78700000001118
312487.5077,-10.084346545056855,-3.200854158487799,0.8356131103392197,-0.2028159541821516,71.78800000000047
312487.5087,-6.045650238650731,0.14649577754133014,7.160956678430968,3.681869702071967,71.78899999998976
312487.5097,-1.932269800209157,3.4537669242956475,13.366635783180774,7.491142810233888,71.78999999997905
312487.5107,2.118289792661607,6.580246868874088,19.233039636711094,11.07757499598446,71.79099999996834
312487.5117,5.969003751262103,9.390289587899616,24.54806106843193,14.2992982713683,71.79199999995762
312487.5127,9.492303136739741,11.76234441356667,29.118826441960163,17.028964885734094,71.79300000000512
312487.5137,12.578329429251731,13.597059702331762,32.782358918359606,19.16181135655108,71.79399999999441
312487.5147,15.141768030949503,14.823784505086392,35.41437807836893,20.622174723262056,71.7949999999837
312487.5157,17.12669430455388,15.404931646987814,36.9355922795862,21.367942116967406,71.79599999997299
312487.5167,18.509051341521364,15.337854660301817,37.315049340946075,21.39259426199868,71.79699999996228
312487.5177,19.296598322816145,14.654111203614333,36.570356896328605,20.724712714337716,71.79800000000978
312487.5187,19.526400907238386,13.416216226512937,34.76484334290465,19.42503991569015,71.79899999999907
312487.5197,19.26015821995387,11.712207528176021,32.00197983385486,17.581390034192395,71.79999999998836
312487.5207,18.577853396990214,9.648533971746154,28.41760043263808,15.301887688758677,71.80099999997765
312487.5217,17.57035804014299,7.341915020618508,24.170621833106473,12.707144569144125,71.80199999996694
312487.5227,16.331701975554612,4.910896800847915,19.4330615527078,9.922058729444544,71.80299999995623
312487.5237,14.951731150517771,2.467837890434403,14.380176283302466,7.067931642108463,71.80400000000373
312487.5247,13.509817926639858,0.11199742229138195,9.181489367683977,4.255543854016269,71.80499999999302
312487.5257,12.070165843349589,-2.075724615347484,3.993354581498232,1.5797173697955817,71.8059999999823
312487.5267,10.679077720501555,-4.036017332333064,-1.0464745233902677,-0.8842666567702363,71.8069999999716
312487.5277,9.36434925158633,-5.73218639911762,-5.8220163624423735,-3.082216672449162,71.80799999996088
312487.5287,8.136730709096714,-7.149023363715385,-10.23995310154364,-4.980569920941105,71.80900000000838
312487.5297,6.9931888900850625,-8.289769318207563,-14.228447240473912,-6.564140446765955,71.80999999999767
312487.5307,5.921520822826633,-9.17160442483606,-17.734285085198962,-7.832461862479095,71.81099999998696
312487.5317,4.9057378384896975,-9.820227498134946,-20.718899099099602,-8.795235612109591,71.81199999997625
312487.5327,3.9315663979597266,-10.264163674527543,-23.15390951584081,-9.46746571889013,71.81299999996554
312487.5337,2.99140750553935,-10.529446539051262,-25.016844603574807,-9.864870508007952,71.81400000001304
312487.5347,2.0881598567587796,-10.635263778002088,-26.287647657865005,-10.000110367346032,71.81500000000233
312487.5357,1.237436533402172,-10.59103883056965,-26.946463236002053,-9.880264109752163,71.81599999999162
312487.5367,0.46787846432151914,-10.395257298052805,-26.973027769961305,-9.505836216681821,71.81699999998091
312487.5377,-0.18052742877295613,-10.036152817241229,-26.347788077356938,-8.87139875262347,71.8179999999702
312487.5387,-0.6600020359101699,-9.494162425699557,-25.054656375137025,-7.967783354263077,71.81899999995949
312487.5397,-0.9200718838443893,-8.74586682323761,-23.085104433917188,-6.78555964452568,71.82000000000698
312487.5407,-0.913709931378626,-7.76896597350308,-20.44312382996915,-5.3193849376778095,71.82099999999627
312487.5417,-0.6038940887594328,-6.547721793001646,-17.150452173875646,-3.5727016371462312,71.82199999998556
312487.5427,0.030104386220810526,-5.078239205947242,-13.251400197864971,-1.562204422708134,71.82299999997485
312487.5437,0.9873848503151131,-3.3729607619874162,-8.81661896564487,0.6784950840505583,71.82399999996414
312487.5447,2.2416420876770515,-1.4638180826974745,-3.9452206128103735,3.0965132214552975,71.82500000001164
312487.5457,3.7394253704344207,0.5963909751401347,1.2351966517266773,5.619037020546089,71.82600000000093
312487.5467,5.400721519407738,2.7346596707051054,6.570880972823337,8.154592216403685,71.82699999999022
312487.5477,7.121937102352242,4.860525110161479,11.886658557247003,10.596276807391932,71.82799999997951
312487.5487,8.781129956134585,6.870768970315154,16.99287574477332,12.826805218337157,71.8289999999688
312487.5497,10.245126610676545,8.655722185267503,21.69414337842885,14.725024057944996,71.82999999995809
312487.5507,11.377980538173286,10.106663920950052,25.79928946961355,16.173405705236053,71.83100000000559
312487.5517,12.050093993947021,11.123686894389584,29.13179189777578,17.065915881109245,71.83199999999488
312487.5527,12.147256328281811,11.623341979023722,31.53989386650592,17.31559702818527,71.83299999998417
312487.5537,11.578850799178714,11.545381096140341,32.90560834192581,16.861216422748765,71.83399999997346
312487.5547,10.28455021519348,10.857988308139994,33.15189400652964,15.672396224043208,71.83499999996275
312487.5557,8.238952636308511,9.561018177738609,32.24742760749366,13.752765952869824,71.83600000001024
312487.5567,5.453789294329271,7.686935555465666,30.208592802651467,11.140844680237635,71.83699999999953
312487.5577,1.9775505123010468,5.299355264359578,27.098535436555224,7.908554781965879,71.83799999998882
312487.5587,-2.107398733748375,2.489294101901178,23.023378015355462,4.157473075811559,71.83899999997811
312487.5597,-6.689925386354835,-0.630549298313458,18.125919186404765,0.01311920919124925,71.8399999999674
312487.5607,-11.636982003054635,-3.9329982902497402,12.577345485463596,-4.382253001041286,71.8409999999567
312487.5617,-16.801593080146684,-7.284470963443381,6.567633862839659,-8.877773500195289,71.84200000000419
312487.5627,-22.03128009045912,-10.553239167650519,0.29541087402037564,-13.322328366523347,71.84299999999348
312487.5637,-27.176218804581374,-13.617187784492957,-6.041949469824012,-17.57252564688519,71.84399999998277
312487.5647,-32.0964770745028,-16.3704491183962,-12.257262778117884,-21.499648422914344,71.84499999997206
312487.5657,-36.667796636570394,-18.72840598308569,-18.18090061320423,-24.99509856427881,71.84599999996135
312487.5667,-40.78554635541884,-20.63072148610306,-23.666153512915336,-27.97398804475499,71.84700000000885
312487.5677,-44.366669724970976,-22.042247198973314,-28.592365846827487,-30.376716457175878,71.84799999999814
312487.5687,-47.34965644255054,-22.95186514216843,-32.86583903526471,-32.168565449476795,71.84899999998743
312487.5697,-49.69276558341352,-23.36951277912439,-36.41871271646696,-33.337524362242334,71.84999999997672
312487.5707,-51.3708965479116,-23.321805123073542,-39.206217276017746,-33.89071855208185,71.850999999966
312487.5717,-52.37162683848068,-22.84678824899571,-41.20282802305286,-33.849927692010326,71.8519999999553
312487.5727,-52.69100089228493,-21.988422671262107,-42.39792837967209,-33.24674496185663,71.8530000000028
312487.5737,-52.32965560334061,-20.791397553375255,-42.79160004837059,-32.11793398708888,71.85399999999208
312487.5747,-51.28980626488333,-19.296818098585756,-42.3911022962234,-30.50148896841103,71.85499999998137
312487.5757,-49.57349832536007,-17.539195357622116,-41.20848700275467,-28.433800719439827,71.85599999997066
312487.5767,-47.182368177699566,-15.545012106166576,-39.259633702407726,-25.948188447149633,71.85699999995995
312487.5777,-44.11896723815976,-13.332956585111482,-36.56479693227942,-23.074889179449375,71.85800000000745
312487.5787,-40.38950760228849,-10.915726497498971,-33.15055711044407,-19.842421307538793,71.85899999999674
312487.5797,-36.00770513315447,-8.303128122765258,-29.052877139288096,-16.280073979945392,71.85999999998603
312487.5807,-30.999246187070963,-5.506047885958111,-24.32080993455821,-12.421137124830825,71.86099999997532
312487.5817,-25.406303339684996,-2.540771292810311,-19.020293882037752,-8.306391905505675,71.86199999996461
312487.5827,-19.291484635899355,0.5669226522705432,-13.237425686534861,-3.987338391589944,71.86300000001211
312487.5837,-12.740625280556293,3.7784496401085503,-7.080618994459241,0.47134912996752903,71.8640000000014
312487.5847,-5.863919025719237,7.040375713527735,-0.6811416722308868,4.990579472754405,71.86499999999069
312487.5857,1.2049689244202801,10.283999629978165,5.80833275968374,9.477136413223324,71.86599999997998
312487.5867,8.311978314135759,13.426755562801752,12.217336663066332,13.825671206976631,71.86699999996927
312487.5877,15.287878094305565,16.37544058169448,18.36334575567282,17.922384042454627,71.86799999995856
312487.5887,21.95538050289695,19.031077446592445,24.059385400019355,21.650200630137316,71.86900000000605
312487.5897,28.137687360108853,21.29504409130407,29.12304428568045,24.895082125833415,71.86999999999534
312487.5907,33.66784839892527,23.075954905426062,33.386266055383466,27.55296979668292,71.87099999998463
312487.5917,38.39820256093322,24.296680574923847,36.70517491121344,29.536774467799283,71.87199999997392
312487.5927,42.20912969429408,24.900853238525546,38.969142548102035,30.782784716957032,71.87299999996321
312487.5937,45.016367562867764,24.85822683401549,40.10832704756192,31.255891569517928,71.87400000001071
312487.5947,46.776246329463255,24.168347374922433,40.099008974819554,30.953109834947103,71.875
312487.5957,47.48835182843417,22.862127101474105,38.96620841826844,29.90501024842525,71.87599999998929
312487.5967,47.19533610926836,21.001097231008476,36.78327553042512,28.174850189452453,71.87699999997858
312487.5977,45.97983031468075,18.674319506199254,33.668387848304285,25.855387964740043,71.87799999996787
312487.5987,43.9586593905654,15.993147516446736,29.778138725705613,23.0635680835242,71.87899999995716
312487.5997,41.274787928949074,13.084224831149363,25.298639933847763,19.93345360410066,71.88000000000466
312487.6007,38.087620362219454,10.081269623530357,20.434766250444444,16.607938675007897,71.88099999999395
312487.6017,34.562418759448896,7.1163090905965465,15.39832210919341,13.229884936480046,71.88199999998324
312487.6027,30.859674607962113,4.311080629787465,10.395996393031048,9.933378947941637,71.88299999997253
312487.6037,27.125270407614668,1.769305149497846,5.617983599891573,6.835799097330989,71.88399999996182
312487.6047,23.482192747988964,-0.4295379950901445,1.2280870619956052,4.031310225688143,71.88500000000931
312487.6057,20.024417726129432,-2.2344380888711197,-2.644011322652572,1.5862789574778677,71.8859999999986
312487.6067,16.81339522899623,-3.6247637249544713,-5.907818020994069,-0.4630658789078565,71.88699999998789
312487.6077,13.877328811790685,-4.609744578397469,-8.514161351931065,-2.1105996226669768,71.88799999997718
312487.6087,11.213203911243806,-5.225626486947805,-10.454366498087424,-3.3779725100648315,71.88899999996647
312487.6097,8.791281375326488,-5.530805313108651,-11.756688262355663,-4.3102583858832055,71.88999999995576
312487.6107,6.561567243729707,-5.599417972395575,-12.480433678495807,-4.970023424785713,71.89100000000326
312487.6117,4.461611865801877,-5.513995577364349,-12.708378219659306,-5.43038233874097,71.89199999999255
312487.6127,2.424895561833396,-5.357852387227923,-12.538192228632271,-5.767680912329647,71.89299999998184
312487.6137,0.389031893563882,-5.207889289262777,-12.073639526603719,-6.054455083070072,71.89399999997113
312487.6147,-1.6969356964250433,-5.128432141369409,-11.41628562133089,-6.353268018910073,71.89499999996042
312487.6157,-3.8667582149690416,-5.166609847883535,-10.65836281717224,-6.711923329204633,71.89600000000792
312487.6167,-6.1331773792299655,-5.34961635511338,-9.87729422783425,-7.160405433359594,71.8969999999972
312487.6177,-8.486344555628161,-5.684010955219315,-9.132193641470442,-7.7097220488411695,71.8979999999865
312487.6187,-10.894495956575804,-6.157011184691415,-8.462452301397537,-8.35263621716652,71.89899999997579
312487.6197,-13.306704712880581,-6.739541842998959,-7.88831746281594,-9.066094638272393,71.89999999996508
312487.6207,-15.65734204979711,-7.390640790674908,-7.413181172416625,-9.815002811020658,71.90100000001257
312487.6217,-17.871733575950266,-8.06270285242175,-7.027148824567172,-10.556880459407578,71.90200000000186
312487.6227,-19.872405794064367,-8.706978542748647,-6.711359314000187,-11.246863790523275,71.90299999999115
312487.6237,-21.58528982396078,-9.278740107056526,-6.442490273847508,-11.842510018466378,71.90399999998044
312487.6247,-22.945285109606235,-9.741583112274435,-6.196905044608102,-12.307904402796998,71.90499999996973
312487.6257,-23.900680307061034,-10.070441098135815,-5.953978447187709,-12.616665282852987,71.90599999995902
312487.6267,-24.41607059256663,-10.253041832866955,-5.698266102205622,-12.753577698556299,71.90700000000652
312487.6277,-24.473584665593233,-10.2897105717109,-5.4203421822966344,-12.714746678894382,71.90799999999581
312487.6287,-24.072422150495644,-10.191609918590695,-5.116305154473332,-12.506330177928518,71.9089999999851
312487.6297,-23.226883253422248,-9.977678292883857,-4.786121005541722,-12.142071217886627,71.90999999997439
312487.6307,-21.96322866912067,-9.670671721733443,-4.431120076435374,-11.639982378248737,71.91099999996368
312487.6317,-20.315822936551694,-9.292811906506493,-4.051071010421207,-11.018629407401646,71.91200000001118
312487.6327,-18.323077207499907,-8.861587022222269,-3.641311765808634,-10.29350464645298,71.91300000000047
312487.6337,-16.023711764341122,-8.38623589600233,-3.1904169579452106,-9.473970517215317,71.91399999998976
312487.6347,-13.45380476884118,-7.865372569856056,-2.678822904627093,-8.5611895468486,71.91499999997905
312487.6357,-10.644987880934341,-7.286084241531303,-2.078722715299007,-7.547346830682276,71.91599999996834
312487.6367,-7.62400319920008,-6.624673873429353,-1.3553951601598289,-6.416324909897997,71.91699999995762
312487.6377,-4.413665286559668,-5.849035994142131,-0.4699587697806968,-5.145824934834492,71.91800000000512
312487.6387,-1.0350952692346016,-4.922469299784912,0.6166347866563783,-3.7107590720244636,71.91899999999441
312487.6397,2.489069767094496,-3.808561874564307,1.9387171971658548,-2.0875852080468715,71.9199999999837
312487.6407,6.130921782286767,-2.4766518940638025,3.5206099579870753,-0.2591325479652171,71.92099999997299
312487.6417,9.853498230735473,-0.9072828739064867,5.371484574933926,1.7806109102987293,71.92199999996228
312487.6427,13.607518639884903,0.9029526414238321,7.480966561569127,4.022301865387735,71.92300000000978
312487.6437,17.329161491103363,2.9377499446702924,9.816037609852637,6.438155447499651,71.92399999999907
312487.6447,20.93931461811944,5.159081789818734,12.31969455603774,8.980399738088847,71.92499999998836
312487.6457,24.344594689082694,7.507165128919623,14.911675949110268,11.581565487793258,71.92599999997765
312487.6467,27.44025606828432,9.902544256413583,17.49138060919552,14.156734615525318,71.92699999996694
312487.6477,30.11491358956916,12.250225113929224,19.942895150178845,16.607681871196817,71.92799999995623
312487.6487,32.25680702473313,14.445591380646743,22.141839093789915,18.82865487836334,71.92900000000373
312487.6497,33.76115726483346,16.381649378151945,23.96354747313805,20.713367314247797,71.92999999999302
312487.6507,34.53802389276513,17.957004121222653,25.29196073752376,22.16264533922683,71.9309999999823
312487.6517,34.51998597790378,19.083877851727575,26.028495941551846,23.09208240319697,71.9319999999716
312487.6527,33.66894272416102,19.695454870514777,26.100142264151877,23.439031438108017,71.93299999996088
312487.6537,31.981372232206677,19.75187617315848,25.466062410549213,23.168299820484634,71.93400000000838
312487.6547,29.491492811255533,19.244311600930274,24.122087353518808,22.27600899967523,71.93499999999767
312487.6557,26.271933386630796,18.19669700734518,22.102656629725388,20.79122917591563,71.93599999998696
312487.6567,22.431723420125696,16.66492496075191,19.47996573314183,18.775186649094735,71.93699999997625
312487.6577,18.111639956475283,14.733501319442205,16.360317305715586,16.318050382219933,71.93799999996554
312487.6587,13.477178974339537,12.509905849047469,12.877912383064178,13.533515647029882,71.93900000001304
312487.6597,8.709628673011219,10.117101755620519,9.18653980472138,10.551596667143471,71.94000000000233
312487.6607,3.995893727800764,7.6848070876712296,5.4498053748907855,7.510198762059702,71.94099999999162
312487.6617,-0.48216456416312536,5.340254448042057,1.8306702152483783,4.546148676765411,71.94199999998091
312487.6627,-4.558058321892271,3.199213451996803,-1.5188721622092958,1.7864092909144433,71.9429999999702
312487.6637,-8.089882405944241,1.358028103205115,-4.467164073906637,-0.6598128483767297,71.94399999995949
312487.6647,-10.967705584863046,-0.11266942261731862,-6.910567322171245,-2.70744018729589,71.94500000000698
312487.6657,-13.118601701077058,-1.1720578948830114,-8.778883316277312,-4.299887658741348,71.94599999999627
312487.6667,-14.508982588468065,-1.8107252827322957,-10.03813234491916,-5.4111085849383205,71.94699999998556
312487.6677,-15.144127334128378,-2.049677089378133,-10.690548387431887,-6.045221897243173,71.94799999997485
312487.6687,-15.06504301558682,-1.9368972145838035,-10.771889822715796,-6.233833919097696,71.94899999996414
312487.6697,-14.343017976670843,-1.5418204940403835,-10.34639793222058,-6.031369299036657,71.95000000001164
312487.6707,-13.072419096239193,-0.9482577834070262,-9.499932717240988,-5.5088953142759935,71.95100000000093
312487.6717,-11.362421795194363,-0.24644437101014033,-8.331961065086421,-4.747046060369752,71.95199999999022
312487.6727,-9.328433218523324,0.4750512473052796,-6.947152533697752,-3.828716935377721,71.95299999997951
312487.6737,-7.083968881421631,1.1368243939955958,-5.447346097372966,-2.8321998714706194,71.9539999999688
312487.6747,-4.733671705385474,1.6748749923625137,-3.9245871669070134,-1.8253666410424416,71.95499999995809
312487.6757,-2.3680272209733144,2.045063068894748,-2.455805051678166,-0.8613879888372635,71.95600000000559
312487.6767,-0.060143302488432415,2.2254309637538956,-1.0995199954664343,0.023687584211405145,71.95699999999488
312487.6777,2.1352545553745004,2.2162555540901643,0.10524583282126092,0.8113635388594385,71.95799999998417
312487.6787,4.18068935860741,2.037914860430262,1.137906127435574,1.4992027941228325,71.95899999997346
312487.6797,6.052953296961447,1.7268628529086094,1.9933667846413057,2.0976728638224786,71.95999999996275
312487.6807,7.7387595216583165,1.33018397486654,2.677656182164016,2.6257499930120316,71.96100000001024
312487.6817,9.229634169825381,0.8993279183172173,3.202720832785867,3.105820459529943,71.96199999999953
312487.6827,10.51672674535388,0.48369340664916866,3.5810511201123973,3.558478165156636,71.96299999998882
312487.6837,11.58621559164452,0.1247310443573559,3.820805387917169,3.9978171378745593,71.96399999997811
312487.6847,12.415913718398402,-0.14882986623300348,3.9220344953466317,4.427756063010384,71.9649999999674
312487.6857,12.973545798232957,-0.3241503033254617,3.8744799868333177,4.839815941620404,71.9659999999567
312487.6867,13.216983068318006,-0.4055374542481782,3.6572404250342236,5.212613303031605,71.96700000000419
312487.6877,13.096507422273481,-0.41367956324470756,3.240390319663279,5.513146143817079,71.96799999999348
312487.6887,12.558950579223668,-0.38296176709802227,2.588415750572435,5.699756614136852,71.96899999998277
312487.6897,11.55334136557248,-0.35716340363388444,1.665122604507072,5.726472882322688,71.96999999997206
312487.6907,10.037515219013526,-0.38400427725984343,0.43949857100582174,5.5482808862984205,71.97099999996135
312487.6917,7.985013196470181,-0.5091263926390637,-1.1081132998788727,5.126770170530729,71.97200000000885
312487.6927,5.391536224634735,-0.7701569730826736,-2.9802305704335557,4.435547574018066,71.97299999999814
312487.6937,2.280230973620365,-1.1914923688790855,-5.157525751152339,3.464823486109348,71.97399999998743
312487.6947,-1.294833517626989,-1.7803714487257514,-7.595804704045226,2.224646946256115,71.97499999997672
312487.6957,-5.247491555194112,-2.524678395964056,-10.225128105597083,0.7463912431523322,71.975999999966
312487.6967,-9.460902531693044,-3.392741347085522,-12.951338265511444,-0.917741266535255,71.9769999999553
312487.6977,-13.791629832226576,-4.335192285395043,-15.660025536713919,-2.697233940372731,71.9780000000028
312487.6987,-18.076194118324345,-5.288745024783302,-18.222730976652596,-4.507630049508544,71.97899999999208
312487.6997,-22.139685910294588,-6.181552715830351,-20.50495780413768,-6.2564202228591554,71.97999999998137
312487.7007,-25.805823757005783,-6.939643508320805,-22.375375418966986,-7.849942347606145,71.98099999997066
312487.7017,-28.907698269479724,-7.493819031853175,-23.71546497726296,-9.200685248109032,71.98199999995995
312487.7027,-31.29836297370818,-7.786346630523273,-24.4287883761199,-10.234337150268047,71.98300000000745
312487.7037,-32.860428152350444,-7.776788308564785,-24.449070260018264,-10.895932470909408,71.98399999999674
312487.7047,-33.513884456503355,-7.446386148855579,-23.746365483483853,-11.154525025574404,71.98499999998603
312487.7057,-33.221522870533484,-6.80055822114071,-22.330735368148797,-11.005945464891617,71.98599999997532
312487.7067,-31.991513914851396,-5.869237710051581,-20.25306158980828,-10.473373394880454,71.98699999996461
312487.7077,-29.87694380487395,-4.704993784473591,-17.602867897634905,-9.60565378040343,71.98800000001211
312487.7087,-26.972357111669055,-3.379085531598836,-14.503274920987918,-8.473493842023206,71.9890000000014
312487.7097,-23.407601235627112,-1.9757993013854176,-11.10345853627889,-7.163870951670105,71.98999999999069
312487.7107,-19.339485332367303,-0.5855855778192203,-7.56919503397137,-5.773145403800851,71.99099999997998
312487.7117,-14.941935651639694,0.702372230578057,-4.072237104547723,-4.399488766878396,71.99199999996927
312487.7127,-10.395435661325234,1.8074693239695265,-0.7793588520164059,-3.135297696534968,71.99299999995856
312487.7137,-5.876573992028396,2.6641946247850528,2.1580726322604376,-2.060259099091374,71.99400000000605
312487.7147,-1.5484841916030583,3.227249096572664,4.613198329137726,-1.2356659770108962,71.99499999999534
312487.7157,2.4471474236640933,3.4748011987822918,6.490766972350826,-0.700460824259634,71.99599999998463
312487.7167,5.995994372193683,3.4095925655484787,7.731743666593815,-0.46931711759573436,71.99699999997392
312487.7177,9.014616775560555,3.0578135327222724,8.315161790982636,-0.532875518005361,71.99799999996321
312487.7187,11.451521071256561,2.465881905026183,8.257194896869377,-0.8600487048823066,71.99900000001071
312487.7197,13.285894443287969,1.6954585077177822,7.607663171308774,-1.402116916432142,72.0
312487.7207,14.524355291511226,0.8172001027377036,6.444400331097623,-2.0981737003844776,72.00099999998929
312487.7217,15.19621849413062,-0.09613207717304935,4.866072344911653,-2.881363564397095,72.00199999997858
312487.7227,15.3478753911116,-0.9765330079557482,2.984144658965197,-3.6852911673438484,72.00299999996787
312487.7237,15.036925051884003,-1.7669178746361054,0.9147311760459107,-4.449980901259099,72.00399999995716
312487.7247,14.326663830845995,-2.4259979045639892,-1.2289755512139982,-5.126825634576119,72.00500000000466
312487.7257,13.281449502682001,-2.9314086314527428,-3.3430924019485975,-5.682077522098071,72.00599999999395
312487.7267,11.96331556066988,-3.280807858323736,-5.337804177620969,-6.09859034918601,72.00699999998324
312487.7277,10.430036619202886,-3.4908643844740825,-7.140234453221415,-6.375705975072784,72.00799999997253
312487.7287,8.734656575729987,-3.594269385478268,-8.695377845221678,-6.527368658977727,72.00899999996182
312487.7297,6.926307774099731,-3.635099418153179,-9.965245902444181,-6.578731282445058,72.01000000000931
312487.7307,5.051991509829906,-3.663023966959759,-10.92655754833856,-6.561668803581884,72.0109999999986
312487.7317,3.1588745871755624,-3.7269651292388133,-11.567441620380713,-6.509721731614411,72.01199999998789
312487.7327,1.2965954595315208,-3.868871179965841,-11.88370041594675,-6.453045455828009,72.01299999997718
312487.7337,-0.48092686233931214,-4.118254042175964,-11.87520191363365,-6.413934816690014,72.01399999996647
312487.7347,-2.1146275214662493,-4.4880642697688,-11.542923625668596,-6.403428226130937,72.01499999995576
312487.7357,-3.540705799423993,-4.972343537096199,-10.887068498076841,-6.419378632238612,72.01600000000326
312487.7367,-4.692485208264305,-5.545916960124574,-9.906524461292975,-6.446221560449397,72.01699999999255
312487.7377,-5.503716330941298,-6.166183320668185,-8.59976040259293,-6.456489225109501,72.01799999998184
312487.7387,-5.9131270005328,-6.776850529663357,-6.967061788913043,-6.413932593788184,72.01899999997113
312487.7397,-5.869850822193567,-7.313267208481733,-5.013829311565734,-6.277939218419393,72.01999999996042
312487.7407,-5.339224980655597,-7.708838474204257,-2.7545131803069762,-6.008791280966647,72.02100000000792
312487.7417,-4.308357584646386,-7.901900993399175,-0.21665055664521451,-5.573210287271718,72.0219999999972
312487.7427,-2.790834467833299,-7.842380366596496,2.5555740286012343,-4.9495923665083765,72.0229999999865
312487.7437,-0.8299703706212568,-7.497568200974413,5.498809520847858,-4.132355896428981,72.02399999997579
312487.7447,1.4998918304512865,-6.856435607445881,8.529545648341756,-3.1348999121403773,72.02499999996508
312487.7457,4.094375781487246,-5.932036724682214,11.544996582663222,-1.990800343565396,72.02600000001257
312487.7467,6.822505909327942,-4.7617369867470885,14.42603200868597,-0.7530392595635603,72.02700000000186
312487.7477,9.53250719783794,-3.4052086196807916,17.042121630602022,0.5087463176782268,72.02799999999115
312487.7487,12.059673971886841,-1.9403500472731965,19.258048191683702,1.7128135208713198,72.02899999998044
312487.7497,14.235807679541908,-0.45748562160943634,20.941948431577043,2.7712969320495375,72.02999999996973
312487.7507,15.899559189887373,0.9476321304100368,21.97408110892983,3.5971137742161243,72.03099999995902
312487.7517,16.90690232347332,2.1813799432925696,22.255613191632904,4.111177724508984,72.03200000000652
312487.7527,17.140923750597675,3.1596890095051466,21.716671619971766,4.249264998475129,72.03299999999581
312487.7537,16.52014530797499,3.81465871017963,20.32293464051361,3.967895963764073,72.0339999999851
312487.7547,15.004696640757835,4.099757971970532,18.080132796712785,3.2486765365074906,72.03499999997439
312487.7557,12.599820571928355,3.9931496694836226,15.035987691422593,2.1006787222999908,72.03599999996368
312487.7567,9.356406423523227,3.4988545320043234,11.27932294209547,0.5606163111016578,72.03700000001118
312487.7577,5.3684886625083905,2.6456790712583165,6.93631780561067,-1.3092267657178123,72.03800000000047
312487.7587,0.7678978025230435,1.4840467560528872,2.164118100719145,-3.4251507625048876,72.03899999998976
312487.7597,-4.2835153039424325,0.0810719661191197,-2.857751432785757,-5.687919560061824,72.03999999997905
312487.7607,-9.603463256734798,-1.4856175163049903,-7.937535967101697,-7.989847583645828,72.04099999996834
312487.7617,-14.9998529810391,-3.134687938554558,-12.882184741736678,-10.222464904143008,72.04199999995762
312487.7627,-20.28162814136304,-4.787861495941853,-17.50822437242644,-12.284078943953418,72.04300000000512
312487.7637,-25.268987633626864,-6.37597064335879,-21.651730189146285,-14.0865635816714,72.04399999999441
312487.7647,-29.802219077624443,-7.8437220300194905,-25.176634945153715,-15.560782535579094,72.0449999999837
312487.7657,-33.74852763702431,-9.152724794653004,-27.980763077546158,-16.66018658993301,72.04599999997299
312487.7667,-37.00643533502344,-10.282520061983377,-29.99918234991422,-17.36230087703467,72.04699999996228
312487.7677,-39.507555715870225,-11.229557108987922,-31.204704347525787,-17.668022084802395,72.04800000000978
312487.7687,-41.215791387296996,-12.004276022802802,-31.605618605595065,-17.59885646241948,72.04899999999907
312487.7697,-42.12423466645122,-12.626655262475388,-31.24098842631465,-17.19242737272015,72.04999999998836
312487.7707,-42.25025227857535,-13.120745302015694,-30.174046849430596,-16.49674658962989,72.05099999997765
312487.7717,-41.62938500015603,-13.508819828924265,-28.484389019548832,-15.563860320787485,72.05199999996694
312487.7727,-40.30877842192384,-13.805822246708304,-26.259747555887373,-14.443537468576801,72.05299999995623
312487.7737,-38.340874044648736,-14.014762201902279,-23.588152118858794,-13.177658168871943,72.05400000000373
312487.7747,-35.778030150728824,-14.123626097464527,-20.55121209039245,-11.795885834912593,72.05499999999302
312487.7757,-32.668615845810194,-14.10421539730913,-17.219128456664677,-10.313072863448552,72.0559999999823
312487.7767,-29.054942335183448,-13.91313130612409,-13.647850750062476,-8.728671677891542,72.0569999999716
312487.7777,-24.973181105705837,-13.494903105193293,-9.878566004760412,-7.028216286432262,72.05799999996088
312487.7787,-20.455190893480008,-12.787031835232382,-5.939461624012839,-5.1867252966707635,72.05900000000838
312487.7797,-15.531957135044838,-11.726513625907721,-1.849466960122825,-3.173676529367869,72.05999999999767
312487.7807,-10.238161105213651,-10.257238732360287,2.376527382028871,-0.959036008529864,72.06099999998696
312487.7817,-4.61726010585457,-8.33755058278538,6.721627709064781,1.4802929981684065,72.06199999997625
312487.7827,1.2736111529246137,-5.94720582217221,11.160815473533502,4.1542900841864405,72.06299999996554
312487.7837,7.359606904107608,-3.093006795350923,15.655500194267999,7.054582891235729,72.06400000001304
312487.7847,13.545619902783248,0.18751971848997076,20.14943714088984,10.150752733484056,72.06500000000233
312487.7857,19.715690727224686,3.8248583773672418,24.56656519522214,13.388635564656662,72.06599999999162
312487.7867,25.734662248367115,7.718903523929141,28.811128861369156,16.690886274858027,72.06699999998091
312487.7877,31.45214040744054,11.743026732291026,32.77021912323865,19.959858938334065,72.0679999999702
312487.7887,36.70858706226349,15.750574823365303,36.31862338087371,23.082632691803013,72.06899999995949
312487.7897,41.34314758204092,19.58333232247857,39.32563910794455,25.937804058293462,72.07000000000698
312487.7907,45.20262731621919,23.081295482861034,41.663302282385786,28.403492039507306,72.07099999999627
312487.7917,48.15089591114022,26.092976466234813,43.21532994388955,30.365879123227845,72.07199999998556
312487.7927,50.07793035888941,28.485398465196376,43.88599115849815,31.727551427750114,72.07299999997485
312487.7937,50.90771374376857,30.152961115480736,43.60811038814865,32.41491031569068,72.07399999996414
312487.7947,50.604286779830616,31.02444882820159,42.34947262522348,32.38400505073566,72.07500000001164
312487.7957,49.17539609070995,31.067613909202947,40.11703417667828,31.624273977518747,72.07600000000093
312487.7967,46.67338300223132,30.290976522552846,36.958533543640435,30.159867014904343,72.07699999999022
312487.7977,43.19319054644356,28.74272492980632,32.96132500332545,28.04843722916139,72.07799999997951
312487.7987,38.867612327362764,26.50684938460542,28.2485013455734,25.37751342611947,72.0789999999688
312487.7997,33.860141706559816,23.69687831125841,22.9726085057967,22.25877785959001,72.07999999995809
312487.8007,28.355981421862328,20.44778424185924,17.30746126387897,18.820753390505434,72.08100000000559
312487.8017,22.55192351704828,16.906771353122636,11.438726521503051,15.200536047258655,72.08199999999488
312487.8027,16.645893651267514,13.2237335787562,5.554034617688584,11.535280017291319,72.08299999998417
312487.8037,10.826965130954418,9.54217591786254,-0.16659836754860824,7.95414661852751,72.08399999997346
312487.8047,5.266586028951424,5.991322490558565,-5.559304431437956,4.57136715446631,72.08499999996275
312487.8057,0.11163418773542835,2.680000779927245,-10.483237395959454,1.480948478855916,72.08600000001024
312487.8067,-4.520267277711642,-0.30729388706844624,-14.825341452321451,-1.2466180503530737,72.08699999999953
312487.8077,-8.542959154294442,-2.9119677382168807,-18.50277741428223,-3.5654819986538278,72.08799999998882
312487.8087,-11.901497300135672,-5.100575514614839,-21.462993879627838,-5.453440677619446,72.08899999997811
312487.8097,-14.569687165032937,-6.862007405593361,-23.681648984734,-6.909074054721872,72.0899999999674
312487.8107,-16.545837495292965,-8.203065392063369,-25.15877993879635,-7.947425333786437,72.0909999999567
312487.8117,-17.84731558011706,-9.143016154283227,-25.91376378889493,-8.594770655647373,72.09200000000419
312487.8127,-18.504571416270633,-9.707783551975162,-25.979700333882786,-8.883090513772556,72.09299999999348
312487.8137,-18.555314271155225,-9.924451250093382,-25.39786919622822,-8.844861857926835,72.09399999998277
312487.8147,-18.039471738232756,-9.81668566596765,-24.21286687523792,-8.508733628926183,72.09499999997206
312487.8157,-16.995444798854685,-9.401568032084233,-22.46892195167862,-7.8965359421392405,72.09599999996135
312487.8167,-15.458005154550058,-8.68815491130431,-20.20772938596768,-7.021916135242822,72.09700000000885
312487.8177,-13.457980672940101,-7.67788650660809,-17.46795480666949,-5.89070955843441,72.09799999999814
312487.8187,-11.023661931768954,-6.366752003499079,-14.286356751376792,-4.502958176754871,72.09899999998743
312487.8197,-8.183659454839846,-4.74892227216138,-10.700280102459738,-2.8563054984899843,72.09999999997672
312487.8207,-4.970768211045593,-2.821392622311038,-6.751107633077194,-0.9503406834065523,72.100999999966
312487.8217,-1.4262711072075145,-0.5890588460554629,-2.4881358903049993,1.2086463509487986,72.1019999999553
312487.8227,2.3959505013821993,1.9304094310829591,2.0277208048636264,3.6030921452420404,72.1030000000028
312487.8237,6.4261270386437825,4.702526984382095,6.720991960152477,6.200356088400865,72.10399999999208
312487.8247,10.57668733296186,7.673338846548447,11.500004251936446,8.950205168969664,72.10499999998137
312487.8257,14.742144227783857,10.768578260378714,16.25692652993572,11.783983907150015,72.10599999997066
312487.8267,18.80102079765489,13.894883825608357,20.86973402185047,14.615701154239712,72.10699999995995
312487.8277,22.619847894415518,16.94311721247184,25.206117893612976,17.345073764695933,72.10800000000745
312487.8287,26.05904400790417,19.79360905456143,29.129156220816995,19.862367820970142,72.10899999999674
312487.8297,28.98028194936638,22.322960017800998,32.504364936339975,22.054690863682847,72.10999999998603
312487.8307,31.2547745964774,24.4118565347685,35.20758270953183,23.813232088450377,72.11099999997532
312487.8317,32.77179157073448,25.95324308363944,37.13302916625588,25.04083741888326,72.11199999996461
312487.8327,33.446662933492256,26.86013714224364,38.20082373600792,25.659253971718098,72.11300000001211
312487.8337,33.22754118649657,27.07238501778541,38.363268984329544,25.61538931808091,72.1140000000014
312487.8347,32.10027851335133,26.561736001279144,37.6092870751484,24.88600457936849,72.11499999999069
312487.8357,30.090924865162815,25.3347515388223,35.96654377835924,23.48039012473364,72.11599999997998
312487.8367,27.265550551088364,23.433252318236832,33.500987886739,21.440746331782172,72.11699999996927
312487.8377,23.727325945094442,20.932221729695268,30.313756929625868,18.840193108659786,72.11799999995856
312487.8387,19.611029189957343,17.93530860093189,26.53563152555886,15.778541533665551,72.11900000000605
312487.8397,15.075377813466467,14.568284092162203,22.319438482920454,12.376159093749202,72.11999999999534
312487.8407,10.29377062354609,10.970987032682324,17.830985906355725,8.766427750636995,72.12099999998463
312487.8417,5.444164050969992,7.288421824758849,13.23924441043916,5.0874155288933505,72.12199999997392
312487.8427,0.6988792211234707,3.6617411732469733,8.706554377726812,1.4734460836329972,72.12299999996321
312487.8437,-3.7848642921272604,0.21984614236097938,4.379633562400222,-1.9527490672630015,72.12400000001071
312487.8447,-7.872964664749751,-2.927731222347118,0.38208265498254174,-5.086673963545629,72.125
312487.8457,-11.460418364924195,-5.696125351681998,-3.191054033191396,-7.847005421639648,72.12599999998929
312487.8467,-14.474869062285283,-8.028253142697974,-6.276306400364918,-10.17848699905856,72.12699999997858
312487.8477,-16.87755222493936,-9.89559342365453,-8.842231378596995,-12.052636288446587,72.12799999996787
312487.8487,-18.661698345918882,-11.29669192109736,-10.887390770192397,-13.466325772189503,72.12899999995716
312487.8497,-19.848683269608255,-12.253660469265014,-12.436166001923795,-14.438491447773044,72.13000000000466
312487.8507,-20.482408205708968,-12.807115750033722,-13.532910774481964,-15.005389139389603,72.13099999999395
312487.8517,-20.6225365495617,-13.010132534561723,-14.235080918543327,-15.214940113899731,72.13199999998324
312487.8527,-20.33729628692777,-12.921857223127937,-14.606055422317578,-15.120773989143652,72.13299999997253
