TimeStamp,ECR,FCR,ECU,FCU,time_index
312456.7197,-25.275737971230246,-24.712870438006643,-17.95495531960761,-18.947306795267792,41.0
312456.7207,-26.644218363431907,-24.267277453341862,-17.881399662465974,-18.965283525738162,41.00099999998929
312456.7217,-27.75800276568884,-23.571415975419622,-17.608377826917348,-18.84967234814042,41.00199999997858
312456.7227,-28.57497293762565,-22.650031860451254,-17.155932411929754,-18.603648068587745,41.00299999996787
312456.7237,-29.045174673128727,-21.517813913308753,-16.53124706074293,-18.218074484344573,41.00399999995716
312456.7247,-29.113800072690324,-20.180254905207523,-15.73015924107568,-17.673214260487416,41.00500000000466
312456.7257,-28.725665013072494,-18.636165217075444,-14.740460985787172,-16.94216911876063,41.005999999993946
312456.7267,-27.83078986947614,-16.881503822432762,-13.546606998237918,-15.995677430901566,41.006999999983236
312456.7277,-26.390549641046263,-14.914043935321265,-12.13529318878137,-14.80774200393681,41.007999999972526
312456.7287,-24.383769123448374,-12.738293723546635,-10.501265740827385,-13.361459684110677,41.008999999961816
312456.7297,-21.812109745624287,-10.370055970592064,-8.652682040561515,-11.654387039301325,41.01000000000931
312456.7307,-18.704131186166148,-7.840038353629396,-6.615374771358333,-9.702807111760613,41.0109999999986
312456.7317,-15.117510483151568,-5.196015546385071,-4.435466914800869,-7.544358580597243,41.01199999998789
312456.7327,-11.139055359671186,-2.5031869288764357,-2.1799394620308976,-5.238641596150782,41.01299999997718
312456.7337,-6.882342768146565,0.1574447502434818,0.06504928651151662,-2.8656093284637967,41.01399999996647
312456.7347,-2.4830299757276766,2.6926458280859946,2.1980728232482285,-0.5217719550391005,41.01499999995576
312456.7357,1.9078967083662577,5.002243887103184,4.108330202062581,1.6855409340570953,41.01600000000326
312456.7367,6.13247216540702,6.985724132700598,5.683076300945104,3.645414333248472,41.01699999999255
312456.7377,10.035078724633541,8.54956831591923,6.815975427207295,5.251473676516505,41.01799999998184
312456.7387,13.47202048231614,9.614681086392174,7.4156560764765445,6.410194496935903,41.01899999997113
312456.7397,16.32057787807027,10.123217727931415,7.413702741788901,7.048650849324543,41.01999999996042
312456.7407,18.48680462002606,10.044162514643185,6.771350644753177,7.120991249492275,41.021000000007916
312456.7417,19.911426623400583,9.37710570129329,5.484248989547693,6.613032875960492,41.021999999997206
312456.7427,20.573359354908767,8.153820500851348,3.5848189513572346,5.544525760141732,41.022999999986496
312456.7437,20.49056163978335,6.437435016760025,1.1419393219423537,3.968843687244812,41.023999999975786
312456.7447,19.718171990552474,4.319209697037756,-1.742073748247182,1.9700882332404976,41.024999999965075
312456.7457,18.34410662697038,1.9131479207466993,-4.936988115387905,-0.34217502358999713,41.02600000001257
312456.7467,16.482514730914474,-0.6511349977085531,-8.292252649059833,-2.8401157378139614,41.02700000000186
312456.7477,14.265665760250165,-3.236699860247719,-11.646062342170023,-5.3861674527137104,41.02799999999115
312456.7487,11.834968937107684,-5.708038817150274,-14.835157774424975,-7.842162362811123,41.02899999998044
312456.7497,9.331884562825463,-7.939566770273556,-17.70456675748892,-10.078299216773772,41.02999999996973
312456.7507,6.889475139955126,-9.823145177190385,-20.116510772440236,-11.981194145180368,41.03099999995902
312456.7517,4.625262836312819,-11.274027645942168,-21.957785154867803,-13.460357119566225,41.03200000000652
312456.7527,2.6359168358154696,-12.234766934206588,-23.145071332436256,-14.452590804890935,41.03299999999581
312456.7537,0.9941038390333171,-12.676815824410001,-23.62783712467963,-14.9240087758988,41.0339999999851
312456.7547,-0.2523836937961943,-12.599771217851742,-23.38870786029778,-14.869596953411351,41.03499999997439
312456.7557,-1.079332319376965,-12.028430671933162,-22.441424764414997,-14.310473607249046,41.03599999996368
312456.7567,-1.4829658475026735,-11.008032156530389,-20.826725025133534,-13.289216859191225,41.037000000011176
312456.7577,-1.475450680441927,-9.598211450261386,-18.606659105438634,-11.863803566111358,41.038000000000466
312456.7587,-1.079661475352982,-7.866321449132223,-15.857987871766312,-10.100822848508091,41.038999999989755
312456.7597,-0.3238745127645575,-5.8808031024074525,-12.665363031192607,-8.06867991611033,41.039999999979045
312456.7607,0.7629603161307865,-3.7052744400422024,-9.114983862140193,-5.831486410595455,41.040999999968335
312456.7617,2.1548032058838738,-1.3939147041060473,-5.28934305297764,-3.4442445155496024,41.041999999957625
312456.7627,3.830543245430775,1.0114260166014237,-1.2635333125847248,-0.9497827360896927,41.04300000000512
312456.7637,5.774221882734561,3.4821503108734104,2.8966009833427355,1.622293333143879,41.04399999999441
312456.7647,7.973446154761594,6.0018413542446964,7.134397191774485,4.254592122276524,41.0449999999837
312456.7657,10.416195589381768,8.563381182281308,11.400542261077433,6.939049569392764,41.04599999997299
312456.7667,13.086426029913838,11.164640676910638,15.649826351324386,9.67254996963789,41.04699999996228
312456.7677,15.959032642800342,13.803278904613766,19.836997289219642,12.451603940186123,41.04800000000978
312456.7687,18.99483606567286,16.47129079480005,23.912339712584583,15.266741524232982,41.04899999999907
312456.7697,22.136288678683474,19.149978110467902,27.817645157688055,18.09731911828622,41.04999999998836
312456.7707,25.30455776256856,21.805985256646856,31.483210568271772,20.907407520228187,41.05099999997765
312456.7717,28.398531546066003,24.38894157671025,34.82640505341914,23.643327664917503,41.05199999996694
312456.7727,31.296122597840686,26.831094877193756,37.752187358210165,26.233240121674186,41.05299999995623
312456.7737,33.85802656854746,29.049122143560343,40.15575458957665,28.588989696570014,41.054000000003725
312456.7747,35.9338534280963,30.94808210026484,41.92727593887624,30.610177457696196,41.054999999993015
312456.7757,37.37030619587583,32.427252073534156,42.9584357700462,32.19020160653351,41.055999999982305
312456.7767,38.020862256025495,33.387390380270595,43.15030128370311,33.223798571619106,41.056999999971595
312456.7777,37.75623634933283,33.73880511577995,42.421862087937626,33.61544730937686,41.057999999960884
312456.7787,36.47478994557386,33.409506816495636,40.71847970816017,33.28788993937398,41.05900000000838
312456.7797,34.11201096287701,32.35268668775841,38.01944620132029,32.18998182826664,41.05999999999767
312456.7807,30.64822590745241,30.552798116580963,34.3438878245247,30.303118710254175,41.06099999998696
312456.7817,26.11382128281132,28.029624372842374,29.754360183725336,27.645594903683556,41.06199999997625
312456.7827,20.59143319400692,24.83988045037108,24.357656442975372,24.274415757241663,41.06299999996554
312456.7837,14.214797744476517,21.076106871149936,18.302574748913003,20.28430371461992,41.06400000001304
312456.7847,7.1642195058843665,16.86284860413571,11.77464491336602,15.803880840341792,41.06500000000233
312456.7857,-0.341112511772922,12.350351179689161,4.988074520536026,10.989258654106559,41.06599999999162
312456.7867,-8.053476662757076,7.706226344865958,-1.8245829027303033,6.015495520260496,41.06699999998091
312456.7877,-15.708937867861405,3.105720642904715,-8.424332635611817,1.0665711743449446,41.0679999999702
312456.7887,-23.040777028029808,-1.278654788193547,-14.57836799346752,-3.675340474033847,41.06899999995949
312456.7897,-29.79308924209589,-5.287317751588382,-20.072504638133182,-8.04045762267676,41.070000000006985
312456.7907,-35.733604885095325,-8.782832287097465,-24.72250888774604,-11.881007532780107,41.070999999996275
312456.7917,-40.66486251983059,-11.657437442990593,-28.383496047751024,-15.079134234686823,41.071999999985565
312456.7927,-44.43300949185326,-13.838325645122483,-30.95673286363306,-17.552511324068917,41.072999999974854
312456.7937,-46.933710883873786,-15.290308091247804,-32.393392870332576,-19.257279575677202,41.073999999964144
312456.7947,-48.114891097815295,-16.01573406052134,-32.69506507973827,-20.18816617671012,41.07500000001164
312456.7957,-47.976292175399614,-16.05176915957162,-31.911082134020177,-20.375888808121715,41.07600000000093
312456.7967,-46.56608535341789,-15.465362158716257,-30.132989595075582,-19.88218048467656,41.07699999999022
312456.7977,-43.97499462167907,-14.346420471288486,-27.486700374673863,-18.79296836671057,41.07799999997951
312456.7987,-40.328563737451184,-12.799853170502937,-24.12304765581399,-17.21038357264165,41.0789999999688
312456.7997,-35.7783067769124,-10.93721544501668,-20.207551384311977,-15.244356503639187,41.07999999995809
312456.8007,-30.492518725627573,-8.868693486774973,-15.910239410969647,-13.00455696594356,41.08100000000559
312456.8017,-24.647485719757206,-6.696104648275109,-11.396313784448743,-10.593371125843854,41.08199999999488
312456.8027,-18.419730310040187,-4.5074616061258945,-6.818331966143481,-8.100475698073742,41.08299999998417
312456.8037,-11.979767907353114,-2.373474421255266,-2.3103949059428137,-5.599387570673174,41.08399999997346
312456.8047,-5.4876538937954775,-0.34615856722917826,2.0153826773289203,-3.14615292985529,41.08499999996275
312456.8057,0.9096123789982914,1.540499199282003,6.070078015544059,-0.7801154460948315,41.086000000010245
312456.8067,7.078968192238024,3.268070439266242,9.787027598130125,1.473509375515093,41.086999999999534
312456.8077,12.900775114105125,4.8298375064976184,13.119140714942466,3.599705962113931,41.087999999988824
312456.8087,18.26737223374811,6.226122466179993,16.034995602656654,5.5889575621769065,41.088999999978114
312456.8097,23.08123140357203,7.459412337559214,18.514344894524623,7.432418900376254,41.089999999967404
312456.8107,27.253263502995633,8.529901108713938,20.54367829841392,9.11760574250677,41.09099999995669
312456.8117,30.701771701538167,9.432004498526348,22.112441858707076,10.6251727749477,41.09200000000419
312456.8127,33.35243556877612,10.152281119996008,23.21040115151377,11.927218961097594,41.09299999999348
312456.8137,35.13955131818352,10.66902647572699,23.826473035151174,12.987380590279276,41.09399999998277
312456.8147,36.008565981186564,10.953611484262169,23.949154887860047,13.762765059896045,41.09499999997206
312456.8157,35.91974743435875,10.973435098681364,23.568472605379228,14.207564346846882,41.09599999996135
312456.8167,34.852649449301445,10.696171848061786,22.679171106234122,14.27798816951453,41.09700000000885
312456.8177,32.8108815720928,10.094839258514503,21.284704690534845,13.937993590910368,41.09799999999814
312456.8187,29.82659464104974,9.153103250912853,19.401467081789413,13.165177330315519,41.09899999998743
312456.8197,25.964056057553506,7.870193025689158,17.062645104975527,11.956151189121472,41.09999999997672
312456.8207,21.321720202519383,6.264815869195385,14.321092180508552,10.330745213646805,41.10099999996601
312456.8217,16.032297420499297,4.377545440344119,11.250697657415316,8.334476013372045,41.1019999999553
312456.8227,10.260481732789932,2.2712966779856814,7.945868070262701,6.03887069176859,41.103000000002794
312456.8237,4.19819877017048,0.029683084757158015,4.518923088542468,3.539435749618255,41.103999999992084
312456.8247,-1.9425375169104369,-2.2467400030316473,1.0954237781807317,0.951286049496427,41.10499999998137
312456.8257,-7.93883977233573,-4.44612988145813,-2.192327688951214,-1.5973203690665438,41.10599999997066
312456.8267,-13.567701723365962,-6.452495969469603,-5.213171987410932,-3.9730827096926133,41.10699999995995
312456.8277,-18.61758749318625,-8.153751020523876,-7.845746507152443,-6.046759660582952,41.10800000000745
312456.8287,-22.900035708468682,-9.449992235380869,-9.98718118984655,-7.702521662396146,41.10899999999674
312456.8297,-26.260412969105612,-10.261285270153817,-11.56106142868897,-8.846751372072232,41.10999999998603
312456.8307,-28.586981683547712,-10.534247438099662,-12.523909595630027,-9.415514552537388,41.11099999997532
312456.8317,-29.817552411475543,-10.246816737118012,-12.869535749333652,-9.380020466570208,41.11199999996461
312456.8327,-29.943162506096385,-9.410742738606443,-12.630771649478474,-8.74955221972971,41.11300000001211
312456.8337,-29.008446504270587,-8.071530148095274,-11.878316099658234,-7.5715589203722145,41.1140000000014
312456.8347,-27.108619891692417,-6.305787872709792,-10.71666461391957,-5.928843717430373,41.11499999999069
312456.8357,-24.38326393555759,-4.216164910342959,-9.277350027828755,-3.9340324590495084,41.11599999997998
312456.8367,-21.00735156141877,-1.924267850252626,-7.709959480612501,-1.721743735963952,41.116999999969266
312456.8377,-17.180170281414924,0.43786681101114244,-6.171594887234807,0.5609193854867147,41.117999999958556
312456.8387,-13.112958790490566,2.7370457016974497,-4.815589606951427,2.7647909834739606,41.119000000006054
312456.8397,-9.01616496987248,4.848174050450386,-3.780369617825893,4.749135786129564,41.11999999999534
312456.8407,-5.087247017661247,6.6627369240062,-3.179345679884488,6.391371573767474,41.12099999998463
312456.8417,-1.4998757170879093,8.095824197792668,-3.0926434158432023,7.595250769236457,41.12199999997392
312456.8427,1.6047389673675931,9.09115296892633,-3.561327843638151,8.296872405999235,41.12299999996321
312456.8437,4.123866660775638,9.62372485423551,-4.584571085462582,8.468090717837912,41.12400000001071
312456.8447,5.9963231185010715,9.699969783142091,-6.119965462096739,8.117117373419168,41.125
312456.8457,7.202537797338756,9.355452172377774,-8.086921198289197,7.286359263349181,41.12599999998929
312456.8467,7.761821697634181,8.650428630570815,-10.372832206606086,6.047770002997093,41.12699999997858
312456.8477,7.727253637719021,7.663728687538926,-12.841467818993673,4.496199262967671,41.12799999996787
312456.8487,7.178775745334319,6.485564707919804,-15.342872944626768,2.741381112580767,41.12899999995716
312456.8497,6.215200782660031,5.2099520875336625,-17.72394925314286,0.8992970454878101,41.13000000000466
312456.8507,4.945876538383563,3.927429854907631,-19.838854768111336,-0.9163263445149293,41.130999999993946
312456.8517,3.4827242944769123,2.7187151381710457,-21.558400885127703,-2.6016717617303904,41.131999999983236
312456.8527,1.9332745341177577,1.649809193257036,-22.777739336706244,-4.0690360951744635,41.132999999972526
312456.8537,0.3951750709930616,0.7689100848548536,-23.42180540663915,-5.251148747184535,41.133999999961816
312456.8547,-1.0475388532539163,0.10529437795465438,-23.448200633992506,-6.103366678382473,41.13500000000931
312456.8557,-2.3263264101709944,-0.32987316311546605,-22.847437365098937,-6.60372526252485,41.1359999999986
312456.8567,-3.3882889961452136,-0.5410364939542657,-21.64070598784429,-6.751033869924177,41.13699999998789
312456.8577,-4.194874493395123,-0.5444511155676798,-19.875541034642335,-6.561388338931575,41.13799999997718
312456.8587,-4.719563697890806,-0.3636116081358373,-17.619934582350474,-6.0636114758238335,41.13899999996647
312456.8597,-4.9450456778913825,-0.024485480865484216,-14.955558931064292,-5.294214402160365,41.13999999995576
312456.8607,-4.8604085033656785,0.4488647536729539,-11.970805726955685,-4.292488795104362,41.14100000000326
312456.8617,-4.458829400803091,1.0377510399441021,-8.754322634766718,-3.0962922583878276,41.14199999999255
312456.8627,-3.7361497573441382,1.7310173539287919,-5.389635549001406,-1.7389822330408349,41.14299999998184
312456.8637,-2.69057722466053,2.525641526025775,-1.9512949555595576,-0.2477999906469902,41.14399999997113
312456.8647,-1.32358582619298,3.4257229528124777,1.4972042798716387,1.3561779199342157,41.14499999996042
312456.8657,0.3580951997482779,4.439989821705624,4.903689560441735,3.0565980932612202,41.146000000007916
312456.8667,2.339681749363774,5.578137723851144,8.225930491756571,4.83916025606352,41.146999999997206
312456.8677,4.595140256646373,6.846457142295458,11.428962236725596,6.688134832053167,41.147999999986496
312456.8687,7.084105118435346,8.243304591223565,14.48160308628118,8.582591655749294,41.148999999975786
312456.8697,9.74944810818812,9.755010299202034,17.352740662471106,10.492912366711659,41.149999999965075
312456.8707,12.51600939852585,11.352789398639015,20.007979335917103,12.378143547294583,41.15100000001257
312456.8717,15.290907544443375,12.991135247879424,22.40719256490282,14.1846686286803,41.15200000000186
312456.8727,17.96569962693324,14.608030830678267,24.50341335213406,15.846541475543091,41.15299999999115
312456.8737,20.42047664559898,16.127130878966106,26.243335697812395,17.28764678840708,41.15399999998044
312456.8747,22.529771656816212,17.461861525730203,27.56950684497866,18.425650061489467,41.15499999996973
312456.8757,24.16995029571558,18.521176571772532,28.42408476999651,19.177493643213776,41.15599999995902
312456.8767,25.227567024636066,19.21652103515003,28.753839637322,19.466007027979302,41.15700000000652
312456.8777,25.608025944405732,19.469403155916446,28.51591280979426,19.22704895983311,41.15799999999581
312456.8787,25.243798824066005,19.218881500088504,27.683730456183646,18.416502832824257,41.1589999999851
312456.8797,24.10143624810352,18.428245086977626,26.25241392944053,17.01641657514482,41.15999999997439
312456.8807,22.18666488339089,17.09020604391745,24.243042778918653,15.039618608894914,41.16099999996368
312456.8817,19.54699202855498,15.23003378860698,21.70520842798342,12.532250475958591,41.162000000011176
312456.8827,16.271427926864643,12.906228047308936,18.71744012494718,9.573825317522298,41.163000000000466
312456.8837,12.487170651359147,10.208540129657651,15.3852763669599,6.274634520279159,41.163999999989755
312456.8847,8.353356786538091,7.2533882927297775,11.836976186840873,2.770562772673623,41.164999999979045
312456.8857,4.052239902639658,4.176951590063749,8.217093846555645,-0.7843879789153015,41.165999999968335
312456.8867,-0.22160633890201706,1.1264446466521287,4.678354874737092,-4.227345703680207,41.166999999957625
312456.8877,-4.273275202013736,-1.7497476771203702,1.3724494557847384,-7.396889339661665,41.16800000000512
312456.8887,-7.919795334609084,-4.312279079782301,-1.5595173339119122,-10.143629091859397,41.16899999999441
312456.8897,-11.00172628228646,-6.440550483556835,-3.9961231622570907,-12.340186057392284,41.1699999999837
312456.8907,-13.393164360508829,-8.041104155780479,-5.843497231749608,-13.889743573001113,41.17099999997299
312456.8917,-15.009361240083514,-9.053992377982777,-7.041275865241224,-14.732450776951188,41.17199999996228
312456.8927,-15.811348367680177,-9.456578791771399,-7.566118929865538,-14.84913374282602,41.17300000000978
312456.8937,-15.80720639438446,-9.264450085338407,-7.432471308710477,-14.261995752354578,41.17399999999907
312456.8947,-15.04989838109292,-8.52936581943115,-6.690496099284762,-13.032245407366396,41.17499999998836
312456.8957,-13.631873638340128,-7.3344320231332745,-5.421358189357835,-11.254855822585348,41.17599999997765
312456.8967,-11.676919607691751,-5.78692595757304,-3.730274387121298,-9.050905697339669,41.17699999996694
312456.8977,-9.329967634505921,-4.0094027809286645,-1.7379465910296061,-6.558160678266457,41.17799999995623
312456.8987,-6.745724039817818,-2.1298609027917137,0.4288617977958054,-3.9207017718093584,41.179000000003725
312456.8997,-4.077085564043983,-0.2718180679155028,2.646772952634226,-1.2784828136238735,41.179999999993015
312456.9007,-1.4643002283557425,1.454852233366351,4.804436849488638,1.2423058406275083,41.180999999982305
312456.9017,0.9742488916794639,2.9615541562028693,6.809623094288716,3.5372746325114783,41.181999999971595
312456.9027,3.1489204320851205,4.186452139956683,8.594169782802956,5.529636258095639,41.182999999960884
312456.9037,5.002858517512787,5.097386909999113,10.116405540470309,7.173347016562705,41.18400000000838
312456.9047,6.512974058874671,5.69204954535442,11.360905410783747,8.453413003840216,41.18499999999767
312456.9057,7.687914363179345,5.995492058095873,12.335698137809159,9.38344834165224,41.18599999998696
312456.9067,8.563342245618504,6.055295921110228,13.067286902764385,10.000823198352956,41.18699999997625
312456.9077,9.195081359902604,5.934929457939343,13.594054143003966,10.359954761619273,41.18799999996554
312456.9087,9.650863638887179,5.705981535288182,13.958773552364661,10.524454536868959,41.18900000001304
312456.9097,10.001521620851705,5.440048314116447,14.201033980262078,10.558935715598826,41.19000000000233
312456.9107,10.312494097278067,5.2010641768407195,14.350382798216172,10.52129699040857,41.19099999999162
312456.9117,10.636456830552312,5.038806841058467,14.420920087129776,10.456233679718602,41.19199999998091
312456.9127,11.007757768792557,4.984176812192243,14.407927067506488,10.390590442127625,41.1929999999702
312456.9137,11.439142061789113,5.046665975245323,14.28690684044401,10.33097604728548,41.19399999995949
312456.9147,11.921015805638477,5.214207752377824,14.015172582389848,10.263828856029011,41.195000000006985
312456.9157,12.42324214195573,5.455363727786213,13.535861335627677,10.157874580516204,41.195999999996275
312456.9167,12.899213935099345,5.72357209332296,12.784005327333354,9.96867956968834,41.196999999985565
312456.9177,13.291727665908814,5.962983840108432,11.694081177893413,9.644796287932069,41.197999999974854
312456.9187,13.540014134876744,6.115262334024889,10.20830095245208,9.134842572859053,41.198999999964144
312456.9197,13.587178629103041,6.126634846930715,8.284823009893548,8.3947672915891,41.20000000001164
312456.9207,13.387275348900285,5.954468583073521,5.905053506416277,7.394540278822151,41.20100000000093
312456.9217,12.911289700009949,5.572699574665166,3.0792821563830888,6.123564803142511,41.20199999999022
312456.9227,12.151421669151445,4.975564345904745,-0.14995826117899505,4.594239854871178,41.20299999997951
312456.9237,11.12324123994766,4.179258925522615,-3.7072138377053365,2.8432842435347307,41.2039999999688
312456.9247,9.865504490308725,3.221359992233482,-7.486272726552329,0.930656478141251,41.20499999995809
312456.9257,8.437654768810415,2.15806768769586,-11.355067211911217,-1.0638581946784378,41.20600000000559
312456.9267,6.915263776754048,1.0595466721009121,-15.162958107204899,-3.0460926534143846,41.20699999999488
312456.9277,5.3838698521938735,0.003829978268879555,-18.749822879910134,-4.914474362076245,41.20799999998417
312456.9287,3.9318256030014958,-0.9301092166349003,-21.956199988286528,-6.567883282132915,41.20899999997346
312456.9297,2.6428594841955095,-1.6694332152080518,-24.633642104491752,-7.9136551600755,41.20999999996275
312456.9307,1.5890774668077514,-2.1539670471891466,-26.654409544576747,-8.874980187188546,41.211000000010245
312456.9317,0.8250801881897278,-2.341539645323551,-27.919694191925668,-9.397006121419802,41.211999999999534
312456.9327,0.38375366233624647,-2.2116223366680594,-28.365697685730435,-9.451080949748489,41.212999999988824
312456.9337,0.2741200677474208,-1.7669197564661627,-27.967082755153765,-9.036750409734074,41.213999999978114
312456.9347,0.48142690729306725,-1.0327733270443025,-26.737554581235162,-8.181342283667524,41.214999999967404
312456.9357,0.9694290378658793,-0.054455248130581835,-24.727587215502513,-6.937200953189274,41.21599999995669
312456.9367,1.6846011654968283,1.1073602041780644,-22.019563823039555,-5.376859516980896,41.21700000000419
312456.9377,2.5618299963182065,2.3824821148935866,-18.72082486684705,-3.5866309649893835,41.21799999999348
312456.9387,3.530993915816067,3.6978473911659866,-14.955294216835128,-1.6592456262852786,41.21899999998277
312456.9397,4.523757584533318,4.984255104974196,-10.85446337474607,0.3137546178439985,41.21999999997206
312456.9407,5.479896751307503,6.182517362668724,-6.54854883907511,2.2491418036090476,41.22099999996135
312456.9417,6.352525561158132,7.248416531089087,-2.1585947410281503,4.07798144792842,41.22200000000885
312456.9427,7.111718418117629,8.155982708594047,2.2098225372076246,5.74992340186362,41.22299999999814
312456.9437,7.746188540401584,8.898777697232761,6.47080680479429,7.23543623047204,41.22399999998743
312456.9447,8.262888229685414,9.48907506230302,10.560008751847581,8.525826972454837,41.22499999997672
312456.9457,8.684610880794551,9.955039758577392,14.434122710323338,9.631111312749253,41.22599999996601
312456.9467,9.045880079658335,10.336213838501079,18.068224776428067,10.576013682509794,41.2269999999553
312456.9477,9.38758604451774,10.677786626999374,21.451372791900848,11.394561290272916,41.228000000002794
312456.9487,9.75095657194599,11.024251271399995,24.581051391946623,12.123872373423868,41.228999999992084
312456.9497,10.171515867354058,11.413112414664266,27.457146130137364,12.797813713258254,41.22999999998137
312456.9507,10.67368363842337,11.869305624461001,30.07616048289229,13.441208551299207,41.23099999997066
312456.9517,11.26659887546127,12.400918559087915,32.42634636961678,14.065213241510467,41.23199999995995
312456.9527,11.94162485698986,12.996673730234187,34.484308032136006,14.664355929333603,41.23300000000745
312456.9537,12.671817163017673,13.62545613894185,36.21347271636417,15.215556129629642,41.23399999999674
312456.9547,13.413432633031357,14.237963663498707,37.56461703604733,15.679238051745603,41.23499999998603
312456.9557,14.109344981397227,14.770344395458123,38.47841626016888,16.00243377411768,41.23599999997532
312456.9567,14.694033739692786,15.14948451376855,38.88976764509063,16.123566800007158,41.23699999996461
312456.9577,15.0996475793247,15.29944281946333,38.733450157930825,15.978432844683493,41.23800000001211
312456.9587,15.262527778622388,15.148410486452997,37.95054039441981,15.506770370793888,41.2390000000014
312456.9597,15.129524493299574,14.635518706503351,36.49492225524146,14.65875085997214,41.23999999999069
312456.9607,14.663453187163741,13.716828356864124,34.33921389294943,13.40072429980344,41.24099999997998
312456.9617,13.847119890411147,12.369913520604948,31.47949052186477,11.719628234139984,41.241999999969266
312456.9627,12.685483980541244,10.59658695546742,27.938299853229275,9.625601545975588,41.242999999958556
312456.9637,11.205712100446794,8.42349690324466,23.76563579927326,7.152523459770529,41.244000000006054
312456.9647,9.455088250407323,5.900532925304431,19.037738254905378,4.356405935333434,41.24499999999534
312456.9657,7.496961886336252,3.0971930055527728,13.853801524123933,1.3117827014257837,41.24599999998463
312456.9667,5.405116257262105,0.09726361015526891,8.330879464803585,-1.893561070044347,41.24699999997392
312456.9677,3.2571029826727695,-3.0076711381711623,2.5974508946193056,-5.165008287389596,41.24799999996321
312456.9687,1.1271993207210114,-6.1252619150097605,-3.2137633960552057,-8.408053714295717,41.24900000001071
312456.9697,-0.9203097437236799,-9.169288566412686,-8.97307324380172,-11.535095259958904,41.25
312456.9707,-2.836846621752473,-12.06575390385985,-14.56052199033855,-14.471412528838599,41.25099999998929
312456.9717,-4.593667626835107,-14.75759760187478,-19.871426322800076,-17.15975554093203,41.25199999997858
312456.9727,-6.183966543367349,-17.207591717696875,-24.82028527465067,-19.56310808693266,41.25299999996787
312456.9737,-7.622717243895447,-19.399163812549535,-29.342762501532114,-21.665375943738923,41.25399999995716
312456.9747,-8.944239367448132,-21.335103332850135,-33.39564648950858,-23.469961498834163,41.25500000000466
312456.9757,-10.197697072341898,-23.034320875678997,-36.9549018870552,-24.99640196692187,41.255999999993946
312456.9767,-11.44094858870228,-24.527026834299644,-40.012120274714036,-26.275446596763558,41.256999999983236
312456.9777,-12.73333312834628,-25.84885598990805,-42.5698404017442,-27.343109018749356,41.257999999972526
312456.9787,-14.128094783562808,-27.034571814321968,-44.63631966476828,-28.234337829611345,41.258999999961816
312456.9797,-15.665188872674383,-28.112027742139222,-46.2203889295821,-28.976990643290808,41.26000000000931
312456.9807,-17.365189822696575,-29.097037949401972,-47.32700652989363,-29.5867696002296,41.2609999999986
312456.9817,-19.22492322541737,-29.989719509389992,-47.95404604653536,-30.06368208803313,41.26199999998789
312456.9827,-21.21528714126338,-30.772720022993195,-48.09071455421697,-30.390438258347395,41.26299999997718
312456.9837,-23.281524043691345,-31.411554482073207,-47.71781751011019,-30.53300172487356,41.26399999996647
312456.9847,-25.34597453703312,-31.857061030565628,-46.80988182948906,-30.44329085013143,41.26499999995576
312456.9857,-27.313109327490828,-32.0497686626165,-45.33894094689202,-30.06380698253076,41.26600000000326
312456.9867,-29.07641953294046,-31.9257722726621,-43.2795961839006,-29.333764901218636,41.26699999999255
312456.9877,-30.52656817723929,-31.42355155631719,-40.614817140471104,-28.196139689920372,41.26799999998184
312456.9887,-31.56008471175829,-30.491065977916726,-37.34184592545538,-26.604939530680763,41.26899999997113
312456.9897,-32.087831234414416,-29.092418930079624,-33.477536292863846,-24.531976216135078,41.26999999996042
312456.9907,-32.04248870655379,-27.213414457528405,-29.062493165144602,-21.972438679619444,41.271000000007916
312456.9917,-31.38440177785287,-24.86542682022608,-24.16347777404825,-18.948676696784776,41.271999999997206
312456.9927,-30.105272833928176,-22.087157489226005,-18.873699351678326,-15.511762564614203,41.272999999986496
312456.9937,-28.229394646233914,-18.944051020099945,-13.310810968766654,-11.740602684030243,41.273999999975786
312456.9947,-25.81233714392365,-15.525361581993218,-7.612645643129073,-7.738598966916042,41.274999999965075
312456.9957,-22.937235436673696,-11.93908439343016,-1.9309479123876578,-3.62808992415212,41.27600000001257
312456.9967,-19.709041034314172,-8.30516939189705,3.5764457500679927,0.4569889593219417,41.27700000000186
312456.9977,-16.247275798806147,-4.747598513831185,8.754366448045424,4.379616561814798,41.27799999999115
312456.9987,-12.677951903326106,-1.386017168566669,13.459299141299724,8.008647392488635,41.27899999998044
312456.9997,-9.125379743037179,1.6723456269892616,17.56784670553684,11.227455625967364,41.27999999996973
312457.0007,-5.70457457793294,4.339759576138905,20.983956925514835,13.941521051909364,41.28099999995902
312457.0017,-2.5148937896234513,6.553461518936353,23.644298789789595,16.08431149665533,41.28200000000652
312457.0027,0.3646012989004114,8.279043982335361,25.521333434188563,17.620971572650873,41.28299999999581
312457.0037,2.877747665000121,9.511491698618588,26.62382695728882,18.549527884865036,41.2839999999851
312457.0047,4.991744097532334,10.273812418837768,26.994778118252736,18.89954690391023,41.28499999997439
312457.0057,6.695586771977258,10.613430561187387,26.706962330536253,18.72841203767291,41.28599999996368
312457.0067,7.996784973865147,10.596716904276917,25.856502815148982,18.115599114763153,41.287000000011176
312457.0077,8.916826554140448,10.302195164211376,24.555050491694914,17.155504439847984,41.288000000000466
312457.0087,9.485972635626013,9.813081024397611,22.921270061641017,15.949500414504936,41.288999999989755
312457.0097,9.738008949422698,9.209860319024585,21.072379900578333,14.597949340404728,41.289999999979045
312457.0107,9.705562733364774,8.563596083398354,19.11647322987057,13.192891671764794,41.290999999968335
312457.0117,9.416511823168001,7.930571152874631,17.146259726418204,11.81204267294468,41.291999999957625
312457.0127,8.891875286961543,7.348732373889956,15.234718946957578,10.514589734998536,41.29300000000512
312457.0137,8.145397105853645,6.836218288977466,13.432964117152054,9.339095789075632,41.29399999999441
312457.0147,7.184834494123015,6.392042552117347,11.7703957460456,8.303600904167274,41.2949999999837
312457.0157,6.014761242267923,5.998790902648601,10.257000497369004,7.407795332169949,41.29599999997299
312457.0167,4.640514896360139,5.626991253013112,8.887443580577198,6.636934445232708,41.29699999996228
312457.0177,3.072773688352539,5.240653660212445,7.646432766553198,5.96699900125229,41.29800000000978
312457.0187,1.332160112562269,4.803365460499746,6.514715512593,5.37048916564203,41.29899999999907
312457.0197,-0.5467572488434082,4.284277399214492,5.475018876311637,4.822188717648098,41.29999999998836
312457.0207,-2.5126501411092073,3.6633338293947024,4.51725982080928,4.3042516310567205,41.30099999997765
312457.0217,-4.496285965592235,2.935182082096479,3.6424392163578894,3.8100447881927555,41.30199999996694
312457.0227,-6.411372742633822,2.1113346679450324,2.864777697760881,3.3463195030085315,41.30299999995623
312457.0237,-8.157515681502238,1.2203392431185698,2.211841064931826,2.9334666664436533,41.304000000003725
312457.0247,-9.625189215038578,0.3059172527207693,1.7226182043779419,2.603817282621111,41.304999999993015
312457.0257,-10.702412504062941,-0.5767576018987793,1.443734062544052,2.39816107212117,41.305999999982305
312457.0267,-11.282624540476744,-1.3662763313132784,1.424182043730772,2.360849404806338,41.306999999971595
312457.0277,-11.273106733360287,-2.001184654554002,1.7091240482219388,2.5340055063622917,41.307999999960884
312457.0287,-10.603211888371952,-2.42651766511335,2.333415615377747,2.951468704918377,41.30900000000838
312457.0297,-9.231638831541854,-2.6000072992051115,3.315557038745428,3.633139706617132,41.30999999999767
312457.0307,-7.152044989137787,-2.4973142758267435,4.652744095402642,4.580366065601005,41.31099999998696
312457.0317,-4.396411378386375,-2.1157247620617396,6.3175963708276335,5.772913456316901,41.31199999997625
312457.0327,-1.035755291552615,-1.4758972230500553,8.256986040495748,7.167917934267904,41.31299999996554
312457.0337,2.8219907464576575,-0.6214326956932943,10.39319029831125,8.701021666387382,41.31400000001304
312457.0347,7.03686991219957,0.3837462337569959,12.627365796737832,10.289678501578837,41.31500000000233
312457.0357,11.44425372589945,1.4600069563336615,14.845115478707736,11.838397564181086,41.31599999999162
312457.0367,15.864127796510907,2.518210328857221,16.92370947515687,13.245494471409392,41.31699999998091
312457.0377,20.111606528862833,3.4669471759217285,18.740352990046535,14.410760696974473,41.3179999999702
312457.0387,24.00785886541037,4.220141793523882,20.180782170600494,15.243358163122638,41.31899999995949
312457.0397,27.390586215596876,4.704313544950962,21.147425264022008,15.66920910618425,41.320000000006985
312457.0407,30.123229949040716,4.864813472041524,21.566395681013535,15.63718493056279,41.320999999996275
312457.0417,32.10219618594525,4.670445242835663,21.392683604958144,15.123499532762219,41.321999999985565
312457.0427,33.26156007732682,4.116030019781632,20.61307428650133,14.13387314056316,41.322999999974854
312457.0437,33.574934212368674,3.222668563116444,19.24652890552987,12.703236965597284,41.323999999964144
312457.0447,33.054435545054616,2.035672385353473,17.34199806651807,10.892977449688326,41.32500000001164
312457.0457,31.746939027710763,0.6203578722639062,14.97387616999644,8.785949664522526,41.32600000000093
312457.0467,29.728040325824526,-0.9438986004089719,12.235524142519072,6.479700223486877,41.32699999999022
312457.0477,27.094342788522184,-2.570780285882362,9.231467116690876,4.078510424963025,41.32799999997951
312457.0487,23.954817429100554,-4.17464803987192,6.068995229691738,1.6849836179933775,41.3289999999688
312457.0497,20.422046839832724,-5.677933309118736,2.849947837819526,-0.608054250484199,41.32999999995809
312457.0507,16.60414933967055,-7.01760570833889,-0.3365611307764975,-2.7245999563131225,41.33100000000559
312457.0517,12.59809016635454,-8.150105479511252,-3.4198143048255063,-4.610821877531849,41.33199999999488
312457.0527,8.484931244737464,-9.054280993624635,-6.351055230907547,-6.238230234538106,41.33299999998417
312457.0537,4.3273653275693995,-9.732066033285912,-9.104650456987681,-7.604392951753537,41.33399999997346
312457.0547,0.16964424821776336,-10.206852068051088,-11.676790231325555,-8.731154564698222,41.33499999996275
312457.0557,-3.9602323546044897,-10.519735721780119,-14.081910972354788,-9.660553181529544,41.336000000010245
312457.0567,-8.046428533177169,-10.724029261057467,-16.347247321988508,-10.448849737365478,41.336999999999534
312457.0577,-12.079833149760155,-10.878591971223049,-18.50610678486003,-11.159263578943884,41.337999999988824
312457.0587,-16.051952123283055,-11.040656108418508,-20.59058754776036,-11.854131456712572,41.338999999978114
312457.0597,-19.948876072370197,-11.258871337087742,-22.62451743701495,-12.58726137948889,41.339999999967404
312457.0607,-23.74605507278745,-11.567271155703548,-24.617373224495754,-13.39723319041116,41.34099999995669
312457.0617,-27.404525750518147,-11.980775612846116,-26.559846097800985,-14.302305952388094,41.34200000000419
312457.0627,-30.86908406832849,-12.492695149600253,-28.421559761312245,-15.297437036199584,41.34299999999348
312457.0637,-34.06869489611685,-13.074505077082721,-30.151237445490274,-16.353714046227335,41.34399999998277
312457.0647,-36.91919667864857,-13.67793789824076,-31.67937316664558,-17.420267941375222,41.34499999997206
312457.0657,-39.3281191272155,-14.23921295350429,-32.92321405182838,-18.42849625584818,41.34599999996135
312457.0667,-41.20120754465297,-14.685011817888313,-33.793628410964715,-19.298202186573597,41.34700000000885
312457.0677,-42.45006130778362,-14.939634029374995,-34.20324101085899,-19.94506991279632,41.34799999999814
312457.0687,-43.00016466520181,-14.932648036862725,-34.07508153855038,-20.288766637258636,41.34899999998743
312457.0697,-42.798528371499856,-14.606298449161995,-33.350927903422196,-20.260899928510703,41.34999999997672
312457.0707,-41.820177029041936,-13.921948105383231,-31.998539391043572,-19.812070894872733,41.35099999996601
312457.0717,-40.07280822704296,-12.864920637036647,-30.017064865936135,-18.917348312361568,41.3519999999553
312457.0727,-37.59910725298797,-11.447257763685975,-27.440069952100774,-17.579637845631375,41.353000000002794
312457.0737,-34.47641041768672,-9.708101309322522,-24.335839512835797,-15.830619526481595,41.353999999992084
312457.0747,-30.813650946708808,-7.711634017122797,-20.804857730513046,-13.729156468991153,41.35499999998137
312457.0757,-26.745770890909505,-5.542744091424704,-16.974624324780002,-11.357316244054598,41.35599999997066
312457.0767,-22.42601665788805,-3.3007937629011437,-12.992207620955302,-8.814370459106152,41.35699999995995
312457.0777,-18.01673207156903,-1.092051313218115,-9.015140330056804,-6.209326378189903,41.35800000000745
312457.0787,-13.679402474101087,0.9785283146538916,-5.201412661498719,-3.6526788844507823,41.35899999999674
312457.0797,-9.564772916325268,2.8154289840626805,-1.6993958626278034,-1.248139010178055,41.35999999998603
312457.0807,-5.803856347264738,4.339870509179415,1.3614696203555416,0.9149095862292619,41.36099999997532
312457.0817,-2.5005647424270347,5.495623911308295,3.878463044236338,2.767551565743564,41.36199999996461
312457.0827,0.27345452197544334,6.252833930337097,5.781236067930301,4.265544439967317,41.36300000001211
312457.0837,2.481398331352574,6.609528495772637,7.0349157796487605,5.391243624112048,41.3640000000014
312457.0847,4.121161573636418,6.590714642908488,7.640479523779182,6.153126814641677,41.36499999999069
312457.0857,5.222570012470096,6.2451879458795645,7.632470256154376,6.583027617054055,41.36599999997998
312457.0867,5.842330819313151,5.640395836543527,7.074356928512741,6.731406085891274,41.366999999969266
312457.0877,6.057236901986632,4.85587358075626,6.052046256976775,6.66116697467405,41.367999999958556
312457.0887,5.956304251281966,3.9758980932977455,4.6662012906596235,6.440667325019167,41.369000000006054
312457.0897,5.6325969012564245,3.0820672680215098,3.0241049749639934,6.136621096957968,41.36999999999534
312457.0907,5.175495335187261,2.2465054922722643,1.2318165757811521,5.807603864559919,41.37099999998463
312457.0917,4.664092195647819,1.5263207769458453,-0.6126941494696017,5.498786215939646,41.37199999997392
312457.0927,4.162262123429534,0.9598034483906267,-2.4248781596388573,5.238388357194308,41.37299999996321
312457.0937,3.7157649760871134,0.5646744934767569,-4.137025922632021,5.036164574972951,41.37400000001071
312457.0947,3.351522970947437,0.3384818013239262,-5.699607291947747,4.884013390994508,41.375
312457.0957,3.078984793347573,0.2610257423489978,-7.080587642840504,4.758588972911809,41.37599999998929
312457.0967,2.89327642351137,0.2984933714800074,-8.262984910652785,4.625583825575293,41.37699999997858
312457.0977,2.7796607598649605,0.40881306425259695,-9.241108330326133,4.445182587072274,41.37799999996787
312457.0987,2.718703701151578,0.5476250633155783,-10.016045013032263,4.1780688948255715,41.37899999995716
312457.0997,2.691485354711294,0.674209527731961,-10.591022815648358,3.7913134747882964,41.38000000000466
312457.1007,2.684206950365907,0.756727268763137,-10.967271555027821,3.2634871049612175,41.380999999993946
312457.1017,2.6916251556710313,0.7762077146686616,-11.140930802324581,2.5884252289953404,41.381999999983236
312457.1027,2.7188871164970396,0.7288555232836912,-11.101419416941013,1.7772133002296986,41.382999999972526
312457.1037,2.7815268954697934,0.6264277057992568,-10.831503792435731,0.858149066194958,41.383999999961816
312457.1047,2.903597647361306,0.49463888977112674,-10.30909719251741,-0.12534887185004065,41.38500000000931
312457.1057,3.1141317780585624,0.3697627004363448,-9.510612937853448,-1.118699207056031,41.3859999999986
312457.1067,3.442320923189409,0.2937910078351507,-8.415501493249877,-2.0615954489006523,41.38699999998789
312457.1077,3.91196804726504,0.308670451282887,-7.0114459936969515,-2.894372785826247,41.38799999997718
312457.1087,4.535868310231777,0.45024125218085104,-5.299589077237777,-3.5646457599227013,41.38899999996647
312457.1097,5.310812081335818,0.7425460234249849,-3.299127388789581,-4.033515222509731,41.38999999995576
312457.1107,6.213867758755538,1.1931514231200582,-1.050643649831249,-4.2806704093387316,41.39100000000326
312457.1117,7.200496197732965,1.7900350656727486,1.3823523530288975,-4.307807694680605,41.39199999999255
312457.1127,8.204881857956423,2.5004425314311556,3.9140420435308534,-4.139942911159862,41.39299999998184
312457.1137,9.142653669873017,3.2719286862463735,6.439239218178289,-3.8243944209933494,41.39399999997113
312457.1147,9.915931174095444,4.035582200950985,8.83858854898351,-3.427440266247107,41.39499999996042
312457.1157,10.420391553922684,4.711213030993184,10.985724299685124,-3.028882925779381,41.396000000007916
312457.1167,10.553834185639316,5.214081064284086,12.755880910682606,-2.7149671165763953,41.396999999997206
312457.1177,10.225543038276248,5.462579994291803,14.035277394196665,-2.570268937907467,41.397999999986496
312457.1187,9.365631665744505,5.386180068688153,14.73048672131217,-2.6692913014140562,41.398999999975786
312457.1197,7.933513138768656,4.932887976871823,14.776961617224893,-3.068549108943808,41.399999999965075
312457.1207,5.924673800499836,4.075506875931132,14.145924834462056,-3.799902545133364,41.40100000001257
312457.1217,3.3750435800175316,2.816072830253716,12.848943273292402,-4.865799634329845,41.40200000000186
312457.1227,0.3624378710628147,1.1879976073847094,10.939682396897354,-6.236928233647989,41.40299999999115
312457.1237,-2.9952187171683837,-0.7443521284656742,8.512565062704406,-7.852567368707543,41.40399999998044
312457.1247,-6.544908624808071,-2.8886811187071033,5.698317041765731,-9.623687506503217,41.40499999996973
312457.1257,-10.106522973776498,-5.130204399124166,2.656646925990342,-11.438601210009411,41.40599999995902
312457.1267,-13.483333504329273,-7.339086308856361,-0.433443295658462,-13.17073272267723,41.40700000000652
312457.1277,-16.474199086214544,-9.379283493946538,-3.385011770900574,-14.687879183918962,41.40799999999581
312457.1287,-18.886610376537952,-11.118065371919462,-6.015339231954149,-15.862195816774998,41.4089999999851
312457.1297,-20.549590383876012,-12.435420765597582,-8.157968178344879,-16.580065882038344,41.40999999997439
312457.1307,-21.325465986032945,-13.232566555577543,-9.673690013703249,-16.751020395238857,41.41099999996368
312457.1317,-21.11960655855346,-13.438852731394386,-10.459635165912955,-16.31495242138173,41.412000000011176
312457.1327,-19.88738393403524,-13.01650090052232,-10.455778081035634,-15.247018982750408,41.413000000000466
312457.1337,-17.637829077965453,-11.962806840016478,-9.648384801198475,-13.55982659901937,41.413999999989755
312457.1347,-14.433725564072912,-10.309663933932127,-8.07018609283041,-11.302735434155437,41.414999999979045
312457.1357,-10.388164669340103,-8.120502117656887,-5.797330650849631,-8.55836977076879,41.415999999968335
312457.1367,-5.657866447520243,-5.484963951367203,-2.9434361908177724,-5.43666559778058,41.416999999957625
312457.1377,-0.43382084071706667,-2.511834416752805,0.34871244958678344,-2.0669969477300194,41.41800000000512
312457.1387,5.069998993361058,0.6791141964407961,3.9170903404802453,1.4109181895249927,41.41899999999441
312457.1397,10.628969247815094,3.965619712642213,7.591146132988315,4.856538512979666,41.4199999999837
312457.1407,16.020261065794706,7.231016716201767,11.202430385188073,8.137634017207684,41.42099999997299
312457.1417,21.034496995434203,10.371219987094088,14.594311834822003,11.138278544318931,41.42199999996228
312457.1427,25.485823718984882,13.300037593349362,17.63007316744862,13.765069964868038,41.42300000000978
312457.1437,29.219779103929444,15.952423727339584,20.19885636609352,15.951129671384248,41.42399999999907
312457.1447,32.11855148490138,18.28549278868536,22.21914827115875,17.65765320921279,41.42499999998836
312457.1457,34.1034742429736,20.277340849628427,23.639737485672793,18.873020438968002,41.42599999997765
312457.1467,35.13484532529546,21.923936328248548,24.438310615654334,19.60970350369581,41.42699999996694
312457.1477,35.20938589110608,23.234527288081093,24.618066185210832,19.89941181954442,41.42799999995623
312457.1487,34.355834061032624,24.226150227461513,24.20288856608733,19.78706614854107,41.429000000003725
312457.1497,32.62929281063338,24.917901349323518,23.23172700675819,19.324284321745974,41.429999999993015
312457.1507,30.105005666962438,25.325639117964915,21.752857796193624,18.563081461276433,41.430999999982305
312457.1517,26.87221743529158,25.45772626469503,19.818669352645134,17.55043676214786,41.431999999971595
312457.1527,23.028694343973463,25.312296979610277,17.481506384946528,16.32426328707046,41.432999999960884
312457.1537,18.67634002777829,24.87636363211239,14.790952558679551,14.911149448115143,41.43400000000838
312457.1547,13.918167315565976,24.126874629371194,11.792738849287609,13.326038628909673,41.43499999999767
312457.1557,8.856691048830003,23.033621618541922,8.529257896603308,11.573797734037397,41.43599999998696
312457.1567,3.5936157558465647,21.56369179475954,5.041465332329624,9.65241846750684,41.43699999997625
312457.1577,-1.7694752701377805,19.68699002232934,1.3717783376758284,7.557417877840863,41.43799999996554
312457.1587,-7.129848275735269,17.382233012144653,-2.432542471559494,5.286875013174383,41.43900000001304
312457.1597,-12.38225387931603,14.642756201621966,-6.3161063954926195,2.846471304397054,41.44000000000233
312457.1607,-17.417965983940174,11.481479413016862,-10.212778281711834,0.25390023154950425,41.44099999999162
312457.1617,-22.124668540867543,7.9344492816444845,-14.044246020272936,-2.4579232077097095,41.44199999998091
312457.1627,-26.38752438265288,4.062507696044573,-17.720153160459887,-5.239297623711097,41.4429999999702
312457.1637,-30.091607400588934,-0.04918694274111125,-21.140007909370066,-8.024087083429421,41.44399999995949
312457.1647,-33.12569998569557,-4.293852527696997,-24.19688002798327,-10.732060005863959,41.445000000006985
312457.1657,-35.38727168322613,-8.54784231776195,-26.78269048812777,-13.273074645514106,41.445999999996275
312457.1667,-36.788282972637944,-12.677120549279227,-28.79470682742131,-15.552772359406507,41.446999999985565
312457.1677,-37.261319140933644,-16.5449355203315,-30.142700182610106,-17.479274073407943,41.447999999974854
312457.1687,-36.76546917266347,-20.020050895865072,-30.756114810121662,-18.970259000203388,41.448999999964144
312457.1697,-35.291334258362426,-22.984836657039203,-30.590559212503955,-19.959749623656688,41.45000000001164
312457.1707,-32.86458465220541,-25.34252837078997,-29.632955179856737,-20.403939054544193,41.45100000000093
312457.1717,-29.547580322245608,-27.02303647845033,-27.90477567436427,-20.285475215257367,41.45199999999022
312457.1727,-25.438721834144875,-27.98681887215458,-25.462956351602237,-19.61575348817423,41.45299999997951
312457.1737,-20.66938926464004,-28.226507236127418,-22.398264493242767,-18.434952193258486,41.4539999999688
312457.1747,-15.398540459755534,-27.76618316524711,-18.831134504157934,-16.8097557501793,41.45499999995809
312457.1757,-9.805254958071805,-26.658413927886237,-14.9052094089456,-14.828928059702355,41.45600000000559
312457.1767,-4.079705265106755,-24.979359175577763,-10.779040783713674,-12.597102185564886,41.45699999999488
312457.1777,1.5868065998621856,-22.82242948168492,-6.616574560605563,-10.22732185051903,41.45799999998417
312457.1787,7.012008181231668,-20.29109908137046,-2.5771699174865295,-7.832988905433697,41.45899999997346
312457.1797,12.032236817976523,-17.491537140861077,1.194049030315311,-5.519927067312611,41.45999999996275
312457.1807,16.510701505630976,-14.525718762994737,4.574729446978128,-3.379260243645247,41.461000000010245
312457.1817,20.343789878488412,-11.485609631424497,7.472026667004111,-1.4817247365282835,41.461999999999534
312457.1827,23.464946029377757,-8.448893934972451,9.82701002152231,0.1261037946573833,41.462999999988824
312457.1837,25.845851691925418,-5.476546832357171,11.61641049220263,1.4233720389264406,41.463999999978114
312457.1847,27.494875639961663,-2.612357380859813,12.851617771049021,2.4142150045883217,41.464999999967404
312457.1857,28.452992343708978,0.11569465311480587,13.575077020083357,3.124861099590843,41.46599999995669
312457.1867,28.78758876206883,2.6924939185067833,13.85446351309695,3.5989159874508956,41.46700000000419
312457.1877,28.58475705375893,5.111719262153776,13.775204919723606,3.891335182846747,41.46799999999348
312457.1887,27.940793978435888,7.371199694297119,13.432058232494805,4.061714418326045,41.46899999998277
312457.1897,26.953683132021578,9.468297844929493,12.920518418883391,4.167582994104284,41.46999999997206
312457.1907,25.715318662262266,11.395908029298825,12.328832437700981,4.258373174623948,41.47099999996135
312457.1917,24.305140476885413,13.13957939599182,11.731316009864099,4.370659544078084,41.47200000000885
312457.1927,22.785699785879785,14.676143387576563,11.183529215185956,4.5251240575056855,41.47299999999814
312457.1937,21.200474772895486,15.97405233451668,10.719674612078483,4.72551918367827,41.47399999998743
312457.1947,19.574028596182796,16.995440113378578,10.352357074462542,4.959691412238412,41.47499999997672
312457.1957,17.914367907886742,17.699716613127737,10.074609912771388,5.202511582263984,41.47599999996601
312457.1967,16.2171424374179,18.04832593355007,9.863870025328684,5.420358697104619,41.4769999999553
312457.1977,14.4711461251369,18.01015285809552,9.687397432443978,5.5766403000222855,41.478000000002794
312457.1987,12.664455380092742,17.56696874492564,9.5084997710348,5.637721726145086,41.478999999992084
312457.1997,10.790482450936395,16.718276993163283,9.292853156115825,5.578590028345552,41.47999999998137
312457.2007,8.85323723365996,15.484953887651532,9.01421374907075,5.387601130784278,41.48099999997066
312457.2017,6.871177532874666,13.91118044173613,8.6588887943443,5.069748921760051,41.48199999995995
312457.2027,4.879177272203538,12.064315882898835,8.228474121979833,4.648043935408623,41.48300000000745
312457.2037,2.9283396581487775,10.032559038387307,7.740553187147242,4.162782444411948,41.48399999999674
312457.2047,1.0836083384209587,7.9204611994352545,7.22727172599661,3.6687051404188935,41.48499999998603
312457.2057,-0.5806381844657015,5.8425717772139905,6.731930078553898,3.230266421928003,41.48599999997532
312457.2067,-1.9866082243711767,3.915694586342752,6.3039492867074784,2.9154384409764065,41.48699999996461
312457.2077,-3.060156842867252,2.250388083723263,5.992745687657738,2.788637964685127,41.48800000001211
312457.2087,-3.7381850146925726,0.9424413087554449,5.841173827622225,2.9034719870430212,41.4890000000014
312457.2097,-3.975626070161153,0.06508795836933573,5.87925630553953,3.296038472239419,41.48999999999069
312457.2107,-3.7512884733694056,-0.3373201956957228,6.118905331447182,3.979486755325001,41.49099999997998
312457.2117,-3.0719174415753328,-0.253569727531512,6.550255210876703,4.940440152696076,41.491999999969266
312457.2127,-1.9739952148395337,0.29266892360207314,7.140075589620274,6.137720302205831,41.492999999958556
312457.2137,-0.5230061386057824,1.243833111435522,7.832536376196209,7.503603743978936,41.494000000006054
312457.2147,1.189871487739961,2.512183954007464,8.55236600109008,8.947605936739008,41.49499999999534
312457.2157,3.053442140575146,3.985992155218236,9.210207337850607,10.362548643915336,41.49599999998463
312457.2167,4.944107368374953,5.537717762092823,9.70975336312035,11.632446319901184,41.49699999997392
312457.2177,6.734798380734499,7.033527458528042,9.956059269103793,12.641567004035712,41.49799999996321
312457.2187,8.304475621838343,8.343370511919552,9.864297570662238,13.28390078033534,41.49900000001071
312457.2197,9.547380987215014,9.35078161427722,9.368160801049935,13.472216147210053,41.5
312457.2207,10.381240495120641,9.961600664143205,8.427129148394497,13.145907122541553,41.50099999998929
312457.2217,10.753701567324438,10.110894065043285,7.031907153145445,12.276929905714638,41.50199999997858
312457.2227,10.646441541288109,9.767520581501214,5.207486557054292,10.87328876487446,41.50299999996787
312457.2237,10.076588276444841,8.935992418839936,3.0134974058392916,8.979741694497244,41.50399999995716
312457.2247,9.09533049297445,7.655519634807571,0.5417474191824752,6.6756377419952395,41.50500000000466
312457.2257,7.783842529150004,5.996371193324967,-2.088901817314731,4.070047323890708,41.505999999993946
312457.2267,6.246882386168364,4.053916273055764,-4.739937364474181,1.2945812276873954,41.506999999983236
312457.2277,4.604621464724261,1.9409037405384648,-7.262290372104208,-1.5055082831439512,41.507999999972526
312457.2287,2.9834109456035907,-0.22132156102595885,-9.506390633342415,-4.181207819082045,41.508999999961816
312457.2297,1.5062701764584367,-2.311892216626635,-11.33236514999178,-6.58979266968023,41.51000000000931
312457.2307,0.2838899714391272,-4.219004911710393,-12.619558195826274,-8.604232282396087,41.5109999999986
312457.2317,-0.5931212903794432,-5.847312051243995,-13.274616891592808,-10.121208918351519,41.51199999998789
312457.2327,-1.060151224014346,-7.123541567245807,-13.237519844541154,-11.067143737142327,41.51299999997718
312457.2337,-1.0822413475431325,-7.999949661129238,-12.485113755282642,-11.401813072169396,41.51399999996647
312457.2347,-0.6552899120716181,-8.455424588328208,-11.03194590241365,-11.119359498815989,41.51499999995576
312457.2357,0.1951715103113351,-8.494283941598109,-8.92841776794226,-10.246736137353842,41.51600000000326
312457.2367,1.417380345829577,-8.143021616569696,-6.2565143743338885,-8.839846319074235,41.51699999999255
312457.2377,2.9384890627853095,-7.445443492067375,-3.123563866501562,-6.977833449711431,41.51799999998184
312457.2387,4.670880133907499,-6.456765866357117,0.34536568378471993,-4.756120114423222,41.51899999997113
312457.2397,6.5189962908301355,-5.237325792782015,4.015733681317061,-2.278878628635101,41.51999999996042
312457.2407,8.386020820505825,-3.846561593250603,7.751736578588691,0.34836910094995405,41.521000000007916
312457.2417,10.179797869503313,-2.3378654544458737,11.423782809628792,3.0253761861154467,41.521999999997206
312457.2427,11.817497770956908,-0.7547949839394693,14.914664149257563,5.662485840200635,41.522999999986496
312457.2437,13.228694387658875,0.87103057120692,18.12401300448842,8.184263214656381,41.523999999975786
312457.2447,14.35671290480582,2.5202141868035794,20.970827368432467,10.531261587275178,41.524999999965075
312457.2457,15.15830714358927,4.1841099180209245,23.39405132321651,12.659943066288147,41.52600000001257
312457.2467,15.601914279770888,5.861851276718743,25.35139814076634,14.540967191537687,41.52700000000186
312457.2477,15.664892160349156,7.55629369657565,26.816775256073658,16.156225313528555,41.52799999999115
312457.2487,15.330253843024694,9.269400221630473,27.776798674367956,17.495118171173527,41.52899999998044
312457.2497,14.583464103423207,10.997657410580757,28.22695632257807,18.550637133184672,41.52999999996973
312457.2507,13.409848116113183,12.728104086864349,28.16798888036788,19.315810395874028,41.53099999995902
312457.2517,11.793084605184175,14.43548971943636,27.603002590525087,19.781014671576294,41.53200000000652
312457.2527,9.715122300820049,16.080958769853506,26.535717767728176,19.932537446315845,41.53299999999581
312457.2537,7.157683143207377,17.612494609261862,24.970101328756073,19.752617175103417,41.5339999999851
312457.2547,4.105316432125568,18.967168130622415,22.911448385571497,19.22100556186319,41.53499999997439
312457.2557,0.549765826414272,20.075041072388327,20.36878642659143,18.317906707392332,41.53599999996368
312457.2567,-3.5047727902652217,20.864392138359786,17.358296455725174,17.027972460400914,41.537000000011176
312457.2577,-8.036070059781704,21.267783792383103,13.907298116760812,15.344890508949394,41.538000000000466
312457.2587,-12.998616619052463,21.22838457930929,10.058246627035937,13.276007126578305,41.538999999989755
312457.2597,-18.31939384303437,20.705916797568445,5.872149783644586,10.846390768622191,41.539999999979045
312457.2607,-23.89529782536073,19.681617425523957,1.4308388484345524,8.101770714024978,41.540999999968335
312457.2617,-29.59273708775993,18.161680229775218,-3.162383446943257,5.109875021997421,41.541999999957625
312457.2627,-35.24974927318621,16.178781626252338,-7.7840490540640355,1.959836210661085,41.54300000000512
312457.2637,-40.68076240330077,13.79146929818258,-12.293928442538531,-1.2404823818799369,41.54399999999441
312457.2647,-45.683882316857,11.081393711653773,-16.540463990206483,-4.369179611219657,41.5449999999837
312457.2657,-50.05034273801948,8.148568825250317,-20.367950437240317,-7.296760135157232,41.54599999997299
312457.2667,-53.57553186460124,5.105039118865072,-23.62498470350416,-9.893870275069615,41.54699999996228
312457.2677,-56.0708316255769,2.0674865774692663,-26.173551666274264,-12.039717071055064,41.54800000000978
312457.2687,-57.37539122906232,-0.8505822778510581,-27.898013047874297,-13.630465622400843,41.54899999999907
312457.2697,-57.366918006583084,-3.5463837085826957,-28.713234771753,-14.5868796427929,41.54999999998836
312457.2707,-55.97061151524195,-5.934473188397265,-28.57112884692503,-14.860510146471281,41.55099999997765
312457.2717,-53.16548932785214,-7.95185038094529,-27.464996736404135,-14.437844892151844,41.55199999996694
312457.2727,-48.987545223913514,-9.561113152707971,-25.431232970239417,-13.34199749084725,41.55299999995623
312457.2737,-43.52942608595337,-10.75140497346059,-22.548165058039064,-11.631724880116563,41.554000000003725
312457.2747,-36.936590908961634,-11.537108884412666,-18.932048458832703,-9.39779566458749,41.554999999993015
312457.2757,-29.40019891158394,-11.954454610670325,-14.730480686675154,-6.756967530017885,41.555999999982305
312457.2767,-21.147237921030378,-12.056402447257751,-10.113723297467807,-3.844047050044025,41.556999999971595
312457.2777,-12.428624770414833,-11.906328898944512,-5.264603052153614,-0.8026790138360169,41.557999999960884
312457.2787,-3.5061661861628863,-11.571148826149203,-0.36778644126191207,2.224371955560471,41.55900000000838
312457.2797,5.360652682116217,-11.114556225551699,4.40072690500513,5.104638600755661,41.55999999999767
312457.2807,13.927091202994855,-10.591046077164373,8.883071672757751,7.724286265985231,41.56099999998696
312457.2817,21.973916851297083,-10.041294850277469,12.947224562949824,9.994685325747449,41.56199999997625
312457.2827,29.3158034345726,-9.489335632910485,16.49239620014504,11.85670243109957,41.56299999996554
312457.2837,35.80688148199812,-8.941779390968474,19.451765184313928,13.282401906020166,41.56400000001304
312457.2847,41.343219111046906,-8.389124764999222,21.792455263342795,14.274085762659004,41.56500000000233
312457.2857,45.862284959076426,-7.808985712364348,23.512905692375163,14.860842955983719,41.56599999999162
312457.2867,49.33970482536583,-7.170870261742582,24.638016419107718,15.093002806992049,41.56699999998091
312457.2877,51.78384638178408,-6.441984083989795,25.212641974451458,15.035072882496811,41.5679999999702
312457.2887,53.228931413411566,-5.593425370529203,25.294142872381233,14.757870694557557,41.56899999995949
312457.2897,53.727468064082544,-4.606093413460218,24.944768503009712,14.330619466319243,41.570000000006985
312457.2907,53.3428091319239,-3.475656896881484,24.224635250948257,13.813765550638484,41.570999999996275
312457.2917,52.142577002548535,-2.2160171999327107,23.18597947688542,13.25319058261648,41.571999999985565
312457.2927,50.193559397136525,-0.860848490895153,21.869215770631204,12.676343666827943,41.572999999974854
312457.2937,47.55848762975113,0.5370140698988239,20.30113149608717,12.090622443609,41.573999999964144
312457.2947,44.294880691609336,1.9083525080516448,18.49531890077949,11.4841059536893,41.57500000001164
312457.2957,40.455897671736814,3.1723071349443837,16.4547086565856,10.82850877951543,41.57600000000093
312457.2967,36.09291220469425,4.242676762225796,14.175847039611716,10.084007557269896,41.57699999999022
312457.2977,31.259328781420635,5.035211206990763,11.65437488341551,9.205408635710508,41.57799999997951
312457.2987,26.015021145281633,5.4752197516492815,8.891038097440685,8.148996827136829,41.5789999999688
312457.2997,20.430701324753116,5.50477424214485,5.897499619194706,6.879342009612596,41.57999999995809
312457.3007,14.591530938227608,5.088809851447691,2.7012371531506325,5.375348534634696,41.58100000000559
312457.3017,8.599363534450344,4.219518277675757,-0.651101358224579,3.6349107561590515,41.58199999999488
312457.3027,2.5731497852183702,2.918578821020122,-4.092360355375236,1.6776785070268803,41.58299999998417
312457.3037,-3.3527683581062817,1.2369681941892274,-7.535831153583157,-0.4543750061158632,41.58399999997346
312457.3047,-9.0325226581605,-0.7476884882173921,-10.878539968131006,-2.6986722593222785,41.58499999996275
312457.3057,-14.314556458452778,-2.9360364441963105,-14.00667169295473,-4.97590051532013,41.586000000010245
312457.3067,-19.049029832924514,-5.213780510864913,-16.80270842852736,-7.1956817684282655,41.586999999999534
312457.3077,-23.096204370720237,-7.459772377368457,-19.153676797482653,-9.263516617668154,41.587999999988824
312457.3087,-26.335093633748713,-9.554702914387283,-20.95976980686777,-11.088349212836924,41.588999999978114
312457.3097,-28.67160773084531,-11.389651132499012,-22.142550387675634,-12.590038297069201,41.589999999967404
312457.3107,-30.04543778999007,-12.873755533026156,-22.651961029593927,-13.706026868118798,41.59099999995669
312457.3117,-30.435017224924017,-13.940356208125108,-22.471456061290077,-14.396579102510355,41.59200000000419
312457.3127,-29.860053193573798,-14.551098956949803,-21.620731783909786,-14.648090265064697,41.59299999999348
312457.3137,-28.381328739764587,-14.6976820986611,-20.155740065945263,-14.474159796862121,41.59399999998277
312457.3147,-26.097714058851725,-14.401144346235245,-18.165913323817662,-13.914331518243097,41.59499999997206
312457.3157,-23.14057138447961,-13.708817174215778,-15.768780079881942,-13.030627005667315,41.59599999996135
312457.3167,-19.66596862226066,-12.689276063060785,-13.102386623046728,-11.902207076132402,41.59700000000885
312457.3177,-15.845310025037103,-11.425801786843916,-10.316139201478265,-10.61867169050217,41.59799999999814
312457.3187,-11.855129523562582,-10.008988880814078,-7.5608237258546,-9.272633561929872,41.59899999998743
312457.3197,-7.866860825338831,-8.529201932204398,-4.978632634718056,-7.952263404556864,41.59999999997672
312457.3207,-4.037391767802559,-7.069575849170982,-2.694024567975438,-6.734499290432,41.60099999996601
312457.3217,-0.5011296153016633,-5.7001848816104,-0.8061623846079602,-5.679539892079634,41.6019999999553
312457.3227,2.6358428743899736,-4.473874504701569,0.6164732645255633,-4.827108948434835,41.603000000002794
312457.3237,5.299139274995655,-3.4240736886371534,1.5388997114165521,-4.194799412724256,41.603999999992084
312457.3247,7.446818617535601,-2.5647003476688646,1.9597186515444258,-3.778598251115418,41.60499999998137
312457.3257,9.06760185804546,-1.892060339734304,1.9085622409488725,-3.5554773487614946,41.60599999997066
312457.3267,10.17687303891842,-1.3884413805476763,1.4412236536173428,-3.4877337618604356,41.60699999995995
312457.3277,10.810974725377626,-1.0269373242206628,0.6329978931361128,-3.5285935726225595,41.60800000000745
312457.3287,11.020446257260504,-0.7769217629636226,-0.42909371511307953,-3.628474458085964,41.60899999999674
312457.3297,10.862926195987326,-0.6095341550582499,-1.6544411914340347,-3.741244391621405,41.60999999998603
312457.3307,10.396440807266854,-0.5025519557044716,-2.9565845741306203,-3.82982314737863,41.61099999997532
312457.3317,9.673729424447068,-0.44409714410301065,-4.259858755221981,-3.8705482930585715,41.61199999996461
312457.3327,8.738123075851217,-0.43475728600576125,-5.504381651912006,-3.8558604056762174,41.61300000001211
312457.3337,7.621309075939824,-0.48787632608069165,-6.64900661306981,-3.795039818652881,41.6140000000014
312457.3347,6.343100439144606,-0.6279708046611853,-7.672076458885226,-3.7129313610692645,41.61499999999069
312457.3357,4.913106951278902,-0.8874327076296592,-8.570043836563922,-3.6468036863902826,41.61599999997998
312457.3367,3.3339972132608344,-1.3018697253243257,-9.35423781581336,-3.641684716166341,41.616999999969266
312457.3377,1.6058690872875743,-1.9045879185006718,-10.046238447048582,-3.7446747676525938,41.617999999958556
312457.3387,-0.2688728074064993,-2.7208247719936396,-10.672451518298796,-3.9988478966305143,41.619000000006054
312457.3397,-2.2807875281231382,-3.7623815632574513,-11.258542440067341,-4.437398771452993,41.61999999999534
312457.3407,-4.409454180662838,-5.023278274556854,-11.824385056727175,-5.0786721183554056,41.62099999998463
312457.3417,-6.620866397609272,-6.476963989225149,-12.380109314595144,-5.922626268062483,41.62199999997392
312457.3427,-8.866571101117605,-8.075469367650145,-12.923699137413935,-6.949139955702087,41.62299999996321
312457.3437,-11.084766448594666,-9.750699580892025,-13.440412695589927,-8.11838636470466,41.62400000001071
312457.3447,-13.203356810704026,-11.417854431691849,-13.904090286116341,-9.373288874226027,41.625
312457.3457,-15.144742056080554,-12.980748200667088,-14.28020179740065,-10.643859989344003,41.62599999998929
312457.3467,-16.83191706567461,-14.33860628949512,-14.53028833284349,-11.853029858218786,41.62699999997858
312457.3477,-18.195296255296274,-15.393758543073153,-14.61729149021686,-12.923413278289313,41.62799999996787
312457.3487,-19.179574059353868,-16.059546112509565,-14.511155837593014,-13.784360187733267,41.62899999995716
312457.3497,-19.74989733131809,-16.267720527001337,-14.19404672270982,-14.378595106333902,41.63000000000466
312457.3507,-19.896664170741737,-15.9746446281421,-13.664551620501092,-14.66778027664915,41.630999999993946
312457.3517,-19.638373212787794,-15.165702786253345,-12.940326666578311,-14.63643301091428,41.631999999983236
312457.3527,-19.022118231424013,-13.857483429896842,-12.05880192056405,-14.293781030019025,41.632999999972526
312457.3537,-18.121539128275938,-12.097495763264977,-11.075754369314287,-13.673335712445857,41.633999999961816
312457.3547,-17.0322814384743,-9.961405745584731,-10.061777327834356,-12.830183166277845,41.63500000000931
312457.3557,-15.865259116984847,-7.548002658395797,-9.09689673616906,-11.83621544935454,41.6359999999986
312457.3567,-14.738235869576984,-4.972315233183893,-8.26378646298375,-10.773727282824657,41.63699999998789
312457.3577,-13.766416833421326,-2.3574654512555004,-7.640195479200156,-9.727967201498567,41.63799999997718
312457.3587,-13.052857183901002,0.17403744927075976,-7.2913028704022675,-8.779339980347114,41.63899999996647
312457.3597,-12.67953521795953,2.5088114576378913,-7.2627508587471805,-7.995998449755833,41.63999999995576
312457.3607,-12.699899600301194,4.5501949621493925,-7.575066731164512,-7.4275329910920975,41.64100000000326
312457.3617,-13.133586240933628,6.224278403488479,-8.220074432682836,-7.100368526666779,41.64199999999255
312457.3627,-13.963819517277086,7.483883179684615,-9.159725177042652,-7.015320817593349,41.64299999998184
312457.3637,-15.137781509367377,8.310190505641676,-10.327559443177657,-7.147561319054225,41.64399999997113
312457.3647,-16.569972737694233,8.711943109046858,-11.632770466693788,-7.449012061140522,41.64499999996042
312457.3657,-18.148322640275907,8.722367893611416,-12.966594766198378,-7.852960886273089,41.646000000007916
312457.3667,-19.74256237712276,8.394176439880749,-14.210531784203216,-8.28047513861567,41.646999999997206
312457.3677,-21.214169450554042,7.793172553763442,-15.245713978301595,-8.648019058237107,41.647999999986496
312457.3687,-22.427052097754146,6.991115739397031,-15.96262836778606,-8.875563415174048,41.648999999975786
312457.3697,-23.258074721725734,6.058545375327813,-16.270342685354496,-8.894426668587409,41.649999999965075
312457.3707,-23.606540036281377,5.058257663043158,-16.104419141469528,-8.654109999165167,41.65100000001257
312457.3717,-23.401837749995998,4.040047936988318,-15.432804262982037,-8.12748180997953,41.65200000000186
312457.3727,-22.608634652928977,3.037193002642183,-14.25915501903247,-7.3138218208260914,41.65299999999115
312457.3737,-21.229201402809306,2.0649657783633337,-12.62328388093899,-6.239435880876441,41.65399999998044
312457.3747,-19.302726474753968,1.1212658914166143,-10.598658120774866,-4.955780807227579,41.65499999996973
312457.3757,-16.901733793018455,0.1892357117516266,-8.287148174754307,-3.5352720347312534,41.65599999995902
312457.3767,-14.125972749609648,-0.7584672858688609,-5.811462238732765,-2.0651632732169163,41.65700000000652
312457.3777,-11.094364334517785,-1.7542344945963282,-3.3059069841148125,-0.6400660473396437,41.65799999999581
312457.3787,-7.935745334765113,-2.8295117510779955,-0.9062586798285895,0.646199021024707,41.6589999999851
312457.3797,-4.77923992184784,-4.0089026347714585,1.2603981127426593,1.7086696586210566,41.65999999997439
312457.3807,-1.7450972171605796,-5.30501006279627,3.0850121757165567,2.4784923954163314,41.66099999996368
312457.3817,1.063235105319922,-6.71457674232829,4.4843176091321695,2.9087038215671717,41.662000000011176
312457.3827,3.5651697209045112,-8.216348893121218,5.406377120749385,2.978035139761575,41.663000000000466
312457.3837,5.7067339067684,-9.770909224719862,5.833502827525365,2.6924239907701986,41.663999999989755
312457.3847,7.461812436477883,-11.322522461707804,5.7823805878394525,2.08413694710935,41.664999999979045
312457.3857,8.830916179771398,-12.802830131112536,5.301475529455396,1.2086319771777827,41.665999999968335
312457.3867,9.837746756852932,-14.13604156747,4.466036188522856,0.13950066067952277,41.666999999957625
312457.3877,10.524027921096982,-15.24511413725115,3.3712201529160915,-1.0379952618487875,41.66800000000512
312457.3887,10.94322276111102,-16.058312910239763,2.1240164191544553,-2.2341558971098685,41.66899999999441
312457.3897,11.15383873376314,-16.515498651760115,0.8347252240528971,-3.3621477538364943,41.6699999999837
312457.3907,11.21303301930284,-16.57351717032217,-0.391232133229664,-4.3446945665810945,41.67099999997299
312457.3917,11.171169047176972,-16.210150277715012,-1.4604628347044324,-5.119544710308162,41.67199999996228
312457.3927,11.067848755209077,-15.426230156544097,-2.2971290014091874,-5.643240665272435,41.67300000000978
312457.3937,10.929768040667419,-14.245700622904792,-2.8464494590735065,-5.892895649774826,41.67399999999907
312457.3947,10.770533675844517,-12.713612460863096,-3.0759900577963815,-5.8658884343857345,41.67499999998836
312457.3957,10.592360431100648,-10.892245346163257,-2.974782904869397,-5.577598772678812,41.67599999997765
312457.3967,10.389359824173455,-8.855735363221102,-2.5505315545835208,-5.0575017485857785,41.67699999996694
312457.3977,10.151957905338636,-6.6837361204583345,-1.8253440671949417,-4.3441002788597824,41.67799999995623
312457.3987,9.871856374176161,-4.454738072172577,-0.8305709098376566,-3.479285258697002,41.679000000003725
312457.3997,9.546891434076377,-2.2397051403531147,0.3986029227099604,-2.5027617734417658,41.679999999993015
312457.4007,9.185154012172429,-0.09665652647081585,1.8281589159786562,-1.447162943175032,41.680999999982305
312457.4017,8.8078122045696,1.9332723602215245,3.4292518908422718,-0.33439239704450385,41.681999999971595
312457.4027,8.450214108536677,3.8279035169365327,5.1807620803246195,0.8263995188616947,41.682999999960884
312457.4037,8.161032612859472,5.584024921661302,7.070106290699933,2.0389780639814785,41.68400000000838
312457.4047,7.999424658823619,7.215342072865687,9.092226139666977,3.3182981399298432,41.68499999999767
312457.4057,8.030394619034652,8.748588475102094,11.246884035173663,4.687067475415044,41.68599999998696
312457.4067,8.318752782374323,10.218198871455078,13.534596853043112,6.170963442576527,41.68699999997625
312457.4077,8.922225012636376,11.66009805452311,15.951702627846315,7.793019007504544,41.68799999996554
312457.4087,9.884381528372819,13.105253421643408,18.485169812883544,9.567793023203876,41.68900000001304
312457.4097,11.22809968785173,14.573671358375323,21.10780969662908,11.495978215576624,41.69000000000233
312457.4107,12.950252258124971,16.069482463936385,23.774534569381736,13.560072579112827,41.69099999999162
312457.4117,15.018220385405622,17.577661511068364,26.420218265176814,15.721648725950663,41.69199999998091
312457.4127,17.368677598310377,19.062774044654788,28.959569591381513,17.920609495405333,41.6929999999702
312457.4137,19.908891859460088,20.469947230172846,31.28923676819493,20.076630729198722,41.69399999995949
312457.4147,22.52056572163363,21.728046515164138,33.29214089792724,22.0927815302162,41.695000000006985
312457.4157,25.066001610254492,22.75482262590994,34.84381013569553,23.861098874440568,41.695999999996275
312457.4167,27.39616240942603,23.463596364683365,35.82027591904606,25.269697842132484,41.696999999985565
312457.4177,29.360017681285253,23.770890770902923,36.10691925309605,26.21084005809325,41.697999999974854
312457.4187,30.81444033017353,23.60431697032417,35.60753614646346,26.58927679247966,41.698999999964144
312457.4197,31.633859505218858,22.909981794863864,34.25283921573982,26.3301401930703,41.70000000001164
312457.4207,31.718888837871624,21.658716153785296,32.007633207420554,25.385680885824335,41.70100000000093
312457.4217,31.003233628109182,19.850520696750507,28.8759947103944,23.740240789331917,41.70199999999022
312457.4227,29.45832838728469,17.51678064248195,24.903942693106448,21.412998209453374,41.70299999997951
312457.4237,27.095353213373638,14.720000286346563,20.179292540421834,18.45821433374551,41.7039999999688
312457.4247,23.964505105774585,11.551030975880368,14.828622979331385,14.962928122936399,41.70499999995809
312457.4257,20.15163693017452,8.123993171460056,9.011530645052021,11.042269795722936,41.70600000000559
312457.4267,15.772599955554503,4.569302123336675,2.912578139169931,6.832770606435849,41.70699999999488
312457.4277,10.965814755288742,1.025377919700702,-3.2684633043983617,2.4842189253107034,41.70799999998417
312457.4287,5.883732301045129,-2.37026197978906,-9.327334145825944,-1.8492663419433775,41.70899999997346
312457.4297,0.683919948556556,-5.489777119796858,-15.066153113966996,-6.018215342609375,41.70999999996275
312457.4307,-4.47949027113205,-8.222911882491504,-20.3036124107578,-9.886119111257988,41.711000000010245
312457.4317,-9.463320173987023,-10.483388212833278,-24.883756013556315,-13.336427868731917,41.711999999999534
312457.4327,-14.141287982298072,-12.213278890103153,-28.682733121064803,-16.277723308010742,41.712999999988824
312457.4337,-18.408008180304538,-13.385046489715943,-31.6131081890827,-18.64673067455183,41.713999999978114
312457.4347,-22.18088767932645,-14.00114959475425,-33.625531725176714,-20.409042129026528,41.714999999967404
312457.4357,-25.399971830670793,-14.091340324200775,-34.707810554502686,-21.557635859430754,41.71599999995669
312457.4367,-28.02599554510841,-13.70798455613247,-34.8816402447703,-22.109475060926044,41.71700000000419
312457.4377,-30.037063645930377,-12.919908668007862,-34.19745470181381,-22.10063809264856,41.71799999999348
312457.4387,-31.424504072805288,-11.80539804620328,-32.727990881843326,-21.580550080713547,41.71899999998277
312457.4397,-32.188496294390426,-10.445031966818279,-30.5612474257048,-20.605946087255862,41.71999999997206
312457.4407,-32.33407016998754,-8.915031784398451,-27.79352836095832,-19.235191760125996,41.72099999996135
312457.4417,-31.8679991541919,-7.281726325972664,-24.5232072100361,-17.523520552241976,41.72200000000885
312457.4427,-30.79698433106461,-5.597607990478867,-20.845729970353784,-15.51962478865733,41.72299999999814
312457.4437,-29.127356147328317,-3.8992788622810135,-16.850210531546022,-13.263874104397772,41.72399999998743
312457.4447,-26.86632700391681,-2.2073859081384843,-12.617776818168606,-10.788246200883595,41.72499999997672
312457.4457,-24.024630603602937,-0.5284381985381033,-8.221620778579174,-8.117860958709034,41.72599999996601
312457.4467,-20.620204030109385,1.1417923486506696,-3.7285115485678215,-5.273829599139202,41.7269999999553
312457.4477,-16.682425084641785,2.813742999673041,0.798631372824233,-2.276984137296567,41.728000000002794
312457.4487,-12.25632587746538,4.4989699689591225,5.297622688181658,0.8480462422745733,41.728999999992084
312457.4497,-7.406174267297072,6.205109897237756,9.70392643014722,4.068985965738519,41.72999999998137
312457.4507,-2.217851375711478,7.9314919195896865,13.948164548075312,7.342843698972274,41.73099999997066
312457.4517,3.200446711828984,9.665921903302717,17.954708137281344,10.614094146986195,41.73199999995995
312457.4527,8.719501061796224,11.383029113223051,21.64171079803371,13.814449188718443,41.73300000000745
312457.4537,14.192480767257335,13.04439378201651,24.92277152717433,16.864385060423412,41.73399999999674
312457.4547,19.460384242021227,14.600479440940346,27.71021811785133,19.676399997556945,41.73499999998603
312457.4557,24.359210325226922,15.994196312238564,29.919801945732534,22.159783255552288,41.73599999997532
312457.4567,28.72836874214875,17.165741793408753,31.476412467782446,24.22650168150703,41.73699999996461
312457.4577,32.419691516794344,18.05821958250443,32.32027435436856,25.797672196478587,41.73800000001211
312457.4587,35.30631645955977,18.62344524768677,32.412997905047234,26.810002303392153,41.7390000000014
312457.4597,37.29069097967608,18.82731291774317,31.742824988855688,27.221555641663755,41.73999999999069
312457.4607,38.31099280890202,18.654129085778735,30.328452538754174,27.016239210662416,41.74099999997998
312457.4617,38.34538045662753,18.10941263496263,28.22092107512795,26.206510288915943,41.741999999969266
312457.4627,37.41366036961062,17.220806247300157,25.503217609521037,24.833955197413953,41.742999999958556
312457.4637,35.576174113660365,16.036929109076652,22.287445542543818,22.967584464043732,41.744000000006054
312457.4647,32.92994743176632,14.62420606643151,18.709639404590114,20.699901256142297,41.74499999999534
312457.4657,29.602381402809932,13.061913708634012,14.922527601287472,18.141011600416718,41.74599999998463
312457.4667,25.742981553091667,11.435868685775537,11.086749493628194,15.411235179611065,41.74699999997392
312457.4677,21.51379305639583,9.831329185273647,7.361193805354644,12.63282552846312,41.74799999996321
312457.4687,17.07932247224344,8.325771908986537,3.893227035692456,9.921503125921625,41.74900000001071
312457.4697,12.59676780388948,6.982234355102069,0.8096123363181419,7.37853431586489,41.75
312457.4707,8.20734470829882,5.843872193706272,-1.791123073347035,5.0840495495241935,41.75099999998929
312457.4717,4.029390331086439,4.930277131003371,-3.8442275456322963,3.092189138553039,41.75199999997858
312457.4727,0.15375727772966777,4.235941344628652,-5.3217024322992215,1.4285029437946397,41.75299999996787
312457.4737,-3.3582054949152305,3.73105527518492,-6.232468806741163,0.08982713054430556,41.75399999995716
312457.4747,-6.4740302042509965,3.3646052550202397,-6.6197210092939445,-0.9533646656287191,41.75500000000466
312457.4757,-9.187057072358929,3.069517333230604,-6.555712828689327,-1.7523653719563985,41.755999999993946
312457.4767,-11.5113269677359,2.7693950574476354,-6.134449291592769,-2.3738298769991997,41.756999999983236
312457.4777,-13.475040545253762,2.3862413102233737,-5.462941531797799,-2.892164401878709,41.757999999972526
312457.4787,-15.113309735507451,1.8484531511239704,-4.65180645821603,-3.381422808231213,41.758999999961816
312457.4797,-16.460981640600462,1.0983441977258748,-3.806045000797635,-3.9074664168563253,41.76000000000931
312457.4807,-17.54629300184728,0.09848521588465053,-3.016807485228745,-4.521116460210666,41.7609999999986
312457.4817,-18.386017595326344,-1.163742679076112,-2.354854426841223,-5.25293224929602,41.76199999998789
312457.4827,-18.982608492229293,-2.6738259737409122,-1.8662551676540093,-6.110092533624091,41.76299999997718
312457.4837,-19.32362765151136,-4.39026681243799,-1.5706510225248673,-7.075657114333012,41.76399999996647
312457.4847,-19.38351711680235,-6.247211641169862,-1.462164461583436,-8.110259581233827,41.76499999995576
312457.4857,-19.127522307938886,-8.159340457715045,-1.5127846810905154,-9.156051609550259,41.76600000000326
312457.4867,-18.517352258957974,-10.028586136913846,-1.67782664053517,-10.142506508477789,41.76699999999255
312457.4877,-17.517976188575453,-11.752082722331876,-1.902867494332874,-10.993514901474132,41.76799999998184
312457.4887,-16.10482869700396,-13.230627227816376,-2.131429688944498,-11.635085133049786,41.76899999997113
312457.4897,-14.270639773109124,-14.376892265848888,-2.3126165651522084,-12.002906593105898,41.76999999996042
312457.4907,-12.031126457746034,-15.122651182154728,-2.4079199698298868,-12.049050648890981,41.771000000007916
312457.4917,-9.428878841741586,-15.424370937955011,-2.3965085762851372,-11.74716948401042,41.771999999997206
312457.4927,-6.5349352303714126,-15.26668172225925,-2.278461487604336,-11.095699434699144,41.772999999986496
312457.4937,-3.447754522282289,-14.663431414757946,-2.0756189778532463,-10.118768138936575,41.773999999975786
312457.4947,-0.289537924596386,-13.656258438874104,-1.829960692973082,-8.86472529091082,41.774999999965075
312457.4957,2.799896153791221,-12.310846642366634,-1.599668090118938,-7.402443714507758,41.77600000001257
312457.4967,5.6712448058530684,-10.711238623523935,-1.453258421539187,-5.81574897054153,41.77700000000186
312457.4977,8.175225103838589,-8.952759126121197,-1.4623698497135262,-4.196511493859902,41.77799999999115
312457.4987,10.172675463475004,-7.134221199026921,-1.6939127658335433,-2.6370585530658786,41.77899999998044
312457.4997,11.544410731432064,-5.350143503967746,-2.2023680880273013,-1.2226225300111289,41.77999999996973
312457.5007,12.199996835733566,-3.683692592741131,-3.0230030610942573,-0.02453179607579556,41.78099999995902
312457.5017,12.084696251038693,-2.2009811431613096,-4.166690070776638,0.9052277394942115,41.78200000000652
312457.5027,11.183989232426947,-0.9472106506506999,-5.6168626611387,1.5375904650429817,41.78299999999581
312457.5037,9.525283211389795,0.055040708079943074,-7.32894012106597,1.8678225558111088,41.7839999999851
312457.5047,7.176664379175019,0.8052986874829675,-9.23231741152659,1.9146734263404066,41.78499999997439
312457.5057,4.2427986714668755,1.3225754766212312,-11.234773536096437,1.7173924601615533,41.78599999996368
312457.5067,0.8583305851248625,1.640991107399422,-13.228922168612865,1.3309408994161074,41.787000000011176
312457.5077,-2.8206646648660407,1.8041383759444014,-15.100135387206265,0.8198990647109918,41.788000000000466
312457.5087,-6.6264659029578175,1.8588113124999477,-16.735233047564076,0.2516887315782951,41.788999999989755
312457.5097,-10.389930010037679,1.8487695738155157,-18.031159621533348,-0.3102117621451255,41.789999999979045
312457.5107,-13.950343008751071,1.80919574846939,-18.902873614004886,-0.8123913942058907,41.790999999968335
312457.5117,-17.16414487650439,1.7624215331913629,-19.28975118454845,-1.2163758886621865,41.791999999957625
312457.5127,-19.911900051319364,1.7153605951866513,-19.15994754132033,-1.5017817835571183,41.79300000000512
312457.5137,-22.103064237636023,1.658904808037826,-18.512353006658316,-1.6674709049578453,41.79399999999441
312457.5147,-23.67831213074414,1.5693347305837344,-17.376006493089747,-1.7306241344146844,41.7949999999837
312457.5157,-24.609419036105688,1.411585327927732,-15.807065595117939,-1.7238626966127024,41.79599999997299
312457.5167,-24.89691004437476,1.144014952828554,-13.883656848569236,-1.6907400682422902,41.79699999996228
312457.5177,-24.56588255259322,0.7241686971346839,-11.6991205224383,-1.6800888830358622,41.79800000000978
312457.5187,-23.66055375017533,0.11492193262213979,-9.354303571616681,-1.73981916465915,41.79899999999907
312457.5197,-22.238171276597594,-0.7096534161229029,-6.949629196531375,-1.910816080053806,41.79999999998836
312457.5207,-20.362945667596797,-1.759334346316503,-4.577675272176597,-2.2215723598849655,41.80099999997765
312457.5217,-18.100617099025484,-3.024251558324953,-2.316927110743145,-2.6841141783620284,41.80199999996694
312457.5227,-15.514162528171829,-4.473258862989865,-0.22723986329124285,-3.2916474443275403,41.80299999995623
312457.5237,-12.66099471220833,-6.0543890504669005,1.652634271286719,-4.018177384192166,41.804000000003725
312457.5247,-9.591818471991452,-7.697411469796205,3.305310800630229,-4.820155364387657,41.804999999993015
312457.5257,-6.35111162443261,-9.318297302261163,4.732908992461154,-5.640002874616931,41.805999999982305
312457.5267,-2.9790088544054893,-10.82520726446577,5.953349665985222,-6.411173694652813,41.806999999971595
312457.5277,0.4857940251048416,-12.125462190868177,6.9952839689412,-7.064260185080367,41.807999999960884
312457.5287,4.002613965401226,-13.132854942221712,7.892251375725136,-7.533543697295994,41.80900000000838
312457.5297,7.525390599439232,-13.774622557084253,8.67673180432998,-7.76334274057632,41.80999999999767
312457.5307,10.999886761984417,-13.997424558037078,9.374754833488751,-7.713530327501025,41.81099999998696
312457.5317,14.361968755152915,-13.77176434173025,10.001659114518391,-7.363672052484077,41.81199999997625
312457.5327,17.537334818909585,-13.094436805499965,10.559464618569226,-6.715370982862751,41.81299999996554
312457.5337,20.44289694609957,-11.988772517932256,11.036142800139778,-5.7925810163587945,41.81400000001304
312457.5347,22.989832286111874,-10.502658491878547,11.406863269896311,-4.639849576375693,41.81500000000233
312457.5357,25.08812570062733,-8.704527376236951,11.637081237796018,-3.3186536285541086,41.81599999999162
312457.5367,26.652245081673193,-6.677699834141505,11.687129694785925,-1.9021798738410984,41.81699999998091
312457.5377,27.607444960446863,-4.513620042874172,11.517814538458468,-0.46905208357750716,41.8179999999702
312457.5387,27.8960975363748,-2.3046263759014716,11.096396650590277,0.9033891766660206,41.81899999995949
312457.5397,27.48341438060362,-0.13693838670243988,10.402294159020068,2.1456068492792446,41.820000000006985
312457.5407,26.361951445138146,1.9154865797071148,9.431856229335668,3.201561884157736,41.820999999996275
312457.5417,24.55438272759116,3.7956656376825393,8.201645237618138,4.0330397358209495,41.821999999985565
312457.5427,22.114175598855972,5.4664566301881585,6.749808744904223,4.622203784658917,41.822999999974854
312457.5437,19.123989310122926,6.911350481350683,5.135311985370839,4.972147543181643,41.823999999964144
312457.5447,15.691829177960166,8.133170258897602,3.435016671715297,5.105416614574304,41.82500000001164
312457.5457,11.945201566569173,9.15086705809468,1.7388112109727811,5.060672828060019,41.82600000000093
312457.5467,8.023707845770463,9.99479241823624,0.14319880497743387,4.8878567530937005,41.82699999999022
312457.5477,4.070669576221034,10.700977871992647,-1.256087002470337,4.64235264613538,41.82799999997951
312457.5487,0.2244765729002012,11.305049432078059,-2.371761581681478,4.378757159193984,41.8289999999688
312457.5497,-3.3896161307323203,11.836438694421393,-3.132243394380175,4.144890232820244,41.82999999995809
312457.5507,-6.6665510144217315,12.313519419048944,-3.4877917171676294,3.9766598909302777,41.83100000000559
312457.5517,-9.526799853544503,12.740202184513976,-3.41493323166926,3.894304869598769,41.83199999999488
312457.5527,-11.919531403261947,13.10436952665873,-2.9187384495654847,3.9003989186987904,41.83299999998417
312457.5537,-13.823381033865047,13.378344732618203,-2.032708444105091,3.9798221575583503,41.83399999997346
312457.5547,-15.244810078437263,13.521377899290018,-0.816256272076847,4.10170576851929,41.83499999996275
312457.5557,-16.214265428377672,13.483923737265474,0.650006067627139,4.223156322303713,41.836000000010245
312457.5567,-16.780552153485043,13.21329764400173,2.2707573827568943,4.294384962824183,41.836999999999534
312457.5577,-17.003994017216495,12.660148470398942,3.9436487913270137,4.264722470358728,41.837999999988824
312457.5587,-16.949063001396173,11.785092970476269,5.567480786012089,4.088908162463221,41.838999999978114
312457.5597,-16.677199097200308,10.564827637057618,7.050135116393284,3.7330079351877394,41.839999999967404
312457.5607,-16.240511865903606,8.997071719316157,8.315547092660214,3.1793478109265556,41.84099999995669
312457.5617,-15.676958655738042,7.103797354320099,9.309098435829156,2.4299412105674065,41.84200000000419
312457.5627,-15.007440442918888,4.9323593377226995,10.000964143283163,1.508031917744733,41.84299999999348
312457.5637,-14.235060205379703,2.5543331933794455,10.387143954772778,0.4575563811949386,41.84399999998277
312457.5647,-13.346569815445509,0.06208707075549664,10.488130631262989,-0.6594690793237149,41.84499999997206
312457.5657,-12.315811168368993,-2.436670283922948,10.34539181231916,-1.7674281152995777,41.84599999996135
312457.5667,-11.10875729924383,-4.825927621211656,10.016047897807667,-2.783059897996784,41.84700000000885
312457.5677,-9.689599251133862,-6.98940195689053,9.566295317480451,-3.6223528302172796,41.84799999999814
312457.5687,-8.027220200696938,-8.818868363969536,9.064236664017654,-4.207744079741064,41.84899999998743
312457.5697,-6.1013601183310096,-10.222060033017094,8.572825832411134,-4.474958516365059,41.84999999997672
312457.5707,-3.907805844346706,-11.129443525309364,8.143613328497137,-4.378850694793167,41.85099999996601
312457.5717,-1.4620398271381105,-11.499273593407128,7.811886919190597,-3.897704891895978,41.8519999999553
312457.5727,1.1990637798560944,-11.32048777963237,7.593655009254743,-3.0355920689804172,41.853000000002794
312457.5737,4.0177097729262385,-10.613198357490873,7.48472942475726,-1.8225650493595897,41.853999999992084
312457.5747,6.917814005596117,-9.426759132871664,7.461949746352354,-0.31267646676936717,41.85499999998137
312457.5757,9.809571820629168,-7.835606026507331,7.486374377390976,1.4199916064064082,41.85599999997066
312457.5767,12.595539357504212,-5.933271908047029,7.5080657817128005,3.28691186998311,41.85699999995995
312457.5777,15.177647368454954,-3.8251384565717483,7.47193849697314,5.191786605542148,41.85800000000745
312457.5787,17.464467547034687,-1.6205953183634374,7.324034468577583,7.037692318214077,41.85899999999674
312457.5797,19.378019319742254,0.5746806845960318,7.017551362948722,8.734036537811187,41.85999999998603
312457.5807,20.859444215011674,2.6656399073402652,6.51797972851104,10.202696244803075,41.86099999997532
312457.5817,21.87298190358452,4.573373702161764,5.806801207002727,11.382795691623548,41.86199999996461
312457.5827,22.4078466506537,6.23878244666026,4.883352861825553,12.233721961483614,41.86300000001211
312457.5837,22.477809297128946,7.624142958891298,3.7646567910015025,12.736155400601094,41.8640000000014
312457.5847,22.118517809096904,8.712533519092121,2.48323003077595,12.89109127349067,41.86499999999069
312457.5857,21.38281643009838,9.505289166212153,1.0831055433382848,12.71702882578266,41.86599999997998
312457.5867,20.33452698552857,10.017854512194367,-0.3855111053904268,12.245684558646452,41.866999999969266
312457.5877,19.041315506296,10.27455675297445,-1.8723728128813943,11.516730013413921,41.867999999958556
312457.5887,17.56736680716004,10.302922513121754,-3.3334389227813195,10.57214652405963,41.869000000006054
312457.5897,15.966618510478936,10.128198744028023,-4.736542925260056,9.450821114080297,41.86999999999534
312457.5907,14.277260639373454,9.76870662562532,-6.065827708297162,8.183975893837824,41.87099999998463
312457.5917,12.518090957707448,9.232561579586383,-7.3244090365400565,6.791931165947323,41.87199999997392
312457.5927,10.687140288440114,8.516141797878277,-8.534898209443966,5.282559172769304,41.87299999996321
312457.5937,8.762762622301908,7.6044972990964785,-9.737626361048243,3.65160530617854,41.87400000001071
312457.5947,6.707142827335057,6.473680582732557,-10.986645152010468,1.8848546024685557,41.875
312457.5957,4.471933435606405,5.094769665453672,-12.343808933324715,-0.038076674997558124,41.87599999998929
312457.5967,2.005514677966241,3.439165838484773,-13.871449030796198,-2.1387217949576613,41.87699999997858
312457.5977,-0.7388001251406806,1.4846009561677802,-15.624310980876242,-4.434052716751633,41.87799999996787
312457.5987,-3.794401519658441,-0.7788024609934584,-17.6415239151022,-6.9306996555941005,41.87899999995716
312457.5997,-7.173687330091424,-3.343100938818842,-19.93939724829158,-9.619747382879513,41.88000000000466
312457.6007,-10.861815434016993,-6.1783693221619735,-22.505789684638454,-12.472714333554702,41.880999999993946
312457.6017,-14.812573155718875,-9.23034123403485,-25.296672935635453,-15.439219112204396,41.881999999983236
312457.6027,-18.946850688900952,-12.420218980691653,-28.235328075364578,-18.44668562700558,41.882999999972526
312457.6037,-23.153978286304763,-15.646817998593963,-31.214382809213983,-21.402247278320157,41.883999999961816
312457.6047,-27.295932406617805,-18.790987412783085,-34.10064424452108,-24.196800548606905,41.88500000000931
312457.6057,-31.214158133300657,-21.722025934229034,-36.74242764838144,-26.710949125656672,41.8859999999986
312457.6067,-34.73851789279921,-24.30561274870266,-38.97885101677794,-28.82239153348769,41.88699999998789
312457.6077,-37.69768182675875,-26.41261577284065,-40.65037987602357,-30.414156442528274,41.88799999997718
312457.6087,-39.93014116819042,-27.928040258861746,-41.60978427173547,-31.382995020248206,41.88899999996647
312457.6097,-41.294965014112485,-28.759349333636067,-41.73262220568934,-31.647208418786178,41.88999999995576
312457.6107,-41.681438517162846,-28.843428306200387,-40.92639568527081,-31.153224305398474,41.89100000000326
312457.6117,-41.01681492241087,-28.151573263522423,-39.13763438306621,-29.8803363587985,41.89199999999255
312457.6127,-39.27157606891797,-26.69205181421649,-36.35633771958338,-27.843175863490377,41.89299999998184
312457.6137,-36.46181066837572,-24.509994386274265,-32.61743268552318,-25.091680605016744,41.89399999997113
312457.6147,-32.64856673358763,-21.684608588133045,-27.999160812470475,-21.708544910590906,41.89499999996042
312457.6157,-27.93429090926005,-18.32394482662803,-22.61856949627018,-17.804355382045422,41.896000000007916
312457.6167,-22.456709393874497,-14.557656446997266,-16.6245259985379,-13.51081886865131,41.896999999997206
312457.6177,-16.380710426032326,-10.528371846420326,-10.18887438151322,-8.972653510521544,41.897999999986496
312457.6187,-9.888938404156658,-6.38241292207959,-3.496497887077,-4.338824820271116,41.898999999975786
312457.6197,-3.1718915076565932,-2.2606429273789526,3.2648808137666574,0.24614358167695205,41.899999999965075
312457.6207,3.5816782555360427,1.7097970599815235,9.914337136707605,4.650075052536633,41.90100000001257
312457.6217,10.193330540065205,5.422197729311743,16.286079629701554,8.759636871047402,41.90200000000186
312457.6227,16.501868584150788,8.79492644777578,22.235893273535666,12.484947556336266,41.90299999999115
312457.6237,22.368223212517325,11.773696956023551,27.64530394345197,15.761998456046223,41.90399999998044
312457.6247,27.678092113009868,14.33137970623704,32.423309920294194,18.552803671264154,41.90499999996973
312457.6257,32.34236589688628,16.465499419747598,36.50576693517882,20.843406937777047,41.90599999995902
312457.6267,36.29558879290956,18.193779332719533,39.85273777792699,22.640072283702423,41.90700000000652
312457.6277,39.49288492510715,19.548266371577643,42.44430418553416,23.964148116386085,41.90799999999581
312457.6287,41.90591330400442,20.568691701582775,44.27546971824174,24.84620640886294,41.9089999999851
312457.6297,43.51848354570775,21.2957756932118,45.35084548580878,25.32010947683121,41.90999999997439
312457.6307,44.322464036171,21.765170795530747,45.67980060115218,25.41764214094175,41.91099999996368
312457.6317,44.31454591865438,22.002652418223345,45.272678111231706,25.164268992618723,41.912000000011176
312457.6327,43.494297903490754,22.021025640462458,44.13853393526907,24.57644337649933,41.913000000000466
312457.6337,41.8637725061337,21.819029015954044,42.28466618979141,23.66072028597216,41.913999999989755
312457.6347,39.42872252691414,21.382304783601853,39.717984944723376,22.414727349124433,41.914999999979045
312457.6357,36.20127871674945,20.68628862397666,36.448050300645384,20.829846402515116,41.915999999968335
312457.6367,32.20374751474216,19.700673176282585,32.49140248080391,18.895273013899644,41.916999999957625
312457.6377,27.473031755072746,18.39493744512866,27.87664234022502,16.602971200828353,41.91800000000512
312457.6387,22.065073924134555,16.74432480616977,22.64961137337351,13.952940440524984,41.91899999999441
312457.6397,16.058682186494547,14.73560608396967,16.877978461814415,10.958171820742942,41.9199999999837
312457.6407,9.558128815621119,12.371985332131684,10.65457107117333,7.648693821336543,41.92099999997299
312457.6417,2.694006735114469,9.676592010054684,4.098889047275013,4.074193380302492,41.92199999996228
312457.6427,-4.378016289116104,6.694145323829752,-2.6435997034488214,0.3048361273727104,41.92300000000978
312457.6437,-11.480709449346763,3.4905601769464916,-9.404575860038571,-3.5699127491419036,41.92399999999907
312457.6447,-18.420999764069325,0.15047099849782364,-15.998359884792878,-7.444466206889926,41.92499999998836
312457.6457,-24.99762254353119,-3.2271409935484874,-22.229505048376414,-11.202089513033554,41.92599999997765
312457.6467,-31.010219632298018,-6.534840615620256,-27.9020046004655,-14.721285412597112,41.92699999996694
312457.6477,-36.26924181781403,-9.663621534144678,-32.829451598131264,-17.883057677817963,41.92799999995623
312457.6487,-40.60590709876963,-12.510147837699677,-36.845374548380335,-20.578424058060204,41.929000000003725
312457.6497,-43.88142996337831,-14.98368437950569,-39.81292686519928,-22.71551375265994,41.929999999993015
312457.6507,-45.9947729028656,-17.0120732495588,-41.63313823487085,-24.22561280091614,41.930999999982305
312457.6517,-46.88827749959645,-18.546204328484407,-42.251039176613084,-25.067610640536873,41.931999999971595
312457.6527,-46.5506991917861,-19.562572621217107,-41.659137228640816,-25.230443914250934,41.932999999960884
312457.6537,-45.017381934800845,-20.063699552108922,-39.897939009668015,-24.73331561446502,41.93400000000838
312457.6547,-42.36754674567592,-20.076401331026894,-37.053456977203275,-23.623671242207394,41.93499999999767
312457.6557,-38.71890933082847,-19.64809452213576,-33.25189036768998,-21.973119126516035,41.93599999998696
312457.6567,-34.22006411955681,-18.841516669707833,-28.651903347094045,-19.871669551828756,41.93699999997625
312457.6577,-29.04125436981602,-17.72838983010223,-23.435118286414223,-17.420818799422683,41.93799999996554
312457.6587,-23.364273735311674,-16.38265246932285,-17.795580501927645,-14.726105085663287,41.93900000001304
312457.6597,-17.372302398650138,-14.87392095453722,-11.92902038780905,-11.88980407975632,41.94000000000233
312457.6607,-11.240465728139906,-13.261812451278546,-6.022733827964704,-9.004408479140075,41.94099999999162
312457.6617,-5.127817511469494,-11.59166951401621,-0.2468234180299332,-6.147451501776432,41.94199999998091
312457.6627,0.8286980206082152,-9.892082207406867,5.25260039377435,-3.378096574778663,41.9429999999702
312457.6637,6.517946300663528,-8.17442058636554,10.35785328065204,-0.7357385406297294,41.94399999995949
312457.6647,11.855828996164162,-6.434386927542669,14.981567000491628,1.759337254333484,41.945000000006985
312457.6657,16.78413156378116,-4.655393353177341,19.066091929377485,4.103393102183624,41.945999999996275
312457.6667,21.26730133124868,-2.813386531778439,22.580691802750376,6.305113746732119,41.946999999985565
312457.6677,25.28764531298983,-0.8825951171445429,25.516999687763686,8.380406540334176,41.947999999974854
312457.6687,28.839564701371355,1.1584181133309497,27.883342424218885,10.346715286670932,41.948999999964144
312457.6697,31.923507447765047,3.3210496063996615,29.69861549661687,12.217476642306607,41.95000000001164
312457.6707,34.540316495024584,5.601911469894499,30.98639555888286,13.997325584391234,41.95100000000093
312457.6717,36.68658069743399,7.979574482766715,31.76991451680103,15.678573620517701,41.95199999999022
312457.6727,38.35146641313649,10.413174748624224,32.0683947962484,17.239348494211963,41.95299999997951
312457.6737,39.51533397156677,12.84307674469848,31.895073728206313,18.643610623211362,41.9539999999688
312457.6747,40.15024274928202,15.19358142252647,31.257043954386443,19.843066692730684,41.95499999995809
312457.6757,40.222241921347,17.377464235299975,30.156827224401763,20.780804105992843,41.95600000000559
312457.6767,39.69515198645389,19.30194458507135,28.595402396974,21.396290952759813,41.95699999999488
312457.6777,38.5353841173675,20.875543306481603,26.57624487317693,21.631242634541234,41.95799999998417
312457.6787,36.71723591558307,22.01519277460781,24.10982061277193,21.435762616391656,41.95899999997346
312457.6797,34.22805378196337,22.652934203096994,21.217924745391425,20.774130362946543,41.95999999996275
312457.6807,31.072668231244943,22.741571750724464,17.93726778523161,19.629637893727605,41.961000000010245
312457.6817,27.276586882588262,22.258749836755413,14.321790051612945,18.00796486190197,41.961999999999534
312457.6827,22.88756202225619,21.209069142478516,10.443318976383836,15.93872194794185,41.962999999988824
312457.6837,17.97532157029707,19.624043538373463,6.390360679519207,13.474969863328967,41.963999999978114
312457.6847,12.6294459667088,17.559906271089016,2.2650182973143287,10.690718807877289,41.964999999967404
312457.6857,6.955568693949421,15.093478881180186,-1.8217656905911503,7.6766112107610835,41.96599999995669
312457.6867,1.070254491782402,12.316500274181465,-5.7562586519985635,4.534169309896815,41.96700000000419
312457.6877,-4.904951656424323,9.328957971583938,-9.428743805893236,1.3691307499727885,41.96799999999348
312457.6887,-10.849724618379824,6.23205453037711,-12.740450959781564,-1.715514290164751,41.96899999998277
312457.6897,-16.650802340464235,3.121470440388478,-15.609945939962175,-4.626141028851172,41.96999999997206
312457.6907,-22.20690473743584,0.0815476889574797,-17.978346343976572,-7.284153336183653,41.97099999996135
312457.6917,-27.432259891039816,-2.819080681539682,-19.81282996383503,-9.630176662331586,41.97200000000885
312457.6927,-32.25841900653962,-5.530040465851171,-21.108056842478497,-11.626410297226727,41.97299999999814
312457.6937,-36.63422676235297,-8.019758729771748,-21.885321589573163,-13.256950835105057,41.97399999998743
312457.6947,-40.524015135778804,-10.27401768421325,-22.189470214806107,-14.526099813505132,41.97499999997672
312457.6957,-43.9042854772072,-12.29274228626202,-22.083833898674445,-15.454868510137548,41.97599999996601
312457.6967,-46.75931475132594,-14.08542444105578,-21.643629135280925,-16.076071893749276,41.9769999999553
312457.6977,-49.076249045371064,-15.665726298367924,-20.948429782139762,-16.428543840056374,41.978000000002794
312457.6987,-50.84031651304879,-17.04588965527681,-20.074415847762207,-16.551092848262943,41.978999999992084
312457.6997,-52.03079449912769,-18.23159920159822,-19.087135912547232,-16.476842747039598,41.97999999998137
312457.7007,-52.61829999254816,-19.217901913713096,-18.035481004664973,-16.228563487397338,41.98099999997066
312457.7017,-52.5638440647325,-19.986677531054045,-16.94746056755288,-15.815496708944513,41.98199999995995
312457.7027,-51.819911369057714,-20.505996137711847,-15.828205558755258,-15.232029019852625,41.98300000000745
312457.7037,-50.33361233865622,-20.731503993876306,-14.660415166071978,-14.45837765376865,41.98399999999674
312457.7047,-48.051729424675244,-20.609767143766003,-13.407231846242148,-13.46324683728905,41.98499999998603
312457.7057,-44.927262282754555,-20.08329495716529,-12.017296488403,-12.208209161418107,41.98599999997532
312457.7067,-40.92689242134624,-19.096783326212364,-10.431523824462152,-10.653384708191162,41.98699999996461
312457.7077,-36.03865488760801,-17.603978078655107,-8.590968175786896,-8.763849727444676,41.98800000001211
312457.7087,-30.279037760300834,-15.574477465443957,-6.445037766286146,-6.516120474802132,41.9890000000014
312457.7097,-23.698737951539044,-12.999776949197951,-3.9592731706249777,-3.9040352940792267,41.98999999999069
312457.7107,-16.38638530862922,-9.897912145939488,-1.1219364525381594,-0.9434018544885621,41.99099999997998
312457.7117,-8.46970006691905,-6.316172178813913,2.051240384714767,2.3251171282997483,41.991999999969266
312457.7127,-0.11375825877431635,-2.3315251712710903,5.514635216326225,5.83524722101528,41.992999999958556
312457.7137,8.483713031394661,1.9513957899749643,9.192921186847887,9.496645363985168,41.994000000006054
312457.7147,17.099826342772122,6.404673754854141,12.983897928685732,13.198697677703487,41.99499999999534
312457.7157,25.49637327423516,10.883563310499301,16.763767323091304,16.816312889479324,41.99599999998463
312457.7167,33.43135579115561,15.234532154687837,20.3944292289045,20.217260507310478,41.99699999997392
312457.7177,40.671386969925535,19.304249040384263,23.732188590987278,23.27045184824111,41.99799999996321
312457.7187,47.004043413605714,22.948784935314368,26.637137904713356,25.854466396724664,41.99900000001071
312457.7197,52.249236012874086,26.042268290728142,28.982420071037275,27.86559508587226,42.0
312457.7207,56.26873210508417,28.48427943384747,30.66259160871469,29.22470914464089,42.00099999998929
312457.7217,58.97310493744264,30.205379275272843,31.600393312851487,29.882364827724132,42.00199999997858
312457.7227,60.32559307856575,31.1703334420335,31.75138616500904,29.821711146269386,42.00299999996787
312457.7237,60.3426045057272,31.378798976649172,31.106109916521213,29.058964864051156,42.00399999995716
312457.7247,59.0908747682524,30.863467422404433,29.68965090717617,27.64143585504665,42.00500000000466
312457.7257,56.68156105300776,29.6858840160766,27.5587421624783,25.643305680855335,42.005999999993946
312457.7267,53.26179956047849,27.930366485007312,24.796739804442097,23.1595620841248,42.006999999983236
312457.7277,49.004450287961156,25.69660937989472,21.507004073084648,20.29865305632009,42.007999999972526
312457.7287,44.09688366355916,23.091665732946883,17.80534322888161,17.174531010268197,42.008999999961816
312457.7297,38.72971626762523,20.222037331357534,13.812242147796814,13.898800368471756,42.01000000000931
312457.7307,33.08637417674825,17.186574661282474,9.645589009699707,10.573656756166189,42.0109999999986
312457.7317,27.334255954360064,14.070790969502902,5.414534769380981,7.286215722400734,42.01199999998789
312457.7327,21.618093930923777,10.943041691096528,1.2149797443501642,4.104682572893791,42.01299999997718
312457.7337,16.05588929800235,7.852825959707957,-2.873005549374944,1.0766269896676746,42.01399999996647
312457.7347,10.737545357982532,4.831250303741865,-6.78573278568617,-1.7705848369244108,42.01499999995576
312457.7357,5.726068153829711,1.8934773038358113,-10.474548774328326,-4.427361085350742,42.01600000000326
312457.7367,1.0609689154675295,-0.9572146643647488,-13.902918810541324,-6.897813330858122,42.01699999999255
312457.7377,-3.23668962879155,-3.7242911366694385,-17.04243465284447,-9.194555807144566,42.01799999998184
312457.7387,-7.15829325488457,-6.412372577035447,-19.868350734203528,-11.332990944451161,42.01899999997113
312457.7397,-10.701473047050687,-9.021864712424783,-22.3552953677396,-13.325738161061025,42.01999999996042
312457.7407,-13.864433230096095,-11.544443783236796,-24.473776193936747,-15.177837001921304,42.021000000007916
312457.7417,-16.641454299364177,-13.959934771279082,-26.18800373314901,-16.883265853828743,42.021999999997206
312457.7427,-19.020062134343664,-16.234967918377734,-27.45540343590733,-18.42317280732309,42.022999999986496
312457.7437,-20.980152814575817,-18.323606303143606,-28.22799085179296,-19.766030407566102,42.023999999975786
312457.7447,-22.495135291426898,-20.169924301386313,-28.455566677764974,-20.869719657216642,42.024999999965075
312457.7457,-23.534923165668427,-21.712304881113283,-28.09047110208439,-21.68534146441133,42.02600000001257
312457.7467,-24.070396005102396,-22.889034275031698,-27.093442744178063,-22.162366611912617,42.02700000000186
312457.7477,-24.078781188094002,-23.64462484051955,-25.439977130683978,-22.254587116205755,42.02799999999115
312457.7487,-23.54929621686691,-23.936205965765076,-23.126489300088714,-21.926237546671725,42.02899999998044
312457.7497,-22.488349941059546,-23.739298209137853,-20.17556512028438,-21.157624138230386,42.02999999996973
312457.7507,-20.923633316222805,-23.05233040394455,-16.639639565186172,-19.94963570749223,42.03099999995902
312457.7517,-18.906532975617868,-21.899369295714404,-12.60256349003413,-18.3266101907401,42.03200000000652
312457.7527,-16.512463775585395,-20.33069598915355,-8.178702325818493,-16.337184471678867,42.03299999999581
312457.7537,-13.83892335352071,-18.421067180953575,-3.509433589358493,-14.05294810541169,42.0339999999851
312457.7547,-11.001302008720163,-16.26572204275752,1.2428461144948242,-11.564934730788332,42.03499999997439
312457.7557,-8.126711942060314,-13.974415924409282,5.902853354535546,-8.978197517563501,42.03599999996368
312457.7567,-5.3463080589632925,-11.66395816472695,10.292124244863453,-6.4049060513480045,42.037000000011176
312457.7577,-2.7867373250540965,-9.44988390365347,14.239563602621992,-3.9565528082675816,42.038000000000466
312457.7587,-0.5614584627069313,-7.437983743623529,17.592003793139053,-1.735952898993661,42.038999999989755
312457.7597,1.2372921685914489,-5.716440932149452,20.223913377402493,0.1702484923662474,42.039999999979045
312457.7607,2.5451532192130006,-4.3492805507447185,22.045447361294393,1.6978838604975914,42.040999999968335
312457.7617,3.3302859927918376,-3.371722998990642,23.00815701241988,2.8098112476855723,42.041999999957625
312457.7627,3.595566172089713,-2.7878653569487795,23.107866758686477,3.498284311903565,42.04300000000512
312457.7637,3.378085907246822,-2.5709049754539954,22.384461447788265,3.7849239948053337,42.04399999999441
312457.7647,2.7459736763209794,-2.6658897932005345,20.918587627699857,3.718289818220663,42.0449999999837
312457.7657,1.7927813956657026,-2.9947513189220443,18.825533525591183,3.369267863041589,42.04599999997299
312457.7667,0.6299081382076792,-3.4631707204662048,16.2467899838515,2.8246909639150055,42.04699999996228
312457.7677,-0.6222934948536625,-3.968665555360877,13.33998688824022,2.1797656485138464,42.04800000000978
312457.7687,-1.8439656545214171,-4.409179739151793,10.268029014882828,1.5299847675953213,42.04899999999907
312457.7697,-2.924939918678769,-4.6914221209836855,7.188310113580754,0.9632448176443338,42.04999999998836
312457.7707,-3.772899798403314,-4.738232687002868,4.242859881814367,0.5528591238262052,42.05099999997765
312457.7717,-4.319834365100989,-4.494356237169348,1.5501781958658494,0.35206538923487407,42.05199999996694
312457.7727,-4.526270226066141,-3.9301611858341663,-0.8006553413832425,0.3904779662176782,42.05299999995623
312457.7737,-4.3829790576107355,-3.0430402541050907,-2.753224518633305,0.6727462543443025,42.054000000003725
312457.7747,-3.9100934925390876,-1.8564506669681842,-4.284245195775789,1.1794694590005097,42.054999999993015
312457.7757,-3.153802534374705,-0.4167724724134569,-5.401382815031432,1.8702051947433262,42.055999999982305
312457.7767,-2.181015880414193,1.2116366600176458,-6.138774175085615,2.6882157515614193,42.056999999971595
312457.7777,-1.0725637446488123,2.9526525006895357,-6.550801199805281,3.566439912902556,42.057999999960884
312457.7787,0.08438169524225576,4.725219700668297,-6.704799334900108,4.434074835411841,42.05900000000838
312457.7797,1.2039261380724846,6.450131252579751,-6.673448952264093,5.223111203106352,42.05999999999767
312457.7807,2.208398868366198,8.056100644468836,-6.527589847583737,5.874188987575728,42.06099999998696
312457.7817,3.03400009947592,9.484568548068605,-6.330118979353921,6.341227521183456,42.06199999997625
312457.7827,3.634676449754253,10.692833083096685,-6.131489389351828,6.594422916213504,42.06299999996554
312457.7837,3.983945563795813,11.655278534839251,-5.9671391252947625,6.62138364165817,42.06400000001304
312457.7847,4.07460919436761,12.362682741275142,-5.856962734100522,6.426373074965842,42.06500000000233
312457.7857,3.9165139571386725,12.819787257712107,-5.80671671701032,6.027825950220114,42.06599999999162
312457.7867,3.532718265100485,13.04149616971997,-5.811046661526214,5.4544838018707535,42.06699999998091
312457.7877,2.954582653847425,13.048210698225589,-5.857658014748146,4.740634820211434,42.0679999999702
312457.7887,2.216403015543227,12.860893299203383,-5.932041054837191,3.921031922775656,42.06899999995949
312457.7897,1.3502421000158575,12.496478118074336,-6.022114356582155,3.0260904902905854,42.070000000006985
312457.7907,0.3815806742601422,11.964202122128482,-6.1221740810809555,2.0779314245881797,42.070999999996275
312457.7917,-0.6736903339248013,11.263327327258828,-6.235625852246497,1.0877396531716912,42.071999999985565
312457.7927,-1.810571155390932,10.382569775298322,-6.376122181697234,0.05476264725983435,42.072999999974854
312457.7937,-3.0343778446674925,9.301360982684391,-6.566915970943117,-1.0329072818272915,42.073999999964144
312457.7947,-4.3583351577040075,7.9928617666047685,-6.838449933711324,-2.1958208003861364,42.07500000001164
312457.7957,-5.79959485503194,6.42844767660266,-7.224410956597399,-3.459177708765196,42.07600000000093
312457.7967,-7.37412429009589,4.5832103760663365,-7.7566654946491145,-4.847770694154281,42.07699999999022
312457.7977,-9.091053363221564,2.441888479943699,-8.459637253146163,-6.380415889603703,42.07799999997951
312457.7987,-10.947151303662016,0.004568581490809441,-9.344775944157854,-8.06449451042416,42.0789999999688
312457.7997,-12.922118757459584,-2.7085091401223003,-10.405785866422242,-9.891241567886334,42.07999999995809
312457.8007,-14.975322661622156,-5.6536444045201675,-11.61523225183065,-11.832363860207943,42.08100000000559
312457.8017,-17.04447593625801,-8.762347789529917,-12.923025707013503,-13.838454429175851,42.08199999999488
312457.8027,-19.04658250928594,-11.942290162488183,-14.257111417350004,-15.839504907102068,42.08299999998417
312457.8037,-20.8812477491541,-15.080618656588724,-15.526476629371201,-17.74761628938763,42.08399999997346
312457.8047,-22.43621629229732,-18.049499078755943,-16.62635803879026,-19.4617919554488,42.08499999996275
312457.8057,-23.594766857947512,-20.71352323375151,-17.445303010236056,-20.874485342717122,42.086000000010245
312457.8067,-24.24439008361013,-22.938426713363505,-17.87353788320473,-21.87938943383075,42.086999999999534
312457.8077,-24.286021352714616,-24.600417426246,-17.81194347139892,-22.37981474040142,42.087999999988824
312457.8087,-23.643012157992505,-25.595332354623704,-17.180848336689284,-22.296921229371627,42.088999999978114
312457.8097,-22.269010738516332,-25.846828687308445,-15.92783458267598,-21.577056539005422,42.089999999967404
312457.8107,-20.153988352635427,-25.312877793392644,-14.03381175657668,-20.197510281086366,42.09099999995669
312457.8117,-17.32778688932903,-23.989961633373355,-11.516747524823973,-18.170117854570133,42.09200000000419
312457.8127,-13.860764728951015,-21.91455970467989,-8.432637581857039,-15.542326222185642,42.09299999999348
312457.8137,-9.861362939728682,-19.161743482600876,-4.873534243715525,-12.39555232389021,42.09399999998277
312457.8147,-5.470680754133902,-15.840943589396923,-0.962711502302603,-8.840902121892162,42.09499999997206
312457.8157,-0.8544132408992191,-12.089199684739434,3.1527001501989504,-5.012552605359811,42.09599999996135
312457.8167,3.807259351162606,-8.062421619916554,7.311047136091437,-1.059308464208117,42.09700000000885
312457.8177,8.331054102361682,-3.925362421949929,11.346712307501614,2.864990167243605,42.09799999999814
312457.8187,12.542343533652614,0.158886818443535,15.101044012892197,6.611428106287015,42.09899999998743
312457.8197,16.286352000057075,4.039033229142199,18.432760550750473,10.045528757275465,42.09999999997672
312457.8207,19.437894875601618,7.584541809716133,21.22697886412142,13.05554563016586,42.10099999996601
312457.8217,21.90888625592985,10.692721950646755,23.4021362084617,15.558866013907316,42.1019999999553
312457.8227,23.653030599959788,13.293417200058633,24.914259234026048,17.50603060257987,42.103000000002794
312457.8237,24.66735461957527,15.350992804799192,25.758269216571527,18.882086455586673,42.103999999992084
312457.8247,24.99050576705091,16.863558432138586,25.96627322918119,19.70522832498563,42.10499999998137
312457.8257,24.69801815277346,17.85960833489076,25.60305456916327,20.022922873808774,42.10599999997066
312457.8267,23.895000607760995,18.392485242539376,24.75921727083267,19.905929294772804,42.10699999995995
312457.8277,22.706911884201922,18.533256751318792,23.542636759429865,19.440807999226728,42.10800000000745
312457.8287,21.269235877878934,18.362717346836273,22.069003652644117,18.721630030860425,42.10899999999674
312457.8297,19.71694245978116,17.963284488692118,20.452308430395334,17.841652847412718,42.10999999998603
312457.8307,18.174611394117694,17.411539169411807,18.796096347503802,16.885708841065092,42.11099999997532
312457.8317,16.74800993276962,16.7720728390539,17.18622730274395,15.923964110908626,42.11199999996461
312457.8327,15.517758457190864,16.093153113120295,15.685714405810554,15.007555888535254,42.11300000001211
312457.8337,14.535508871050448,15.404525578012473,14.33200395040966,14.166422697806341,42.1140000000014
312457.8347,13.822818061967645,14.717447843521946,13.136819284610448,13.409421077508437,42.11499999999069
312457.8357,13.37264717911948,14.026826646386638,12.08844511532844,12.726598117625846,42.11599999997998
312457.8367,13.153180740332601,13.315121328493667,11.156100811107272,12.09328197837097,42.116999999969266
312457.8377,13.11345987514565,12.557507458174259,10.295862959656718,11.475482886148495,42.117999999958556
312457.8387,13.190179550070331,11.727678865597202,9.457466350593249,10.835980901426435,42.119000000006054
312457.8397,13.314922943708181,10.803615582712968,8.591250448135611,10.140424715121206,42.11999999999534
312457.8407,13.421102947574802,9.77266330172829,7.654530163254325,9.362782146495185,42.12099999998463
312457.8417,13.449949477073876,8.635354350960856,6.616752904340464,8.48956541422934,42.12199999997392
312457.8427,13.355013266494973,7.407541674117147,5.462949068446742,7.522393684241522,42.12299999996321
312457.8437,13.10483738426349,6.120601163116951,4.195174924890325,6.478637360115972,42.12400000001071
312457.8447,12.683657574721696,4.819665132324504,2.8318654057277066,5.390094479533012,42.125
312457.8457,12.090209848897151,3.5600597304738373,1.4052373802185258,4.29985857962813,42.12599999998929
312457.8467,11.3349262457169,2.4023105443460744,-0.0429109494479641,3.2577284880429453,42.12699999997858
312457.8477,10.435966913478904,1.4062343957415417,-1.4664923520867137,2.3146645725116395,42.12799999996787
312457.8487,9.414651987913645,0.6247360484981858,-2.8208908920299933,1.5168976985237395,42.12899999995716
312457.8497,8.29090897766825,0.09796623086677443,-4.068521064556953,0.9003364279288002,42.13000000000466
312457.8507,7.079335831428785,-0.15153166537067836,-5.183541255131855,0.48589101013011415,42.130999999993946
