TimeStamp,ECR,FCR,ECU,FCU,time_index
312466.7197,-27.196130670403694,-7.762189744595487,-1.5084213523085288,-12.123540049315555,51.0
312466.7207,-25.229668540121633,-5.956919439217152,1.5539634614105204,-9.842657355993252,51.00099999998929
312466.7217,-22.98617636199111,-4.046968908191087,4.454719756279418,-7.5353181276403784,51.00199999997858
312466.7227,-20.507688285280622,-2.074920277781265,7.115297238242213,-5.25989231514082,51.00299999996787
312466.7237,-17.83782147110082,-0.08031453895349194,9.46954238390117,-3.067535176873559,51.00399999995716
312466.7247,-15.024640674142194,1.8976261909215153,11.462242994219993,-1.0044210800249498,51.00500000000466
312466.7257,-12.123566788415722,3.817013022250775,13.046941292044448,0.8855293999675927,51.005999999993946
312466.7267,-9.199756814942116,5.630591392619517,14.183544398534792,2.5579784770272194,51.006999999983236
312466.7277,-6.32941631434548,7.283858340438397,14.836269049360634,3.966097584934967,51.007999999972526
312466.7287,-3.5996040059299705,8.714442728129477,14.972399880863918,5.059560538425627,51.008999999961816
312466.7297,-1.1062427859069077,9.853058491903562,14.562223882332889,5.784944074279726,51.01000000000931
312466.7307,1.0497529391538067,10.626163844002582,13.580340340331077,6.087704479740854,51.0109999999986
312466.7317,2.7681066503071086,10.960259704986612,12.008353493302662,5.915701725299315,51.01199999998789
312466.7327,3.9562226436298062,10.787559056255297,9.838755103293897,5.224040668368235,51.01299999997718
312466.7337,4.537106548152191,10.052576500017576,7.079618273216879,3.9808140326966095,51.01399999996647
312466.7347,4.457479157502582,8.719043670856367,3.75957297419929,2.173184132903767,51.01499999995576
312466.7357,3.6953123046794416,6.776467305099602,-0.0675645331319913,-0.18685361951243185,51.01600000000326
312466.7367,2.266001101478234,4.245623603336147,-4.319169481606211,-3.0577110293904903,51.01699999999255
312466.7377,0.22644936135863145,1.1823295402592957,-8.881817038651455,-6.36509510027436,51.01799999998184
312466.7387,-2.3235187256076935,-2.321053371053578,-13.611437540066659,-10.001077298198474,51.01899999997113
312466.7397,-5.2428080380933855,-6.136753763292605,-18.335966057807497,-13.825707777807361,51.01999999996042
312466.7407,-8.353904428402744,-10.10551715735837,-22.86061878153994,-17.671323526376543,51.021000000007916
312466.7417,-11.450799610638867,-14.043236952580305,-26.975686976598006,-21.34945947178539,51.021999999997206
312466.7427,-14.30958848435246,-17.74995857189752,-30.466493824994167,-24.660028956719756,51.022999999986496
312466.7437,-16.70109206419453,-21.02070335352874,-33.12493405680558,-27.4022177331033,51.023999999975786
312466.7447,-18.40466087776452,-23.657378629540336,-34.76183328688751,-29.386355349288444,51.024999999965075
312466.7457,-19.222182461295475,-25.480919965595014,-35.21924209643243,-30.445907403225537,51.02600000001257
312466.7467,-18.991265606630044,-26.342762896875353,-34.38173235808547,-30.44868412409072,51.02700000000186
312466.7477,-17.596609265531647,-26.134770254646952,-32.185796492567945,-29.306390981060648,51.02799999999115
312466.7487,-14.97868365364053,-24.79684577079078,-28.626563157026933,-26.98175410496343,51.02899999998044
312466.7497,-11.139045578570334,-22.321636481645324,-23.761226726265573,-23.492628679866446,51.02999999996973
312466.7507,-6.1418629609568764,-18.755950685750477,-17.70882754434592,-18.91272714687009,51.03099999995902
312466.7517,-0.11151318214955347,-14.198775121104292,-10.646294676365754,-13.368866063876323,51.03200000000652
312466.7527,6.773578831281471,-8.796041848791374,-2.8009487404615268,-7.034902615411812,51.03299999999581
312466.7537,14.290410157432783,-2.7325483719849126,5.560065864585534,-0.12278989157015785,51.0339999999851
312466.7547,22.183477095201063,3.778348613598765,14.142716419809172,7.128598760491392,51.03499999997439
312466.7557,30.17857330608647,10.506483755227281,22.640507210765456,14.466061268370403,51.03599999996368
312466.7567,37.99731154133615,17.21720311146693,30.74941583087615,21.635165163516625,51.037000000011176
312466.7577,45.371345784676485,23.68336271866187,38.18234267224782,28.39292794501399,51.038000000000466
312466.7587,52.05533040460619,29.69617496284739,44.682139753420124,34.51921776887204,51.038999999989755
312466.7597,57.83779128371429,35.07420213034434,50.032424847794196,39.82614758670088,51.039999999979045
312466.7607,62.54928679639301,39.66998296018818,54.06558863361644,44.16492889788956,51.040999999968335
312466.7617,66.06748415117522,43.374002389738905,56.66764678013591,47.42988366724755,51.041999999957625
312466.7627,68.31904542884276,46.115955192860774,57.77985235870741,49.55956239724889,51.04300000000512
312466.7637,69.2784825639581,47.86348790017673,57.397242190431726,50.535159274646524,51.04399999999441
312466.7647,68.96437738435064,48.61880836981444,55.56452019994808,50.376629219160336,51.0449999999837
312466.7657,67.43355071385476,48.413709946900255,52.36986131437902,49.137077255233436,51.04599999997299
312466.7667,64.77388772858897,47.303653612906594,47.937335913743226,46.89609369135393,51.04699999996228
312466.7677,61.09657614606909,45.3615794808723,42.41869888168067,43.75274132219834,51.04800000000978
312466.7687,56.52848774178268,42.67207799532024,35.98525779862574,39.81886256190145,51.04899999999907
312466.7697,51.20533789621564,39.32644771715228,28.820437910339006,35.21327143589,51.04999999998836
312466.7707,45.26610488183536,35.419013263619256,21.11350986228907,30.057240400205664,51.05099999997765
312466.7717,38.84899828157846,31.044891308492108,13.0547576216181,24.471502686405145,51.05199999996694
312466.7727,32.08905565433716,26.299195004741097,4.832159582823803,18.574788073544724,51.05299999995623
312466.7737,25.11724097744235,21.277479134043833,-3.370542268987034,12.483715432539421,51.054000000003725
312466.7747,18.060739126148064,16.07706977677206,-11.374681081402123,6.313699600365128,51.054999999993015
312466.7757,11.04400612350449,10.798810058733444,-19.006833464665988,0.18041034207579487,51.055999999982305
312466.7767,4.190058516908368,5.5486992738759495,-26.09880716014129,-5.798740456986167,51.056999999971595
312466.7777,-2.3785259028421044,0.4389119313987254,-32.48794155208272,-11.503604680908415,51.057999999960884
312466.7787,-8.539369606131745,-4.412245152739547,-38.0181544324917,-16.811252359068444,51.05900000000838
312466.7797,-14.171179823810007,-8.881753447961342,-42.54205159364996,-21.59720810795161,51.05999999999767
312466.7807,-19.15595836855403,-12.844829467543699,-45.92425537432944,-25.73813877529927,51.06099999998696
312466.7817,-23.382552720756873,-16.179355681709865,-48.045921999335214,-29.115972131188897,51.06199999997625
312466.7827,-26.75137064256082,-18.77156021064863,-48.81022604463844,-31.623232734650184,51.06299999996554
312466.7837,-29.179901074491166,-20.522534535692955,-48.14841499838493,-33.16920396249173,51.06400000001304
312466.7847,-30.608538811424125,-21.355040246971058,-46.02589761464246,-33.686384059241554,51.06500000000233
312466.7857,-31.00611609278647,-21.219970377475626,-42.44774304654024,-33.136614859483394,51.06599999999162
312466.7867,-30.374512271100716,-20.10180853611938,-37.46294488802582,-31.5162352925641,51.06699999998091
312466.7877,-28.751748288392257,-18.022473935061026,-31.166850137196803,-28.85965237480015,51.0679999999702
312466.7887,-26.213074015350045,-15.043049842887248,-23.701265617166253,-25.24082782344594,51.06899999995949
312466.7897,-22.869715011814993,-11.263057765243463,-15.251924565408327,-20.772339787910756,51.070000000006985
312466.7907,-18.865146356785715,-6.817144837382073,-6.043208854538906,-15.601881814032573,51.070999999996275
312466.7917,-14.368985668011826,-1.8692783089476095,3.6697421065063547,-9.906285997411,51.071999999985565
312466.7927,-9.568823341103762,3.3952330140287215,13.61116882636952,-3.883382782557822,51.072999999974854
312466.7937,-4.660512862479307,8.779366871948248,23.496495388853354,2.257785945305901,51.073999999964144
312466.7947,0.16239307159770394,14.084980520974497,33.04505002666995,8.307721168751685,51.07500000001164
312466.7957,4.71927106360002,19.123581432652923,41.992845680606926,14.06740446963702,51.07600000000093
312466.7967,8.852297377180598,23.72645565927711,50.10452924410286,19.35859957606665,51.07699999999022
312466.7977,12.434779642318006,27.75337463831496,57.18365198042568,24.032736036837772,51.07799999997951
312466.7987,15.377284658503452,31.09921300636472,63.080532961896864,27.977702278688408,51.0789999999688
312466.7997,17.631075692309988,33.69798311146776,67.69717244133093,31.122045898304766,51.07999999995809
312466.8007,19.188598744606384,35.52401076284142,70.9889065448336,33.43629593793446,51.08100000000559
312466.8017,20.081010023204943,36.5902212632987,72.96275741850043,34.93136520477084,51.08199999999488
312466.8027,20.37299270024388,36.94375227796385,73.67269996194383,35.65423789918071,51.08299999998417
312466.8037,20.155345795706026,36.65933754022278,73.21231298958,35.68137592100541,51.08399999997346
312466.8047,19.536019332937368,35.831091528472705,71.70548636068102,35.11046497426307,51.08499999996275
312466.8057,18.63039937116002,34.56345267478516,69.2959976349862,34.05125153261463,51.086000000010245
312466.8067,17.55170156350228,32.962099550938895,66.13683932193211,32.61628189402496,51.086999999999534
312466.8077,16.40230703796267,31.125635690793608,62.380165082371526,30.912339630589045,51.087999999988824
312466.8087,15.266771853084377,29.138746345910572,58.1686322552708,29.033289592365886,51.088999999978114
312466.8097,14.207070756649264,27.06737366510466,53.62875822602678,27.054884118011486,51.089999999967404
312466.8107,13.260413804171716,24.956250834880535,48.866695373487396,25.031885251047992,51.09099999995669
312466.8117,12.439721956136147,22.828900605128414,43.96658454614319,22.997625258221372,51.09200000000419
312466.8127,11.736589434239296,20.689962100059528,38.9913940590738,20.96588906799868,51.09299999999348
312466.8137,11.126321353647779,18.529485177378803,33.98591449073215,18.93477945135037,51.09399999998277
312466.8147,10.574438104719228,16.328645437550435,28.98138171127042,16.892040254562342,51.09499999997206
312466.8157,10.043902176028139,14.066203079444945,24.001060213891858,14.821182428324487,51.09599999996135
312466.8167,9.50226166023976,11.724967393136712,19.066048779773347,12.707694191996536,51.09700000000885
312466.8177,8.927923376397027,9.297541299084921,14.200576613032766,10.544626012655511,51.09799999999814
312466.8187,8.314865357052971,6.790705261566407,9.436138638101442,8.336921596977149,51.09899999998743
312466.8197,7.675263733959561,4.22794833417029,4.813964657057454,6.104009242208772,51.09999999997672
312466.8207,7.039726473066983,1.6498510567644,0.38551314839951434,3.8803590006838253,51.10099999996601
312466.8217,6.4550745348495076,-0.8877492745749356,-3.7890935397687673,1.7139308451433752,51.1019999999553
312466.8227,5.979865458050872,-3.317648265109555,-7.644542993235236,-0.3373347105894312,51.103000000002794
312466.8237,5.6780900705981825,-5.566840784193723,-11.115349728273072,-2.2106219466974224,51.103999999992084
312466.8247,5.6116668465809125,-7.563208283552877,-14.141871823582061,-3.844406651919046,51.10499999998137
312466.8257,5.832491275414954,-9.242649348739228,-16.676662202687787,-5.185031095949668,51.10599999997066
312466.8267,6.374856362231502,-10.555921406690642,-18.690436735791636,-6.192981913294202,51.10699999995995
312466.8277,7.249039133175633,-11.474480167348721,-20.176962499282613,-6.848184944996739,51.10800000000745
312466.8287,8.436748659797582,-11.994693242604118,-21.156262809269943,-7.153720293633907,51.10899999999674
312466.8297,9.888963121534887,-12.139956656402717,-21.67569198037096,-7.137511152451914,51.10999999998603
312466.8307,11.526462934286608,-11.960442697910777,-21.808636846512673,-6.851736594069075,51.11099999997532
312466.8317,13.243115207800447,-11.530435178730402,-21.650833859077657,-6.369942067751835,51.11199999996461
312466.8327,14.91170598705449,-10.94344131024092,-21.314527206756946,-5.782049781713232,51.11300000001211
312466.8337,16.391875766157177,-10.305485260862278,-20.920911492143873,-5.1876818395883895,51.1140000000014
312466.8347,17.539513755053633,-9.72716584184097,-20.591480409578853,-4.688381059158305,51.11499999999069
312466.8357,18.21682644313932,-9.31518234935615,-20.439022822028058,-4.379430683180632,51.11599999997998
312466.8367,18.302229407000297,-9.164086494790036,-20.559057469330504,-4.342022997518933,51.116999999969266
312466.8377,17.699224204525343,-9.348999366404083,-21.02247190371523,-4.636503100793356,51.117999999958556
312466.8387,16.343513050730667,-9.919942418910473,-21.870032133320183,-5.297319731535328,51.119000000006054
312466.8397,14.20776374107657,-10.898279468331776,-23.109266015390226,-6.330159083722305,51.11999999999534
312466.8407,11.303650340899543,-12.275567529050473,-24.714011113756726,-7.711534913732066,51.12099999998463
312466.8417,7.681040821191186,-14.014887599397426,-26.62667674031208,-9.390878534777956,51.12199999997392
312466.8427,3.4244574228622713,-16.054494356732437,-28.76302327572942,-11.294937754003884,51.12299999996321
312466.8437,-1.3528252609470908,-18.313408786478774,-31.019033223627055,-13.334077167401285,51.12400000001071
312466.8447,-6.516478302448313,-20.69840087961357,-33.2792596830872,-15.409894482935055,51.125
312466.8457,-11.919901907344277,-23.111687690896936,-35.42590706188902,-17.4234458905748,51.12599999998929
312466.8467,-17.41330894847549,-25.45861675902217,-37.34783832989002,-19.283319662101682,51.12699999997858
312466.8477,-22.852324260913907,-27.654621047231426,-38.94871856147809,-20.912816255566177,51.12799999996787
312466.8487,-28.105390931045143,-29.63081701261916,-40.15359423855911,-22.255583237273395,51.12899999995716
312466.8497,-33.059416208855374,-31.33776319827528,-40.9133629323128,-23.27920545652365,51.13000000000466
312466.8507,-37.623282019444645,-32.74708803285345,-41.20679343049203,-23.976450259246153,51.130999999993946
312466.8517,-41.72906865183331,-33.850913107435815,-41.03999221134735,-24.364094722077365,51.131999999983236
312466.8527,-45.33107256200622,-34.65922041027988,-40.44345561327493,-24.479494914462794,51.132999999972526
312466.8537,-48.40291727459013,-35.19551685244125,-39.46707468819971,-24.37527355186708,51.133999999961816
312466.8547,-50.933238730013294,-35.49131677318204,-38.17364974220108,-24.112681276635033,51.13500000000931
312466.8557,-52.92055549709658,-35.580076643714854,-36.63160584907561,-23.754311073112106,51.1359999999986
312466.8567,-54.36799790516167,-35.491264946360715,-34.90766649840157,-23.356903192543726,51.13699999998789
312466.8577,-55.27856278810385,-35.24522967459536,-33.060233977681854,-22.96496406961087,51.13799999997718
312466.8587,-55.65148369830576,-34.84943839371076,-31.134143261406475,-22.60583862097056,51.13899999996647
312466.8597,-55.480168538644214,-34.29652021592644,-29.157309335678686,-22.286729342200907,51.13999999995576
312466.8607,-54.7519719789808,-33.56434995584805,-27.13959053656891,-21.993962008617086,51.14100000000326
312466.8617,-53.449857730555,-32.61820096322361,-25.073961987341487,-21.694575328935258,51.14199999999255
312466.8627,-51.555787386960276,-31.414775896718403,-22.939855924522526,-21.34008212154942,51.14299999998184
312466.8637,-49.05547029126718,-29.90772554336886,-20.708302763131368,-20.872034664654738,51.14399999997113
312466.8647,-45.94394331669536,-28.054104463443217,-18.34831990810928,-20.228847528010007,51.14499999996042
312466.8657,-42.23133747957793,-25.8211048073036,-15.833862802597995,-19.353204685979012,51.146000000007916
312466.8667,-37.94814157917251,-23.192366903033566,-13.15058748340327,-18.19931619308081,51.146999999997206
312466.8677,-33.149296799318336,-20.17319163110044,-10.301682456439487,-16.739299063274547,51.147999999986496
312466.8687,-27.916548699915644,-16.794072916395372,-7.312109361445243,-14.968036298256052,51.148999999975786
312466.8697,-22.358635788233006,-13.112120082121322,-4.230738973665984,-12.906009600610119,51.149999999965075
312466.8707,-16.60909245399435,-9.210134856394731,-1.1300676034092088,-10.599791552344117,51.15100000001257
312466.8717,-10.821669483191021,-5.193327771149976,1.8965700286288558,-8.120103656452569,51.15200000000186
312466.8727,-5.163605920286741,-1.1838823762790176,4.74013389410266,-5.557576472485324,51.15299999999115
312466.8737,0.1928006008270145,2.686218434931194,7.282971328941876,-3.0165651463558047,51.15399999998044
312466.8747,5.079702568608334,6.283521458129034,9.40728846214801,-0.6075572605454594,51.15499999996973
312466.8757,9.343547690833033,9.481890630635855,11.004278210491965,1.5611572743135202,51.15599999995902
312466.8767,12.854464737502498,12.171006381133068,11.983107807650578,3.3918150363149766,51.15700000000652
312466.8777,15.514414295201194,14.263850331156332,12.278967719513576,4.804767412647656,51.15799999999581
312466.8787,17.26341985475413,15.70253640230354,11.85945659323173,5.74465844771078,51.1589999999851
312466.8797,18.08334921380189,16.461996179471992,10.728716788007295,6.184653644108709,51.15999999997439
312466.8807,17.99891985158949,16.55121830351429,8.928928901579944,6.128361795209691,51.16099999996368
312466.8817,17.075835851244147,16.011960372439983,6.539003335928891,5.609304289724411,51.162000000011176
312466.8827,15.416206349908064,14.915076483560087,3.6705508233416966,4.688009949625668,51.163000000000466
312466.8837,13.151623836989526,13.354812841898394,0.46144919355671876,3.44702698179763,51.163999999989755
312466.8847,10.434473711177516,11.441598072083629,-2.9324713333180497,1.9843268399277942,51.164999999979045
312466.8857,7.428186568274838,9.293977770609338,-6.346946218017299,0.40571061406922454,51.165999999968335
312466.8867,4.297219059953266,7.030403241285289,-9.619227298271449,-1.1830953548942085,51.166999999957625
312466.8877,1.1975515040942055,4.761577203024246,-12.597673827955159,-2.683958032670214,51.16800000000512
312466.8887,-1.731578664338397,2.583986063068667,-15.150242158647009,-4.0128300221062405,51.16899999999441
312466.8897,-4.374121590579409,0.5751170337044819,-17.1712491981559,-5.104691080389259,51.1699999999837
312466.8907,-6.641435350108432,-1.2093175387248183,-18.585955709817554,-5.916577404681473,51.17099999997299
312466.8917,-8.474095110599782,-2.736028994105299,-19.352723323299244,-6.428531044392709,51.17199999996228
312466.8927,-9.841330822430654,-3.992763989247464,-19.462723263588682,-6.642506630474019,51.17300000000978
312466.8937,-10.738348546836168,-4.985163747837711,-18.937393433925564,-6.57946810345079,51.17399999999907
312466.8947,-11.181974039515062,-5.732317597681256,-17.824032649413997,-6.275075065013987,51.17499999998836
312466.8957,-11.205191505911975,-6.2615703729483325,-16.19006848659572,-5.774480658146093,51.17599999997765
312466.8967,-10.851223297069199,-6.603196576892765,-14.116625059217785,-5.126829059411653,51.17699999996694
312466.8977,-10.167801762662053,-6.785543342476354,-11.69204168854711,-4.380045087772883,51.17799999995623
312466.8987,-9.202223390340002,-6.83117110284234,-9.005952179581238,-3.576451742308366,51.179000000003725
312466.8997,-7.997655301948617,-6.754393675531734,-6.144433144901468,-2.7496405068216885,51.179999999993015
312466.9007,-6.590998599476174,-6.560451792152389,-3.1865803988759174,-1.922866280201268,51.180999999982305
312466.9017,-5.012419900054823,-6.246363635075568,-0.2026914366913603,-1.1090602509255916,51.181999999971595
312466.9027,-3.2864622612101164,-5.803302598787213,2.7459610525734583,-0.3123688472711207,51.182999999960884
312466.9037,-1.4344607088940875,-5.220176442971511,5.605964317633511,0.46904548642494626,51.18400000000838
312466.9047,0.5221647346871809,-4.487941619016402,8.329565824841954,1.23934750327245,51.18499999999767
312466.9057,2.5582683403917903,-3.6040965495349044,10.871907933060859,2.001018183047242,51.18599999998696
312466.9067,4.6415624909042865,-2.5767675944162733,13.18822331840522,2.751031873643679,51.18699999997625
312466.9077,6.729975897592259,-1.427834798235755,15.231513293928979,3.4777445510103773,51.18799999996554
312466.9087,8.770251323426152,-0.19463825018796604,16.951166383564516,4.158939114698123,51.18900000001304
312466.9097,10.6981095693278,1.0700492296509128,18.292856218395205,4.761346691178462,51.19000000000233
312466.9107,12.440128977819912,2.2999158512413156,19.199898696310683,5.241799236346424,51.19099999999162
312466.9117,13.917291635805443,3.4188040569961213,19.616065362538624,5.549985284916038,51.19199999998091
312466.9127,15.049949666009436,4.345938495791257,19.489662695548386,5.632596600654398,51.1929999999702
312466.9137,15.76378848033903,5.002248911254888,18.778515590789073,5.438488059741674,51.19399999995949
312466.9147,15.996227634931847,5.317213674476313,17.455356545742475,4.924343924184393,51.195000000006985
312466.9157,15.70261904776334,5.235570440028002,15.513035221870213,4.060264770483148,51.195999999996275
312466.9167,14.86158639352324,4.723225321307953,12.968936597151131,2.8346697890987222,51.196999999985565
312466.9177,13.478901546475619,3.77174375351517,9.86803417592246,1.2579520914850129,51.197999999974854
312466.9187,11.589410192430037,2.4009208875335437,6.284105478472768,-0.635573110652055,51.198999999964144
312466.9197,9.2566888080284,0.6590966800752125,2.318791664057757,-2.7877352499890526,51.20000000001164
312466.9207,6.570323155448299,-1.3789147828149262,-1.9016226084304566,-5.118709780603284,51.20100000000093
312466.9217,3.640924259894345,-3.6161902159910286,-6.2316176406382,-7.531268208128157,51.20199999999022
312466.9227,0.5932194221107665,-5.940046638534369,-10.513728629889698,-9.916787672802348,51.20299999997951
312466.9237,-2.4422488643172726,-8.229872701787274,-14.587216214276722,-12.162550636965301,51.2039999999688
312466.9247,-5.338133952794701,-10.36579020968304,-18.297463893774296,-14.159725900053152,51.20499999995809
312466.9257,-7.979236239628692,-12.237404489511505,-21.505352973143477,-15.811338322002921,51.20600000000559
312466.9267,-10.270608413186043,-13.751881138408807,-24.09583808909305,-17.039515502549683,51.20699999999488
312466.9277,-12.144086650619027,-14.840636969070987,-25.98499117371401,-17.79134825639209,51.20799999998417
312466.9287,-13.562647713690035,-15.464050689110021,-27.124896227862017,-18.042814494401963,51.20899999997346
312466.9297,-14.522178936243566,-15.613773423887999,-27.50595206897024,-17.800383235145983,51.20999999996275
312466.9307,-15.050477214897702,-15.312434535073445,-27.156359818586527,-17.10012170611961,51.211000000010245
312466.9317,-15.203543157582585,-14.610774174745877,-26.138816275717755,-16.004354667959397,51.211999999999534
312466.9327,-15.059484113294053,-13.582468424139094,-24.544680773253276,-14.596149891819062,51.212999999988824
312466.9337,-14.710561491266105,-12.31712350596754,-22.48610842302378,-12.972105737436747,51.213999999978114
312466.9347,-14.254092404274626,-10.912082409050655,-20.086825351169207,-11.234076595679564,51.214999999967404
312466.9357,-13.783026341659632,-9.46379440698959,-17.472343981660302,-9.480574022101449,51.21599999995669
312466.9367,-13.377053312325245,-8.059535116985998,-14.760466593841423,-7.79861553703073,51.21700000000419
312466.9377,-13.09505671152476,-6.7702283009724775,-12.05289799592453,-6.256755543715141,51.21799999999348
312466.9387,-12.969605482978666,-5.645013930221396,-9.428685291779527,-4.899926656621739,51.21899999998277
312466.9397,-13.003996516303053,-4.7080401733405575,-6.940033620665725,-3.7465545145675003,51.21999999997206
312466.9407,-13.172126341681997,-3.957745711583829,-4.6108269885082604,-2.7882001100001514,51.22099999996135
312466.9417,-13.421212369225099,-3.3686631433070406,-2.4379333103830705,-1.9917502535864586,51.22200000000885
312466.9427,-13.67712209900854,-2.8955365338623564,-0.39511589049560064,-1.3039408568275799,51.22299999999814
312466.9437,-13.851828208228921,-2.479328905735583,1.5608661826047319,-0.657781415542132,51.22399999998743
312466.9447,-13.85231060915105,-2.054519192374794,3.4825864096288557,0.019727216808376684,51.22499999997672
312466.9457,-13.590091854205124,-1.5569695238736625,5.423467581037499,0.7993093303033155,51.22599999996601
312466.9467,-12.990532272203051,-0.931593794509105,7.429316775426995,1.7413444052215359,51.2269999999553
312466.9477,-12.001031615708772,-0.13908183781705635,9.530701189932845,2.8887688467420087,51.228000000002794
312466.9487,-10.597382927955696,0.8389722354634654,11.736903049555231,4.261615595279724,51.228999999992084
312466.9497,-8.787692579154271,1.9970330967859211,14.032038983744295,5.853703742975703,51.22999999998137
312466.9507,-6.613502251281037,3.3049717501908797,16.373722576034627,7.63178874232612,51.23099999997066
312466.9517,-4.148003316132112,4.70986111464329,18.694408067926037,9.537253871768906,51.23199999995995
312466.9527,-1.491497740977265,6.140048582771075,20.905301332494073,11.490187103048653,51.23300000000745
312466.9537,1.23549224138099,7.51111732634216,22.902485037102224,13.39546675284329,51.23399999999674
312466.9547,3.9008540119904382,8.733169093179992,24.574700822222223,15.150295086694612,51.23499999998603
312466.9557,6.370490836869923,9.71873735440359,25.812081251697208,16.65248860793593,51.23599999997532
312466.9567,8.518061626358426,10.390582539934737,26.515041851091965,17.808769134060828,51.23699999996461
312466.9577,10.234010135564887,10.688635893877883,26.602535789831695,18.54230661972126,51.23800000001211
312466.9587,11.43311639442749,10.575443385601007,26.018940537512965,18.798841845854895,51.2390000000014
312466.9597,12.059949947678167,10.039607567299646,24.738979885333087,18.550856655350156,51.23999999999069
312466.9607,12.091806623836797,9.09691881256687,22.770272477239114,17.799447550712603,51.24099999997998
312466.9617,11.538948289473648,7.789089063063804,20.153320876444305,16.573776794269563,51.241999999969266
312466.9627,10.442215425971751,6.180229487608183,16.95899150076333,14.92820252443894,51.242999999958556
312466.9637,8.868321461235098,4.351426232969004,13.283762783216977,12.937403978906367,51.244000000006054
312466.9647,6.903343001674624,2.393945252940837,9.243215132167972,10.689999264719674,51.24499999999534
312466.9657,4.645072339326983,0.4017211767282148,4.964383415053281,8.281284179016643,51.24599999998463
312466.9667,2.1949840583902853,-1.5361553232500123,0.5776774980371236,5.805789306810746,51.24699999997392
312466.9677,-0.3494209741447337,-3.342247490551292,-3.7909082116381843,3.3503530838599835,51.24799999996321
312466.9687,-2.9011934604373764,-4.9562541563820295,-8.026629467257443,0.9883414619421054,51.24900000001071
312466.9697,-5.388863895979906,-6.338676178478227,-12.031321605115018,-1.2244824470620903,51.25
312466.9707,-7.7593322017865995,-7.4723654901392305,-15.72684178817352,-3.2521097384211473,51.25099999998929
312466.9717,-9.978546880624602,-8.361867075514342,-19.056442768647774,-5.078332958784686,51.25199999997858
312466.9727,-12.030031644793205,-9.030683283899076,-21.984109996175658,-6.704777129542629,51.25299999996787
312466.9737,-13.911537172999068,-9.516793994840512,-24.49209812518829,-8.147203550507749,51.25399999995716
312466.9747,-15.630283555023757,-9.866935185092528,-26.577077990587597,-9.430544763709388,51.25500000000466
312466.9757,-17.197396682950437,-10.130255888251417,-28.245433730602507,-10.583250178442489,51.255999999993946
312466.9767,-18.622216032505587,-10.352027978880852,-29.50831953613725,-11.631583040790812,51.256999999983236
312466.9777,-19.9071549953224,-10.568069510290956,-30.377090082628698,-12.594504976700355,51.257999999972526
312466.9787,-21.043728243611913,-10.800462100032243,-30.85965823478248,-13.479715077854129,51.258999999961816
312466.9797,-22.010230601022368,-11.055004295062902,-30.958214840856623,-14.281283693364866,51.26000000000931
312466.9807,-22.77137191099962,-11.320659948571107,-30.66858095119462,-14.979149695073746,51.2609999999986
312466.9817,-23.279960746486864,-11.571051793593483,-29.981269806159307,-15.540551364312536,51.26199999998789
312466.9827,-23.480507940594517,-11.767836579349844,-28.884134524614584,-15.923255249212191,51.26299999997718
312466.9837,-23.31441129590894,-11.86560082588497,-27.3662885464848,-16.08025510202972,51.26399999996647
312466.9847,-22.726206691740067,-11.817755309053153,-25.42282928494327,-15.965453698677639,51.26499999995576
312466.9857,-21.67024606907164,-11.582798072727245,-23.05978767036829,-15.539730054962831,51.26600000000326
312466.9867,-20.117102241690098,-11.13027112390762,-20.29867899463383,-14.776744492530273,51.26699999999255
312466.9877,-18.05901058799549,-10.445759722909688,-17.180049300173703,-13.66784938715746,51.26799999998184
312466.9887,-15.513737826986965,-9.534373255770532,-13.765495447492157,-12.225552959328525,51.26899999997113
312466.9897,-12.526410708014836,-8.422294379081974,-10.137778275009833,-10.48511946772074,51.26999999996042
312466.9907,-9.169028751270822,-7.156174004288387,-6.398833385332854,-8.504068345118796,51.271000000007916
312466.9917,-5.53760649628547,-5.800364940203634,-2.6656949221100343,-6.359539572838407,51.271999999997206
312466.9927,-1.747120346963318,-4.4322053476999965,0.935436692421911,-4.143702759225808,51.272999999986496
312466.9937,2.0753495530039148,-3.1357628969394367,4.27655337824652,-1.9575822342457996,51.273999999975786
312466.9947,5.798712185853127,-1.9946117253603528,7.2360331333402765,0.09616926439615452,51.274999999965075
312466.9957,9.296496630559673,-1.0843207692795418,9.70697003508698,1.920905943390424,51.27600000001257
312466.9967,12.455264132058735,-0.46537291067967573,11.60489967295653,3.4333425972484113,51.27700000000186
312466.9977,15.182056143631554,-0.1772051845362806,12.874208135703709,4.569953777850575,51.27799999999115
312466.9987,17.410216516056074,-0.233963436139853,13.492610977180872,5.291828518252203,51.27899999998044
312466.9997,19.1030729157751,-0.6224093470550194,13.473247808691164,5.587530368447296,51.27999999996973
312467.0007,20.25515905278567,-1.3022184698987191,12.864143843454036,5.473695742837105,51.28099999995902
312467.0017,20.890886523400788,-2.208683953418017,11.745022701002101,4.993312682247503,51.28200000000652
312467.0027,21.06081115794111,-3.257613582373508,10.221693070814311,4.2118369493202295,51.28299999999581
312467.0037,20.83586097638698,-4.351999532488999,8.418452715106149,3.2115022302368605,51.2839999999851
312467.0047,20.300079815394227,-5.389870990236306,6.469135519126475,2.0843469226560147,51.28499999997439
312467.0057,19.542574453665384,-6.272625898668744,4.5075531828891435,0.924595717624617,51.28599999996368
312467.0067,18.649420867956167,-6.913090604828067,2.658140289360025,-0.17891101597407497,51.287000000011176
312467.0077,17.696280756177504,-7.242579725054206,1.0275940025700516,-1.1495581788369522,51.288000000000466
312467.0087,16.742403347871154,-7.216320876341345,-0.3017912017500659,-1.9284610627051058,51.288999999989755
312467.0097,15.826547405667919,-6.816761177971868,-1.276549286852978,-2.478161147525229,51.289999999979045
312467.0107,14.965168000200057,-6.05446998262933,-1.8738907948621155,-2.7842156075040903,51.290999999968335
312467.0117,14.152990723916044,-4.966576195114375,-2.100872664544156,-2.854586711992914,51.291999999957625
312467.0127,13.365864090023635,-3.6129073388936,-1.9910348552084152,-2.716947352100211,51.29300000000512
312467.0137,12.565561409826591,-2.070209386687586,-1.5988798098071721,-2.4142155784369934,51.29399999999441
312467.0147,11.70601761190867,-0.42500113234176173,-0.9927647686268116,-1.9987954312005738,51.2949999999837
312467.0157,10.740352055186632,1.2342619633048018,-0.24691554811686436,-1.5261178489771856,51.29599999997299
312467.0167,9.627958111990555,2.8249832612691583,0.5666594733179524,-1.0481331626203874,51.29699999996228
312467.0177,8.340940577807775,4.277462212807321,1.3855812333027533,-0.607400495148343,51.29800000000978
312467.0187,6.869252321482599,5.5405376214398,2.163142734379532,-0.23235042629853075,51.29899999999907
312467.0197,5.22401471157081,6.5853426817288705,2.872432704403515,0.06582721518512834,51.29999999998836
312467.0207,3.4386888311558184,7.406864863691367,3.5081868811482235,0.29438596715328025,51.30099999997765
312467.0217,1.5679781462307405,8.023218261723985,4.086242469741724,0.4782248318429575,51.30199999996694
312467.0227,-0.3154330289991701,8.47275682368039,4.6407097452124795,0.6571993692292784,51.30299999995623
312467.0237,-2.1259892587393656,8.809362392090742,5.219199332685785,0.8818388202938566,51.304000000003725
312467.0247,-3.771726984407774,9.096411793996166,5.876632385241513,1.2079224522249496,51.304999999993015
312467.0257,-5.161467145302919,9.40004592236133,6.6682953025226235,1.6904778540417822,51.305999999982305
312467.0267,-6.212047596048046,9.782419621901877,7.642867835809003,2.377816253507796,51.306999999971595
312467.0277,-6.854908003165897,10.295599230926351,8.836147164451441,3.3062102199394623,51.307999999960884
312467.0287,-7.041410377907376,10.97669657028025,10.26611188398791,4.495748694262047,51.30900000000838
312467.0297,-6.746409376719506,11.844692287622758,11.929827100973942,5.947780521044903,51.30999999999767
312467.0307,-5.969764511879681,12.899221753412911,13.80249963316008,7.644193220502472,51.31099999998696
312467.0317,-4.735693358672991,14.12139147770211,15.838770211070107,9.548585336229397,51.31199999997625
312467.0327,-3.0900797909699333,15.47648408085897,17.97610004917593,11.609197393493808,51.31299999996554
312467.0337,-1.0960525623274697,16.918216429151617,20.139895366817527,13.763287826683676,51.31400000001304
312467.0347,1.1716830489343222,18.394058154756703,22.24983692135691,15.942494211219346,51.31500000000233
312467.0357,3.633161055574572,19.851012278388776,24.22676011191596,18.078621494614552,51.31599999999162
312467.0367,6.209464070907624,21.24121665461487,25.999376905928177,20.10925762060856,51.31699999998091
312467.0377,8.828385232823996,22.52674876878242,27.51014914611103,21.982637167324295,51.3179999999702
312467.0387,11.428881011982206,23.68310459184692,28.71971182118569,23.66125337366124,51.31899999995949
312467.0397,13.96389017894451,24.700965805462545,29.609395630073912,25.123850214059765,51.320000000006985
312467.0407,16.40127499689652,25.586054192825795,30.181595431472726,26.36559580892552,51.320999999996275
312467.0417,18.722846752834883,26.357078635040267,30.457955055895408,27.396429347048088,51.321999999985565
312467.0427,20.92164789315891,27.0419879387648,30.475566863506113,28.237766574787678,51.322999999974854
312467.0437,22.997855635664564,27.672930414302105,30.281593290116767,28.91792422018083,51.323999999964144
312467.0447,24.953826992283226,28.28046938547655,29.926886187423094,29.46676357163264,51.32500000001164
312467.0457,26.788906321901656,28.887697126735596,29.459290710644318,29.910143359857727,51.32600000000093
312467.0467,28.494652822757853,29.504917947901962,28.917362165716394,30.264802518185466,51.32699999999022
312467.0477,30.051112206292558,30.125530549913574,28.325191750420053,30.534260591401964,51.32799999997951
312467.0487,31.42465657149611,30.72363344073774,27.688932993519696,30.70623005142792,51.3289999999688
312467.0497,32.56775841867229,31.253714779743415,26.995454527483023,30.751889130741368,51.32999999995809
312467.0507,33.42086395742086,31.652584833428595,26.213332470510142,30.627179822766834,51.33100000000559
312467.0517,33.916307049469644,31.84348481885248,25.2961577135296,30.276091179910452,51.33199999999488
312467.0527,33.98398058183912,31.742082175876725,24.187893126575702,29.635682952453582,51.33299999998417
312467.0537,33.55827953761162,31.263861371748444,22.829796927424095,28.642419238491996,51.33399999997346
312467.0547,32.585670469982176,30.332261405750327,21.16825317622922,27.23923475699646,51.33499999996275
312467.0557,31.032142543411062,28.886812540046982,19.162736567186723,25.382662700147723,51.336000000010245
312467.0567,28.889767198192686,26.8904961870503,16.793098595633264,23.049322937175408,51.336999999999534
312467.0577,26.18164138721753,24.33559743539984,14.065400972554324,20.24110665159856,51.337999999988824
312467.0587,22.964610388765696,21.247436371007264,11.01563741818417,16.988495815982482,51.338999999978114
312467.0597,19.329350341383382,17.685542201902397,7.710866818393257,13.351614429770727,51.339999999967404
312467.0607,15.397621439558087,13.742057240310958,4.247512719628006,9.418808805361964,51.34099999995669
312467.0617,11.31675888642917,9.537405479589568,0.7468447616624461,5.3027778062284945,51.34200000000419
312467.0627,7.251726096100091,5.213509640397333,-2.6520776340764285,1.134499774160357,51.34299999999348
312467.0637,3.375288621291522,0.9250675405647001,-5.801475409237862,-2.944590567025049,51.34399999998277
312467.0647,-0.14294492819972235,-3.1704182862536197,-8.555210934317618,-6.7915545489889455,51.34499999997206
312467.0657,-3.1477457774166804,-6.923042409269434,-10.77958210297029,-10.271298718850328,51.34599999996135
312467.0667,-5.5088370884493365,-10.200466769060771,-12.363634072127338,-13.26554274380578,51.34700000000885
312467.0677,-7.129938188505926,-12.896627528333687,-13.228099427780789,-15.680654111236686,51.34799999999814
312467.0687,-7.955521765022535,-14.938454128543112,-13.332185581090465,-17.453693078721987,51.34899999998743
312467.0697,-7.974712975339883,-16.290050298702496,-12.67760847120743,-18.55616742200705,51.34999999997672
312467.0707,-7.222000684991537,-16.954011362577173,-11.309507624948871,-18.995198764267418,51.35099999996601
312467.0717,-5.7747032689080235,-16.969806234126093,-9.31414740067624,-18.812031624472596,51.3519999999553
312467.0727,-3.7474093166446,-16.409412087592422,-6.813587675333766,-18.07805113536745,51.353000000002794
312467.0737,-1.2838712840901358,-15.3706303982003,-3.95776834314147,-16.88869345455486,51.353999999992084
312467.0747,1.4529563803074639,-13.96871225237463,-0.9146714831578429,-15.355813650219599,51.35499999998137
312467.0757,4.291893636740969,-12.327059919426231,2.1406173586656196,-13.599202338784005,51.35599999997066
312467.0767,7.064612998985744,-10.567837878768225,5.0370459500116125,-11.7380029171331,51.35699999995995
312467.0777,9.615918754664902,-8.803314086559816,7.618029200696445,-9.882770612310969,51.35800000000745
312467.0787,11.8124207815337,-7.128663126478996,9.75036300435544,-8.12883442889682,51.35899999999674
312467.0797,13.548963070687503,-5.616806306868504,11.330958334137357,-6.5514818090089335,51.35999999998603
312467.0807,14.752389507351872,-4.31565549861288,12.290950562248169,-5.203297726856011,51.36099999997532
312467.0817,15.382485958176437,-3.2478882178862865,12.59698992247261,-4.1137737824060485,51.36199999996461
312467.0827,15.430203387734826,-2.4131346666467155,12.24978168212985,-3.2910800040007366,51.36300000001211
312467.0837,14.913516042066616,-1.7922272084632271,11.28019354239759,-2.7256843708324516,51.3640000000014
312467.0847,13.87147799842511,-1.3529713056457473,9.743459273132427,-2.3953327065095382,51.36499999999069
312467.0857,12.357191023845848,-1.0567625028833225,7.712161780065603,-2.2707811093024852,51.36599999997998
312467.0867,10.430473146230357,-0.8653090775405206,5.268761720079356,-2.3216157549407392,51.366999999969266
312467.0877,8.151014319845457,-0.7467300098296157,2.4984426147119216,-2.5215056896425496,51.367999999958556
312467.0887,5.572724568554624,-0.6803810508391022,-0.5170288789769211,-2.8523113132129527,51.369000000006054
312467.0897,2.739830103651057,-0.6599087962763066,-3.7038697436753485,-3.306606285495621,51.36999999999534
312467.0907,-0.3149301481368183,-0.6942284939569188,-6.998910826223178,-3.8883495562017547,51.37099999998463
312467.0917,-3.569890661545855,-0.8063458351371735,-10.350154095189044,-4.6116488482638145,51.37199999997392
312467.0927,-7.011955334568045,-1.0301735411059856,-13.71535724888953,-5.49776651833037,51.37299999996321
312467.0937,-10.632359239515749,-1.405707065013408,-17.0589681029481,-6.5707121903162,51.37400000001071
312467.0947,-14.421242227183841,-1.9730989327020503,-20.347916144294864,-7.851924509378012,51.375
312467.0957,-18.361713830115693,-2.7662908062032,-23.546897760243755,-9.354650971724467,51.37599999998929
312467.0967,-22.424152241845484,-3.8069145193946023,-26.61385192665447,-11.078679337849834,51.37699999997858
312467.0977,-26.561467394759347,-5.099153064890973,-29.496308487535693,-13.006052058271703,51.37799999996787
312467.0987,-30.70597069177196,-6.6261619271601075,-32.12920300340005,-15.098308419665436,51.37899999995716
312467.0997,-34.76834042547999,-8.348499301350783,-34.434599253155824,-17.295656091510125,51.38000000000466
312467.1007,-38.63896740974027,-10.20481565384269,-36.32355807251325,-19.51828827298021,51.380999999993946
312467.1017,-42.19172983664483,-12.114828316475712,-37.70015948205026,-21.669852717278943,51.381999999983236
312467.1027,-45.29000280299999,-13.984377486671352,-38.46744714612497,-23.64286495510622,51.382999999972526
312467.1037,-47.79448000582338,-15.712148667023422,-38.53484394874744,-25.325660876582624,51.383999999961816
312467.1047,-49.572194916388234,-17.19747397563759,-37.82640707419978,-26.610322690951335,51.38500000000931
312467.1057,-50.5059947619652,-18.348507856639614,-36.289168833101854,-27.40090294601685,51.3859999999986
312467.1067,-50.50365589210646,-19.090023058438195,-33.900758376485676,-27.621224571953988,51.38699999998789
312467.1077,-49.50583993274825,-19.37009533814507,-30.675525346958253,-27.221555638813527,51.38799999997718
312467.1087,-47.492175633695325,-19.16503821131311,-26.668487959447962,-26.18354405578222,51.38899999996647
312467.1097,-44.48490345064078,-18.482103426846948,-21.976596229465123,-24.522941880145098,51.38999999995576
312467.1107,-40.54972429054336,-17.359664012585185,-16.737020871753405,-22.28983781470821,51.39100000000326
312467.1117,-35.793731179102735,-15.864825519857039,-11.122429587600944,-19.566332202376763,51.39199999999255
312467.1127,-30.360550525194117,-14.088645677899356,-5.3334718106396535,-16.46181120175432,51.39299999998184
312467.1137,-24.423054929066968,-12.139360718430773,0.4110635573877614,-13.106185091633906,51.39399999997113
312467.1147,-18.174210253863272,-10.13419745857585,5.885747867384409,-9.641630458735952,51.39499999996042
312467.1157,-11.816767581294606,-8.1904767898131,10.870852660145951,-6.213501288247604,51.396000000007916
312467.1167,-5.552592570764217,-6.416774745525962,15.164635675386045,-2.9611384119307234,51.396999999997206
312467.1177,0.4275660176377105,-4.904896446449721,18.59467940326566,-0.009304943067525133,51.397999999986496
312467.1187,5.953129877126759,-3.7233374851826144,21.02746621538771,2.539091842012632,51.398999999975786
312467.1197,10.880955893918212,-2.912764956672824,22.375520867732735,4.608457097348781,51.399999999965075
312467.1207,15.100380374895986,-2.4838604955884334,22.601652973476327,6.153779381689615,51.40100000001257
312467.1217,18.535823280172146,-2.417648929529693,21.720069809471156,7.1615516951369385,51.40200000000186
312467.1227,21.146957007721877,-2.6682096987875616,19.79438140042128,7.648387487666629,51.40299999999115
312467.1237,22.926658151904732,-3.1674557464311914,16.932762184733075,7.657575280477465,51.40399999998044
312467.1247,23.89714383054037,-3.8314862487058363,13.280745005990505,7.253985173032629,51.40499999996973
312467.1257,24.104829552074758,-4.5678918626844585,9.01228538851026,6.517865591977588,51.40599999995902
312467.1267,23.614521193803725,-5.283325481521728,4.319833827544427,5.538138352173279,51.40700000000652
312467.1277,22.503563747374717,-5.890652949992891,-0.59581580533686,4.4058092515104486,51.40799999999581
312467.1287,20.85651506126033,-6.315065290488385,-5.535172838361572,3.2080608715088847,51.4089999999851
312467.1297,18.76080142604842,-6.498658784591221,-10.308564723409116,2.023490741289377,51.40999999997439
312467.1307,16.303656769381877,-6.403158253840938,-14.743046642877044,0.9188133917470666,51.41099999996368
312467.1317,13.570466010748486,-6.010654444562652,-18.68741889317212,-0.052825221909179924,51.412000000011176
312467.1327,10.644445789959756,-5.32242856299191,-22.015265997594817,-0.8519499983239296,51.413000000000466
312467.1337,7.607422734040895,-4.356125419576409,-24.62612599336135,-1.4514714725304643,51.413999999989755
312467.1347,4.541329363126981,-3.1416927147480704,-26.445067254555777,-1.8343479692555735,51.414999999979045
312467.1357,1.5299457311008733,-1.7166126519688805,-27.421077488603032,-1.9906276518876387,51.415999999968335
312467.1367,-1.339619136157913,-0.1210032062113683,-27.524743794205516,-1.9143499814519338,51.416999999957625
312467.1377,-3.976184259795237,1.6068441475368838,-26.74571824483609,-1.600778500331095,51.41800000000512
312467.1387,-6.284883845965828,3.4339935024694417,-25.0904209181185,-1.044376423056081,51.41899999999441
312467.1397,-8.168939762427513,5.335085111303505,-22.580338226693204,-0.237830442628031,51.4199999999837
312467.1407,-9.5329026766128,7.29303185032477,-19.251140701391122,0.8277117115476246,51.42099999997299
312467.1417,-10.287256084809359,9.298156677699033,-15.152686910430049,2.1611828463669576,51.42199999996228
312467.1427,-10.354091434028335,11.345919110190529,-10.349817169203742,3.7690697645177766,51.42300000000978
312467.1437,-9.67339977447037,13.433544663381156,-4.923690735405389,5.652115509853102,51.42399999999907
312467.1447,-8.20940395526737,15.556002847073874,1.0266995609768277,7.8016601642562815,51.42499999998836
312467.1457,-5.956289385476811,17.701862925331476,7.383276925669151,10.19609920811783,51.42599999997765
312467.1467,-2.9426894861164845,19.84958338167177,14.008358361232828,12.797956175006323,51.42699999996694
312467.1477,0.7656535380213255,21.96475778211399,20.745289693476938,15.55202983846686,51.42799999995623
312467.1487,5.065505417237963,23.998749475751573,27.42057743862158,18.384988280743766,51.429000000003725
312467.1497,9.818308840181611,25.889009060802017,33.8477208986101,21.20665096027423,51.429999999993015
312467.1507,14.854966080618372,27.561195438075234,39.832778115135326,23.91303783070938,51.430999999982305
312467.1517,19.983067201713595,28.933030822723016,45.181512807221125,26.39108744035726,51.431999999971595
312467.1527,24.99617228783314,29.91963143857376,49.70778508292452,28.52477126170084,51.432999999960884
312467.1537,29.684559865858557,30.439887950752027,53.24268571480348,30.20217680201262,51.43400000000838
312467.1547,33.846703805025726,30.423340308032405,55.64378959868888,31.323013177134566,51.43499999999767
312467.1557,37.30065257358737,29.816914281789025,56.8038327393366,31.80592238128677,51.43599999998696
312467.1567,39.894467206745645,28.590870338788214,56.65810789595955,31.594965514685175,51.43699999997625
312467.1577,41.51493054664915,26.74336241122677,55.18993015765625,30.66469841871755,51.43799999996554
312467.1587,42.09386618417059,24.303111230997942,52.433642167081594,29.02335248865796,51.43900000001304
312467.1597,41.611590419819436,21.329854804878114,48.474800304542285,26.713785376301825,51.44000000000233
312467.1607,40.09724821736361,17.91243283670726,43.44739338497748,23.81204962978151,51.44099999999162
312467.1617,37.626034205773216,14.164574220903878,37.528175805734364,20.423628329444014,51.44199999998091
312467.1627,34.31354977021682,10.218666916911072,30.928426849424863,16.677586851728805,51.4429999999702
312467.1637,30.30777458631208,6.217977318681028,23.883655945802797,12.719070298804317,51.44399999995949
312467.1647,25.7793151055134,2.30793336783527,16.641940825843424,8.700719840077424,51.445000000006985
312467.1657,20.91071703488581,-1.3728224001408826,9.45169597723127,4.773674550244726,51.445999999996275
312467.1667,15.885682902697472,-4.700876249512969,2.549712112990113,1.078859325971861,51.446999999985565
312467.1677,10.879015109332334,-7.575289663989184,-3.8497208105956826,-2.2607692576849328,51.447999999974854
312467.1687,6.048012187212842,-9.92305988427242,-9.563891775304342,-5.146436159422738,51.448999999964144
312467.1697,1.525890820997099,-11.702364876264351,-14.448390367630989,-7.507777885497558,51.45000000001164
312467.1707,-2.5823961944448004,-12.903362085830981,-18.40111748115249,-9.30482638394893,51.45100000000093
312467.1717,-6.201805831893982,-13.546530416089231,-21.363460772827132,-10.527684953676147,51.45199999999022
312467.1727,-9.2864097883188,-13.678765114154308,-23.31874634026933,-11.194038107467545,51.45299999997951
312467.1737,-11.816472380823923,-13.367634749633654,-24.288297643761474,-11.344824699858986,51.4539999999688
312467.1747,-13.7938964818403,-12.69436925173809,-24.325615938077302,-11.038557020682727,51.45499999995809
312467.1757,-15.236659738837915,-11.746252906701692,-23.509326876497266,-10.344873744460676,51.45600000000559
312467.1767,-16.17292507209373,-10.609136455812488,-21.935604165915823,-9.337962099235114,51.45699999999488
312467.1777,-16.63550097357215,-9.360754385947718,-19.71077813282236,-8.090470480226125,51.45799999998417
312467.1787,-16.657250539804842,-8.065440188645272,-16.944766506107733,-6.668459074976324,51.45899999997346
312467.1797,-16.267912244363888,-6.770683121104508,-13.74583490015524,-5.127810748605744,51.45999999996275
312467.1807,-15.492614767296185,-5.505779588780323,-10.21701938438772,-3.512360311575327,51.461000000010245
312467.1817,-14.35216166312234,-4.282619419477563,-6.454341473326343,-1.8538139314673205,51.461999999999534
312467.1827,-12.864950635511436,-3.098432901454039,-2.546737682633405,-0.1733405195591215,51.462999999988824
312467.1837,-11.050198400721987,-1.940129515775888,1.4225672843685948,1.5154576567481077,51.463999999978114
312467.1847,-8.93198545099267,-0.7897028703153111,5.373673070906117,3.2026297961463257,51.464999999967404
312467.1857,-6.543531570583081,0.3699263007523326,9.227139093762496,4.8775467125476375,51.46599999995669
312467.1867,-3.9310734202166757,1.5492961123000488,12.901226538228794,6.524725425653553,51.46700000000419
312467.1877,-1.1567441461376125,2.74765700137194,16.309811323573165,8.120356788054323,51.46799999999348
312467.1887,1.7000508365744416,3.9496382407264576,19.361449634793797,9.630006712437485,51.46899999998277
312467.1897,4.543117242265666,5.123724904912,21.959939983924855,11.007833987751955,51.46999999997206
312467.1907,7.261978026447941,6.222754176364042,24.00654760792319,12.1975034754777,51.47099999996135
312467.1917,9.736351807839347,7.1864297156554295,25.403856797777177,13.13478925259352,51.47200000000885
312467.1927,11.842338721422275,7.945641934403971,26.06101527790641,13.751676649661954,51.47299999999814
312467.1937,13.459855596473854,8.42819142589871,25.89995306217789,13.981603948956105,51.47399999998743
312467.1947,14.48071022575268,8.565361590949776,24.862015500084983,13.765350916090432,51.47499999997672
312467.1957,14.816609393028799,8.298689865076204,22.914361915816563,13.056996118219542,51.47599999996601
312467.1967,14.406367663607751,7.586254773288729,20.055457419790507,11.829337153016542,51.4769999999553
312467.1977,13.221627536987056,6.407831831256622,16.31902984573888,10.078200822433855,51.478000000002794
312467.1987,11.270513226925916,4.768371886122722,11.775973255479434,7.82516125175008,51.478999999992084
312467.1997,8.598810153691709,2.6994112407508317,6.533844445509994,5.1183245088625915,51.47999999998137
312467.2007,5.288474495701012,0.25821874233893144,0.733804149390524,2.031014984155316,51.48099999997066
312467.2017,1.4535118678731709,-2.4752981558612928,-5.454919228691441,-1.3416054432113145,51.48199999995995
312467.2027,-2.766500945350883,-5.403689759390297,-11.842740138840863,-4.887758665742301,51.48300000000745
312467.2037,-7.214764745566266,-8.418629238044051,-18.229094640031537,-8.48570865237285,51.48399999999674
312467.2047,-11.726820943731614,-11.408558425519267,-24.412820884351582,-12.011313353332428,51.48499999998603
312467.2057,-16.140562027759337,-14.266627907800304,-30.202772549011737,-15.345837095356348,51.48599999997532
312467.2067,-20.30588196611695,-16.898212465846584,-35.42786266801436,-18.38336007624143,51.48699999996461
312467.2077,-24.093192334890503,-19.227319649327445,-39.945773847733044,-21.037153894064154,51.48800000001211
312467.2087,-27.400134197881744,-21.201311859937807,-43.649678532061586,-23.244484114227227,51.4890000000014
312467.2097,-30.155981115157577,-22.7935210262513,-46.47248002069942,-24.96944400355021,51.48999999999069
312467.2107,-32.3234394031173,-24.00353447903204,-48.388295841571384,-26.203604085764894,51.49099999997998
312467.2117,-33.89778787546727,-24.855151705755286,-49.41114012972553,-26.96446279009877,51.491999999969266
312467.2127,-34.903538313889676,-25.392232869750316,-49.59099886235134,-27.291884903642305,51.492999999958556
312467.2137,-35.38901717261193,-25.672859876071342,-49.00770896289765,-27.24289744081565,51.494000000006054
312467.2147,-35.41944779696865,-25.76238995429282,-47.76322921147903,-26.885359348788665,51.49499999999534
312467.2157,-35.069233980904045,-25.726084747807533,-45.97301130727018,-26.291118123615163,51.49599999998463
312467.2167,-34.414198833099555,-25.622034736633317,-43.757232544025484,-25.52930374396064,51.49699999997392
312467.2177,-33.52451315641304,-25.495065889763417,-41.232633138070035,-24.660384938209393,51.49799999996321
312467.2187,-32.458957451034316,-25.37221594025807,-38.50561397422267,-23.731527396330165,51.49900000001071
312467.2197,-31.261010639654057,-25.26021127823629,-35.66710374226675,-22.77365667845355,51.5
312467.2207,-29.957062000096453,-25.145177387001286,-32.789513173983565,-21.800453831756865,51.50099999998929
312467.2217,-28.556820296376777,-24.994595300971426,-29.925877631634215,-20.80931637102585,51.50199999997858
312467.2227,-27.055767907186997,-24.761295234237792,-27.111069234053094,-19.78412057305284,51.50299999996787
312467.2237,-25.439300328566407,-24.38907791515066,-24.36475781128231,-18.699442360213546,51.50399999995716
312467.2247,-23.688023311409268,-23.819393864859784,-21.695636061330447,-17.525750991166667,51.50500000000466
312467.2257,-21.783567662553445,-22.99840655916771,-19.10631422904119,-16.234996398087105,51.505999999993946
312467.2267,-19.714236369324727,-21.883727341093667,-16.598243833154363,-14.805976455500106,51.506999999983236
312467.2277,-17.479824490512613,-20.450141868697813,-14.176052316235317,-13.228898055121395,51.507999999972526
312467.2287,-15.09504635991561,-18.69374670561149,-11.850757976137764,-11.508632750247012,51.508999999961816
312467.2297,-12.591157392576436,-16.634070749042486,-9.641477568582728,-9.666305184929643,51.51000000000931
312467.2307,-10.015553594999874,-14.313954273369749,-7.575422343460383,-7.7390267599113525,51.5109999999986
312467.2317,-7.429350830877205,-11.797179036199545,-5.686182698859267,-5.77778054523219,51.51199999998789
312467.2327,-4.9031656762914455,-9.164064490164666,-4.010505663306012,-3.843656901013727,51.51299999997718
312467.2337,-2.5115178444481314,-6.505445883041639,-2.583951614142116,-2.0028131434395737,51.51399999996647
312467.2347,-0.3264302782975705,-3.9156101362712796,-1.4359577460853041,-0.32066731152132266,51.51499999995576
312467.2357,1.5890991746699896,-1.4848690468187422,-0.5849206783978474,1.1440782913803094,51.51600000000326
312467.2367,3.1870515973770206,0.707513748734152,-0.033929755291193374,2.3449625009932724,51.51699999999255
312467.2377,4.4391069577159525,2.5993592506963403,0.23226677980662996,3.2522557457967047,51.51799999998184
312467.2387,5.339583275845083,4.149991252109602,0.24859433582714002,3.855928762289039,51.51899999997113
312467.2397,5.9062190675718265,5.342613077349938,0.06898230668148891,4.166760381732061,51.51999999996042
312467.2407,6.178636159821065,6.184420650512316,-0.23640393512658367,4.215428983526942,51.521000000007916
312467.2417,6.2145542731016725,6.704453024704781,-0.5859036133266494,4.049634180062153,51.521999999997206
312467.2427,6.084061176336726,6.949405509760268,-0.8927312850616879,3.7294955021541782,51.522999999986496
312467.2437,5.862449487270963,6.97783310418899,-1.0724461007066868,3.3216533460552524,51.523999999975786
312467.2447,5.622292250590099,6.853333024748911,-1.0508458957404425,2.892636240476971,51.524999999965075
312467.2457,5.425527489567555,6.637398679982442,-0.7715329929122161,2.5021433610119206,51.52600000001257
312467.2467,5.3163461795540305,6.382672976049252,-0.20239130486551302,2.196913100239715,51.52700000000186
312467.2477,5.315624806332811,6.127292523074035,0.6597182125866852,2.00580443796552,51.52799999999115
312467.2487,5.417516645051945,5.8909093039879625,1.786599150105512,1.9366113282466135,51.52899999998044
312467.2497,5.588626144489984,5.672812592562969,3.11905756361536,1.9749709518476424,51.52999999996973
312467.2507,5.7699555611430124,5.452367074399053,4.5700582553917934,2.0855293441408858,51.53099999995902
312467.2517,5.881554091108744,5.191753224410364,6.030564713574316,2.2153113018352473,51.53200000000652
312467.2527,5.829541555662631,4.840765360928996,7.377675681041288,2.2990263415482874,51.53299999999581
312467.2537,5.514945772719567,4.3432139414009745,8.484447291282882,2.2658496192370112,51.5339999999851
312467.2547,4.84360750528712,3.6443120903343913,9.230615566003049,2.0470649503836533,51.53499999997439
312467.2557,3.736287428574757,2.698318555529365,9.513327064101237,1.5838614375837692,51.53599999996368
312467.2567,2.138067951655686,1.4756711581808974,9.256956822136882,0.8345454989879066,51.537000000011176
312467.2577,0.026183781572586995,-0.031119465059940152,8.42114649274072,-0.2195301463399168,51.538000000000466
312467.2587,-2.5844640931582337,-1.8034393501999075,7.006328207517918,-1.5699127940022117,51.538999999989755
312467.2597,-5.638666215599903,-3.794859592657122,5.056200228924687,-3.1793004283321236,51.539999999979045
312467.2607,-9.041447028058032,-5.931985985594919,2.6568715505789893,-4.982320502493597,51.540999999968335
312467.2617,-12.661831682374618,-8.117873640809007,-0.06732796094029744,-6.888832159031875,51.541999999957625
312467.2627,-16.3395987534101,-10.237769064484876,-2.961092550217955,-8.789517023012918,51.54300000000512
312467.2637,-19.89452176297878,-12.166721271297599,-5.847900823981916,-10.563313304696225,51.54399999999441
312467.2647,-23.13738735207964,-13.778424128701582,-8.541536711201056,-12.086077177345071,51.5449999999837
312467.2657,-25.881925913798295,-14.954531437998783,-10.858467191195698,-13.239740386652338,51.54599999997299
312467.2667,-27.956715186329603,-15.593635906512704,-12.630102300209833,-13.921184709231698,51.54699999996228
312467.2677,-29.216125203434895,-15.619128062811498,-13.713977485201315,-14.050076832000734,51.54800000000978
312467.2687,-29.54946284288281,-14.985249041327215,-14.00299646735985,-13.574999357783225,51.54899999999907
312467.2697,-28.887637120908884,-13.68081276488796,-13.432045139779815,-12.477366296373177,51.54999999998836
312467.2707,-27.20688672901903,-11.730283046824727,-11.981517566854878,-10.772810193506992,51.55099999997765
312467.2717,-24.529368245757652,-9.192129570617004,-9.677562493194493,-8.509954251860872,51.55199999996694
312467.2727,-20.92067290369188,-6.154630948270484,-6.589138249877103,-5.766715119742271,51.55299999995623
312467.2737,-16.484596754309536,-2.729519966590242,-2.8222299681669827,-2.644498657125293,51.554000000003725
312467.2747,-11.35571001510473,0.9559457138769764,1.4881885425215389,0.7391683017255835,51.554999999993015
312467.2757,-5.6904364579974525,4.767772367534673,6.187695387857456,4.258899112174885,51.555999999982305
312467.2767,0.34255138514262495,8.574100229081129,11.11261291573478,7.789866545052678,51.556999999971595
312467.2777,6.571798080538459,12.253387209320257,16.099983466593223,11.215651092807335,51.557999999960884
312467.2787,12.831629207369728,15.70122187784346,20.996522910248856,14.434863605975023,51.55900000000838
312467.2797,18.96918031705879,18.835228056768567,25.66588155072564,17.36602219037908,51.55999999999767
312467.2807,24.849443564743957,21.597718993641738,29.99373519582811,19.950344732552914,51.56099999998696
312467.2817,30.358106469888043,23.955984074348024,33.89046048262242,22.15232848067606,51.56199999997625
312467.2827,35.402192549330685,25.90032315109756,37.29139462639478,23.95820600093286,51.56299999996554
312467.2837,39.90873856381434,27.44015998048875,40.154916254537284,25.372571155810125,51.56400000001304
312467.2847,43.821935422127545,28.59874585735092,42.45878786778857,26.413639610020017,51.56500000000233
312467.2857,47.099300542681746,29.407089920746227,44.195352294422584,27.107729313722345,51.56599999999162
312467.2867,49.70752523304175,29.897811901149588,45.36626128712271,27.483606057873317,51.56699999998091
312467.2877,51.61864467760591,30.09960100899475,45.97742696107801,27.567332326310808,51.5679999999702
312467.2887,52.80711102815251,30.03288310369719,46.03482631169874,27.378185719779474,51.56899999995949
312467.2897,53.24821971306821,29.707156016073874,45.54166312813909,26.92608410870814,51.570000000006985
312467.2907,52.9181596677865,29.120264727158496,44.4972142768047,26.21078194646374,51.570999999996275
312467.2917,51.795748933338864,28.259673349606757,42.8974776453191,25.2229036782009,51.571999999985565
312467.2927,49.86570015664609,27.10557140566966,40.73751918115862,23.946676225111297,51.572999999974854
312467.2937,47.12305889259443,25.635450027031563,38.01520945510344,22.364033869962174,51.573999999964144
312467.2947,43.57829263768836,23.829619867746302,34.735867603010504,20.459614661463032,51.57500000001164
312467.2957,39.262397903112834,21.677033320406245,30.917210326507796,18.226063327370035,51.57600000000093
312467.2967,34.23134857440042,19.18073016674935,26.593948457092008,15.669012227097852,51.57699999999022
312467.2977,28.569236817908635,16.36225260782226,21.821389372240002,12.811133589122349,51.57799999997951
312467.2987,22.38955612736217,13.264470219657746,16.67748904279554,9.694741155865444,51.5789999999688
312467.2997,15.834235889738848,9.952408519436208,11.262944345141339,6.382559080933069,51.57999999995809
312467.3007,9.070242962841188,6.511871411390148,5.6991098882613604,2.9564566932287946,51.58100000000559
312467.3017,2.2837982851937317,3.0458683665419812,0.12374457760850274,-0.48584835128316867,51.58199999999488
312467.3027,-4.327507267572431,-0.3309201019051151,-5.315180816785629,-3.835909222209975,51.58299999998417
312467.3037,-10.56419706289714,-3.49920242839574,-10.467175636751552,-6.981092997668705,51.58399999997346
312467.3047,-16.235317062196682,-6.343062809040663,-15.187812383165177,-9.811996874415062,51.58499999996275
312467.3057,-21.16897651202981,-8.758170412302745,-19.347480029310425,-12.23008627366671,51.586000000010245
312467.3067,-25.222184590963593,-10.659468209274499,-22.83954315531533,-14.154865476711013,51.586999999999534
312467.3077,-28.28917887835097,-11.987631964743711,-25.58717275544848,-15.529919787102886,51.587999999988824
312467.3087,-30.30754856618615,-12.713692130712772,-27.54821674818332,-16.327260766917494,51.588999999978114
312467.3097,-31.261627957082098,-12.841372926538531,-28.71764308885274,-16.549554228249885,51.589999999967404
312467.3107,-31.18285837236249,-12.406908403762598,-29.12730050107791,-16.23000031148291,51.59099999995669
312467.3117,-30.147068646165792,-11.476325073715435,-28.84298100396493,-15.429847990495954,51.59200000000419
312467.3127,-28.268882506222404,-10.140412603652313,-27.95901163330109,-14.233742233386934,51.59299999999348
312467.3137,-25.693701289961435,-8.507815790602617,-26.590826526857192,-12.743300016724826,51.59399999998277
312467.3147,-22.58791024084623,-6.696852062945877,-24.866153146671994,-11.069472356312282,51.59499999997206
312467.3157,-19.128097540127616,-4.826772633795248,-22.915570061930268,-9.324357973086332,51.59599999996135
312467.3167,-15.490144353716152,-3.0092311857723115,-20.863246333542005,-7.613179753690858,51.59700000000885
312467.3177,-11.839035491889344,-1.3406972811015756,-18.818648953492975,-6.027113506066596,51.59799999999814
312467.3187,-8.320155222859741,0.10354470024674557,-16.869907263085295,-4.637571907700482,51.59899999998743
312467.3197,-5.052680079776154,1.2733268568298695,-15.079361299869193,-3.492403577046905,51.59999999997672
312467.3207,-2.125475315554178,2.145176400259326,-13.481610407476868,-2.6142819281086447,51.60099999996601
312467.3217,0.40433591161998905,2.7214850933946253,-12.084139748107383,-2.001349056299789,51.6019999999553
312467.3227,2.510208439802929,3.027442166027806,-10.870358877900287,-1.6299668262372071,51.603000000002794
312467.3237,4.192726385849162,3.1061130309723377,-9.80466200212544,-1.4592313591406987,51.603999999992084
312467.3247,5.474376036140249,3.012215788262736,-8.838935716452664,-1.436747261156524,51.60499999998137
312467.3257,6.39318764313831,2.805260765486335,-7.919814669770087,-1.505049566948739,51.60599999997066
312467.3267,6.995966899051697,2.5427644124405964,-6.995930514028229,-1.6080147082911986,51.60699999995995
312467.3277,7.331836811411409,2.274223666771523,-6.024419582202159,-1.6966209035932922,51.60800000000745
312467.3287,7.44673856923783,2.0364434552839055,-4.976047322940405,-1.7335006998399423,51.60899999999674
312467.3297,7.379404351946717,1.8506581030492764,-3.8384627990868996,-1.6958652054227905,51.60999999998603
312467.3307,7.159130732818124,1.721692691885165,-2.617298532386563,-1.5765566797488784,51.61099999997532
312467.3317,6.805467916249629,1.639192661625182,-1.3350591067469755,-1.3831855077627881,51.61199999996461
312467.3327,6.329719794239623,1.5807312271944316,-0.027973210059466472,-1.1355089893517867,51.61300000001211
312467.3337,5.7379454494652915,1.5164065545358103,1.2588049906408294,-0.8613925343381742,51.6140000000014
312467.3347,5.034985188659085,1.4143839792574617,2.4770891453370387,-0.5918404265011908,51.61499999999069
312467.3357,4.228920476153373,1.2467385893722844,3.581980565738438,-0.3556787049524519,51.61599999997998
312467.3367,3.3353286852462753,0.9949202488706507,4.537903354957971,-0.1745074851544918,51.616999999969266
312467.3377,2.3807151305832566,0.654199950840856,5.323673516655704,-0.058510867604050804,51.617999999958556
312467.3387,1.4045939899706472,0.23655960092985837,5.9360206345344055,-0.003622511609951163,51.619000000006054
312467.3397,0.4598372090974696,-0.22835332902626038,6.391140457089951,0.009596900788355745,51.61999999999534
312467.3407,-0.38889886337936785,-0.6943852328739984,6.724060310552687,0.015193462516639234,51.62099999998463
312467.3417,-1.0686450920806003,-1.1021088498923364,6.98582636612727,0.05918717236914877,51.62199999997392
312467.3427,-1.503249494853831,-1.3838693035108913,7.238749752232738,0.19529300461245147,51.62299999996321
312467.3437,-1.6197302502166204,-1.4701891302259684,7.550154567815371,0.47939475359752565,51.62400000001071
312467.3447,-1.3552620261737858,-1.2969256099430995,7.9852343727295345,0.9633104640419248,51.625
312467.3457,-0.6641085247612235,-0.8124799798117133,8.599728186021796,1.6884757422756358,51.62599999998929
312467.3467,0.4762153819493761,0.015667460300924786,9.433161630980212,2.6801971180910487,51.62699999997858
312467.3477,2.060226167722053,1.1957766210390464,10.503359640447641,3.94308877920685,51.62799999996787
312467.3487,4.051761800841448,2.7085883284101646,11.802827288271947,5.45820564261847,51.62899999995716
312467.3497,6.383672196343046,4.506383183327836,13.297424960907724,7.18223309820141,51.63000000000466
312467.3507,8.960089011630567,6.514543832290201,14.927549295030394,9.048903246541121,51.630999999993946
312467.3517,11.661216998613714,8.635573338044992,16.611792567811808,10.972597211236712,51.631999999983236
312467.3527,14.350351698316752,10.755290841694526,18.252813476274188,12.853883315949915,51.632999999972526
312467.3537,16.882613126898683,12.750717454574739,19.74493467053139,14.586551836757145,51.633999999961816
312467.3547,19.114713226442312,14.499000351418829,20.982808215138547,16.06555704953496,51.63500000000931
312467.3557,20.914963250834447,15.886617333780414,21.870376504587277,17.195181106867285,51.6359999999986
312467.3567,22.172687308810023,16.81806806555409,22.32931450088533,17.896701520996412,51.63699999998789
312467.3577,22.806244612567053,17.223295509823316,22.306174097701128,18.114878280544932,51.63799999997718
312467.3587,22.76897295258072,17.06318859485655,21.777560232795544,17.822675067106477,51.63899999996647
312467.3597,22.05253987181024,16.332684901050488,20.752841263185715,17.023782690382248,51.63999999995576
312467.3607,20.687410135271005,15.061204543627216,19.274117100187826,15.752707450286376,51.64100000000326
312467.3617,18.740387918968757,13.310383534885018,17.413417018443727,14.072404440526944,51.64199999999255
312467.3627,16.30944650128581,11.169314507803398,15.26735154441112,12.069655409510334,51.64299999998184
312467.3637,13.516293461333902,8.747722318006398,12.949675565893731,9.848592028856348,51.64399999997113
312467.3647,10.497313578534305,6.167681197434474,10.582410772821405,7.522929369783779,51.64499999996042
312467.3657,7.393666769380838,3.554602194567429,8.286306664922645,5.207585699749763,51.646000000007916
312467.3667,4.341382083026442,1.0282734744002604,6.171478248966829,3.0104130730826344,51.646999999997206
312467.3677,1.462275396388985,-1.305282917295283,4.329039680672306,1.0247443161328298,51.647999999986496
312467.3687,-1.1435702807943653,-3.360463613209605,2.824458381649854,-0.6766219508713509,51.648999999975786
312467.3697,-3.403178194271656,-5.076722312193982,1.693192708581668,-2.0455172938966584,51.649999999965075
312467.3707,-5.273527784314587,-6.420867629897393,0.9389635471920842,-3.060283136014469,51.65100000001257
312467.3717,-6.741741984240355,-7.3869183257721405,0.5347665744303272,-3.7253456294511262,51.65200000000186
312467.3727,-7.822719231869663,-7.993643516978622,0.42648058771311453,-4.068611123816854,51.65299999999115
312467.3737,-8.554549231618216,-8.280128522447539,0.5386920853641776,-4.13700611330216,51.65399999998044
312467.3747,-8.992246492838555,-8.299883060635755,0.782159374642096,-3.9906498101337142,51.65499999996973
312467.3757,-9.200475846874625,-8.114131123325727,1.062199254057564,-3.6962621624557856,51.65599999995902
312467.3767,-9.246016850939995,-7.784979786577772,1.2872085678926581,-3.3204647761585173,51.65700000000652
312467.3777,-9.190713210647264,-7.36915273268373,1.3765376829506561,-2.923622301152072,51.65799999999581
312467.3787,-9.085580273353566,-6.9128954194331795,1.2670118788685347,-2.5547992231085686,51.6589999999851
312467.3797,-8.96660646291035,-6.448521317250131,0.9175412996908567,-2.2482795946443956,51.65999999997439
312467.3807,-8.852597613261334,-5.992886814922815,0.31145571848122816,-2.0219282729264703,51.66099999996368
312467.3817,-8.745195598021501,-5.54787489402102,-0.5435726602595627,-1.8774788904006985,51.662000000011176
312467.3827,-8.630976334831375,-5.102755497195604,-1.6179192371237054,-1.8026354983001995,51.663000000000466
312467.3837,-8.485319687896723,-4.638094963651885,-2.864389035656757,-1.7746913246014016,51.663999999989755
312467.3847,-8.277565932216213,-4.1307274535528595,-4.2240837392287345,-1.7652174742640738,51.664999999979045
312467.3857,-7.976847574538871,-3.559193669992606,-5.633114054012239,-1.7452713481790993,51.665999999968335
312467.3867,-7.557923433676445,-2.90900687241129,-7.029450654960492,-1.690528902133271,51.666999999957625
312467.3877,-7.006349500628395,-2.177127333021208,-8.359211301301988,-1.5857606578891101,51.66800000000512
312467.3887,-6.322396815820276,-1.3751115266065563,-9.581756002837272,-1.4281465180125084,51.66899999999441
312467.3897,-5.523262252462992,-0.5305425893501167,-10.673098049761382,-1.229050927338887,51.6699999999837
312467.3907,-4.643299620172742,0.31347041130497716,-11.62732192809293,-1.0140446979722018,51.67099999997299
312467.3917,-3.732207372070397,1.100733454021049,-12.45591071543432,-0.82114605407667,51.67199999996228
312467.3927,-2.851324272126187,1.7661526047861538,-13.185103931988907,-0.697442277332502,51.67300000000978
312467.3937,-2.068384009517115,2.2412805456444915,-13.85160997469479,-0.6944256806124347,51.67399999999907
312467.3947,-1.4512439143303868,2.460693251665536,-14.497164867067127,-0.8625161477556832,51.67499999998836
312467.3957,-1.0612152095707899,2.3685693654233986,-15.162544513453938,-1.2453332082813655,51.67599999997765
312467.3967,-0.9466714010513011,1.9248111464563282,-15.881689697486262,-1.874314407300362,51.67699999996694
312467.3977,-1.1375925174172454,1.110078241654943,-16.67658688151348,-2.764250097837228,51.67799999995623
312467.3987,-1.6416177800965421,-0.0707990010224361,-17.553465486109733,-3.9102202488123066,51.679000000003725
312467.3997,-2.4420362836131244,-1.5874105397944707,-18.500732424216807,-5.286284703092196,51.679999999993015
312467.4007,-3.4979585080286952,-3.384556988765826,-19.488881637360908,-6.846107746687302,51.680999999982305
312467.4017,-4.7466994150752555,-5.385224481607408,-20.47240891931816,-8.525507707826117,51.681999999971595
312467.4027,-6.1081874708405275,-7.495518899163134,-21.39355151891191,-10.246731420298,51.682999999960884
312467.4037,-7.491014626322926,-9.611144160276332,-22.187479309075023,-11.92408072050867,51.68400000000838
312467.4047,-8.799579860962705,-11.624858026680766,-22.788409308843754,-13.470380935569588,51.68499999999767
312467.4057,-9.941669541694298,-13.434241512090923,-23.136013915062637,-14.80369336830795,51.68599999998696
312467.4067,-10.835772555453028,-14.949084277829476,-23.18145588435673,-15.853644107765556,51.68699999997625
312467.4077,-11.417451618542431,-16.09772191582441,-22.892414066861193,-16.566773402689247,51.68799999996554
312467.4087,-11.64418224921012,-16.83175877348027,-22.256560479575487,-16.910400586667688,51.68900000001304
312467.4097,-11.498218906166416,-17.12876267326687,-21.28310228046651,-16.874640571674377,51.69000000000233
312467.4107,-10.98723927498929,-16.992710813880255,-20.00219661240605,-16.472385651546404,51.69099999999162
312467.4117,-10.142733796875048,-16.452180597041576,-18.4622629007896,-15.737263486424578,51.69199999998091
312467.4127,-9.016326936645852,-15.556494203129969,-16.725434374495713,-14.719779347011425,51.6929999999702
312467.4137,-7.674417624900768,-14.370220389467203,-14.861586413731127,-13.482028512559667,51.69399999995949
312467.4147,-6.191688771679595,-12.966592073949844,-12.941533769629602,-12.091505441346701,51.695000000006985
312467.4157,-4.64414346185803,-11.420498468183224,-11.03008559809764,-10.614625801688065,51.695999999996275
312467.4167,-3.102367502847239,-9.801745847483762,-9.179675988799453,-9.11060645584528,51.696999999985565
312467.4177,-1.6256899827556024,-8.169247845443648,-7.425244288096566,-7.626313720750659,51.697999999974854
312467.4187,-0.2578179491278805,-6.5667075319643,-5.780927179479067,-6.19259465290128,51.698999999964144
312467.4197,0.9756324833715253,-5.020199038344399,-4.238953267196629,-4.822458711409472,51.70000000001164
312467.4207,2.067483199779346,-3.537861253731169,-2.7709168717142516,-3.5112921191746436,51.70100000000093
312467.4217,3.027214415687529,-2.1116993546944767,-1.3313714312518206,-2.2390825693113494,51.70199999999022
312467.4227,3.8772754073624274,-0.7212730891948257,0.13655264111840146,-0.97442769472693,51.70299999997951
312467.4237,4.647904057852354,0.6611446143903273,1.6940122618310272,0.3200828653075187,51.7039999999688
312467.4247,5.3710337327083595,2.064509437715466,3.398470870699788,1.6816665713776757,51.70499999995809
312467.4257,6.073968431844799,3.5127162020423555,5.29564887050886,3.1409740019463412,51.70600000000559
312467.4267,6.773541055461608,5.018777289034522,7.412211568518583,4.716215349519516,51.70699999999488
312467.4277,7.4714308153403115,6.5801285231728235,9.749952856988761,6.40842225594344,51.70799999998417
312467.4287,8.151207346976932,8.175615443511811,12.282110285505198,8.198377712801022,51.70899999997346
312467.4297,8.777500906797115,9.764549162571287,14.952260680197789,10.04559052879749,51.70999999996275
312467.4307,9.297486165662255,11.28801587016452,17.67601203698577,11.889495262527868,51.711000000010245
312467.4317,9.644632024114465,12.672397368542315,20.34544877519411,13.652842215581902,51.711999999999534
312467.4327,9.744434583979595,13.834833979977363,22.836027962606483,15.247025931014964,51.712999999988824
312467.4337,9.52163820258448,14.690158028487657,25.01538850578075,16.57890565436398,51.713999999978114
312467.4347,8.9082817148685,15.158666084241668,26.753346158137834,17.55851650683411,51.714999999967404
312467.4357,7.851800614619015,15.173997441308561,27.932222881272256,18.106971048786626,51.71599999995669
312467.4367,6.322382597432591,14.690355387419471,28.456611896215865,18.16381755482076,51.71700000000419
312467.4377,4.318817764541304,13.688350508372993,28.261714721230724,17.69315747369086,51.71799999999348
312467.4387,1.8722028867209728,12.178858209077118,27.31950089882275,16.687927317751917,51.71899999998277
312467.4397,-0.952958867921167,10.204455642382657,25.642124751036175,15.171910296053444,51.71999999997206
312467.4407,-4.0604919951206355,7.838220242315871,23.282269618440438,13.199245498209743,51.72099999996135
312467.4417,-7.327090339771477,5.179912636658848,20.33035694414218,10.851428349435345,51.72200000000885
312467.4427,-10.609382677722655,2.3498080623621043,16.9088306923754,8.232024089218731,51.72299999999814
312467.4437,-13.753003049942292,-0.5193404451550654,13.163981830344438,5.459524636573311,51.72399999998743
312467.4447,-16.602955744652956,-3.291547777536043,9.25598967360822,2.658948699018093,51.72499999997672
312467.4457,-19.0144364921735,-5.837275957354771,5.348007546585546,-0.047100584257683056,51.72599999996601
312467.4467,-20.863218020593873,-8.042726250892239,1.595196011223748,-2.54715746255038,51.7269999999553
312467.4477,-22.054734838386906,-9.817953760022268,-1.8653985058591114,-4.748653227432543,51.728000000002794
312467.4487,-22.531106632377323,-11.103116562648045,-4.923307272272651,-6.584061203220217,51.728999999992084
312467.4497,-22.275512363366452,-11.87233653468463,-7.500789324255652,-8.014922720550608,51.72999999998137
312467.4507,-21.313552024115445,-12.134860919577157,-9.55622525037002,-9.033442588839778,51.73099999997066
312467.4517,-19.71148931896468,-11.933452471301834,-11.084560597270272,-9.661561778251698,51.73199999995995
312467.4527,-17.571532665172363,-11.340179156061032,-12.114866025622142,-9.947639831218803,51.73300000000745
312467.4537,-15.024559798850127,-10.449999318813205,-12.705330838835755,-9.961088934849245,51.73399999999674
312467.4547,-12.220900529433196,-9.372724227766566,-12.936221500437263,-9.785476298228792,51.73499999998603
312467.4557,-9.319944290383361,-8.224070246240911,-12.90149803928772,-9.51073572739501,51.73599999997532
312467.4567,-6.479421073151678,-7.116576263484983,-12.69987495505077,-9.225192304532824,51.73699999996461
312467.4577,-3.845209784869807,-6.151153642281796,-12.426132115419934,-9.008101039969652,51.73800000001211
312467.4587,-1.5424579144729986,-5.40995786431854,-12.163425120673706,-8.92333279067103,51.7390000000014
312467.4597,0.3313414706988185,-4.95113189380289,-11.977220752789604,-9.014716240708339,51.73999999999069
312467.4607,1.7108608511458574,-4.805785309357773,-11.91130482034773,-9.30337621776833,51.74099999997998
312467.4617,2.564809170316796,-4.977358960029915,-11.986095318943278,-9.787212955422211,51.741999999969266
312467.4627,2.895173348214655,-5.443303154535844,-12.199264838869748,-10.44246329275189,51.742999999958556
312467.4637,2.734070652120296,-6.1587894147975835,-12.528455058914771,-11.227092856381644,51.744000000006054
312467.4647,2.1386506637242904,-7.0620011400178,-12.935674261256674,-12.085606162341355,51.74499999999534
312467.4657,1.1846351943540885,-8.080423102357207,-13.372824123774231,-12.954744281540162,51.74599999998463
312467.4667,-0.04082760371005039,-9.137484438157902,-13.787717649715436,-13.76947760617431,51.74699999997392
312467.4677,-1.4462991234404101,-10.158909564747173,-14.129932842786515,-14.468699155053784,51.74799999996321
312467.4687,-2.9425289982979876,-11.078194645829237,-14.355896700038482,-15.000080625708925,51.74900000001071
312467.4697,-4.447739377399938,-11.840746034751467,-14.432704635745573,-15.323662122948694,51.75
312467.4707,-5.8913361078693,-12.40637835410507,-14.340338956904251,-15.413895211786066,51.75099999998929
312467.4717,-7.215857988581803,-12.75005631654188,-14.072139231056184,-15.260031892853672,51.75199999997858
312467.4727,-8.377176266046598,-12.860956581647565,-13.633577198055281,-14.864931302553137,51.75299999996787
312467.4737,-9.34314785148164,-12.740104095052887,-13.039578337332923,-14.242523010563371,51.75399999995716
312467.4747,-10.091087819198364,-12.396983356476234,-12.310791663823911,-13.414303761467036,51.75500000000466
312467.4757,-10.60454335422084,-11.845624272717957,-11.469322406874543,-12.40533953261667,51.755999999993946
312467.4767,-10.869911089907085,-11.100704949207021,-10.534497442090375,-11.240287483692983,51.756999999983236
312467.4777,-10.873437337566875,-10.174196110417563,-9.519225240672837,-9.939938780068793,51.757999999972526
312467.4787,-10.599077162269351,-9.072996199945479,-8.427441771552692,-8.518715185620426,51.758999999961816
312467.4797,-10.02757102608984,-7.7978809517474135,-7.253008753412245,-6.983437125818404,51.76000000000931
312467.4807,-9.136939756581352,-6.34392981414215,-5.980264062135597,-5.33353083143286,51.7609999999986
312467.4817,-7.904417048272763,-4.702411258579411,-4.586233411867522,-3.5626729922327987,51.76199999998789
312467.4827,-6.3096531452152504,-2.8639289220109676,-3.0443176377831995,-1.6617008811452683,51.76299999997718
312467.4837,-4.338853795967997,-0.8224699669566071,-1.329091526422613,0.3775378457630879,51.76399999996647
312467.4847,-1.9893834299312276,1.4201266639086378,0.5782928773825877,2.5578421314919955,51.76499999995576
312467.4857,0.7257242934202015,3.8498376191187944,2.684697723548835,4.872342225395273,51.76600000000326
312467.4867,3.773931943926933,6.4368277884947025,4.980215684743946,7.300752914115118,51.76699999999255
312467.4877,7.1005865646453294,9.133050399861654,7.4346065607465786,9.80669837289245,51.76799999998184
312467.4887,10.627980331740735,11.87149138579125,9.995451556599944,12.336519405229804,51.76899999997113
312467.4897,14.256384434229698,14.567321379824028,12.58837006620271,14.81983542196886,51.76999999996042
312467.4907,17.867170729211384,17.121031910510382,15.119450999995314,17.17196233635203,51.771000000007916
312467.4917,21.327930332474754,19.42343064160258,17.47983623233912,19.2981004386497,51.771999999997206
312467.4927,24.49929423635819,21.362174043640152,19.552178578133642,21.099021907872316,51.772999999986496
312467.4937,27.242978942873656,22.829344637919824,21.218502152477548,22.477824534619156,51.773999999975786
312467.4947,29.430438686844703,23.72945166281135,22.36883856984276,23.347193189336306,51.774999999965075
312467.4957,30.951420023904756,23.987162386245938,22.909914033644373,23.63653671407792,51.77600000001257
312467.4967,31.72169396505888,23.55406461022892,22.773130478964397,23.298353463567537,51.77700000000186
312467.4977,31.689288714450374,22.413821164716776,21.921122702468942,22.31322611890953,51.77799999999115
312467.4987,30.838658962338144,20.585199796757458,20.35228015202484,20.69295203276126,51.77899999998044
312467.4997,29.192395733439138,18.122636097672945,18.10278744959658,18.481469885574562,51.77999999996973
312467.5007,26.810288631988325,15.11419709954755,15.245946741004028,15.753432632827407,51.78099999995902
312467.5017,23.785780582883195,11.677039407808802,11.88877826131279,12.610482913231117,51.78200000000652
312467.5027,20.240082327756937,7.950676968470897,8.166131294680614,9.175490809162742,51.78299999999581
312467.5037,16.3144184349274,4.088568857271136,4.23275388053255,5.585195766801253,51.7839999999851
312467.5047,12.161038920143934,0.2486882270353177,0.25394587130583585,1.9818372615233755,51.78499999997439
312467.5057,7.933735213116684,-3.416174687291419,-3.6044602456423807,-1.4955512096311412,51.78599999996368
312467.5067,3.7786360936514063,-6.7675987190251155,-7.18599413670904,-4.719481638766956,51.787000000011176
312467.5077,-0.17397520873393768,-9.689476738984542,-10.352541470373751,-7.581316941301176,51.788000000000466
312467.5087,-3.8161840341171813,-12.094101679873386,-12.991750421188465,-9.996971140727581,51.788999999989755
312467.5097,-7.066829423336162,-13.925944048143684,-15.02231574615721,-11.910581188261883,51.789999999979045
312467.5107,-9.87347688513718,-15.16287939158328,-16.396803134336825,-13.295912918067627,51.790999999968335
312467.5117,-12.21193114385553,-15.81485250793099,-17.101901693407665,-14.155469161171233,51.791999999957625
312467.5127,-14.083469558356114,-15.920192316531404,-17.15622338067365,-14.51747395722891,51.79300000000512
312467.5137,-15.510184885262715,-15.539995962554041,-16.605982900326556,-14.43109362379021,51.79399999999441
312467.5147,-16.528993783963934,-14.751163765894683,-15.519069787927268,-13.960405579425572,51.7949999999837
312467.5157,-17.184978961046635,-13.638772970842515,-13.97814948791797,-13.17772527479829,51.79599999997299
312467.5167,-17.524777642348035,-12.288518267599125,-12.07349088672924,-12.156941304618487,51.79699999996228
312467.5177,-17.59070316101405,-10.779917491078605,-9.896209042996194,-10.967485492691518,51.79800000000978
312467.5187,-17.41619277623005,-9.180885184377756,-7.5325356281844,-9.669481302522907,51.79899999999907
312467.5197,-17.02302292515142,-7.5441246106753175,-5.059594336897415,-8.310478981082069,51.79999999998836
312467.5207,-16.420538191285036,-5.905595461985593,-2.542978484529715,-6.924013010829034,51.80099999997765
312467.5217,-15.60692179286932,-4.285099017035299,-0.036221761510971014,-5.530023976432719,51.80199999996694
312467.5227,-14.57231512205761,-2.6888059838492424,2.4179582557996633,-4.136992052025016,51.80299999995623
312467.5237,-13.303393762408291,-1.1133558878614536,4.784959217824355,-2.7454522687454603,51.804000000003725
312467.5247,-11.788847486402252,0.4490002312767991,7.034609900170619,-1.3524200198953986,51.804999999993015
312467.5257,-10.025108076871623,2.004844616547662,9.137083482111512,0.04383711164194703,51.805999999982305
312467.5267,-8.021632014791926,3.5542940215143823,11.059031991408267,1.4392790449216342,51.806999999971595
312467.5277,-5.805079167841044,5.086596425761611,12.760541109655533,2.82039437637363,51.807999999960884
312467.5287,-3.4218306735880595,6.577167466259299,14.193414424872817,4.161806063765281,51.80900000000838
312467.5297,-0.9384496165344913,7.986460457728954,15.301149471464019,5.425527207578893,51.80999999999767
312467.5307,1.5601085486415753,9.260872841297928,16.020779140316534,6.562038156340146,51.81099999998696
312467.5317,3.974502267712483,10.33567902017051,16.286540230159098,7.513162123757712,51.81199999997625
312467.5327,6.196965518459162,11.139765796990421,16.03511747510287,8.216522044877628,51.81299999996554
312467.5337,8.11875688215472,11.601753116976711,15.212018120657213,8.611185899969923,51.81400000001304
312467.5347,9.638463178461908,11.656928706494625,13.778479047880639,8.643968822691049,51.81500000000233
312467.5357,10.670418022507949,11.254325846018125,11.718211812526448,8.275772124259676,51.81599999999162
312467.5367,11.15245813945424,10.36323900702739,9.04326163100925,7.487311176205378,51.81699999998091
312467.5377,11.052276439013362,8.978506217674244,5.798298668344401,6.283619375088309,51.8179999999702
312467.5387,10.371738097172141,7.1239869538187435,2.0627713524258597,4.696811482430976,51.81899999995949
312467.5397,9.148694758995513,4.8538208478123535,-2.0494775287806317,2.786737890874182,51.820000000006985
312467.5407,7.4560470479538505,2.2512508383270653,-6.393315785462191,0.6393481036783388,51.820999999996275
312467.5417,5.398046928100928,-0.5749842514686889,-10.798091656435618,-1.6372105785781774,51.821999999985565
312467.5427,3.1040766035222047,-3.496459378304325,-15.075770034859849,-3.9185241165198366,51.822999999974854
312467.5437,0.720366604003115,-6.372642806900176,-19.030914843754882,-6.0714469370277895,51.823999999964144
312467.5447,-1.5996986899610035,-9.059647791876973,-22.4718171428625,-7.9626618006006,51.82500000001164
312467.5457,-3.7059119767589257,-11.41944780071101,-25.221947294684522,-9.467582354366645,51.82600000000093
312467.5467,-5.461376142419956,-13.328800673839192,-27.13085910070648,-10.478875172408337,51.82699999999022
312467.5477,-6.751622129294218,-14.68715030087353,-28.0836996057425,-10.913902218089008,51.82799999997951
312467.5487,-7.491984287054159,-15.422864401581993,-28.008578555153633,-10.720472058105848,51.8289999999688
312467.5497,-7.632660726199432,-15.497315135200775,-26.881217653294076,-9.88043075815335,51.82999999995809
312467.5507,-7.161090985512223,-14.906501334987523,-24.726517075941207,-8.410807959125258,51.83100000000559
312467.5517,-6.101518844768233,-13.680128900170965,-21.616925668243297,-6.362443033441103,51.83199999999488
312467.5527,-4.511852359048306,-11.878288690262561,-17.66775954198267,-3.816231060920334,51.83299999998417
312467.5537,-2.478163531647641,-9.586078257173394,-13.029858192276864,-0.8773288476017481,51.83399999997346
312467.5547,-0.10736537796641782,-6.90668571043818,-7.880175964010913,2.3321709789503022,51.83499999996275
312467.5557,2.48125311994639,-3.953575250631064,-2.411061286444073,5.6814697428185665,51.836000000010245
312467.5567,5.164875939635722,-0.8424737272622864,3.180936760270222,9.039506576939377,51.836999999999534
312467.5577,7.825628036941715,2.3161487488749524,8.70588227160577,12.282928076205383,51.837999999988824
312467.5587,10.357961631439451,5.4234819458876204,13.990096224705068,15.302959123085806,51.838999999978114
312467.5597,12.674387107108975,8.397167772918243,18.883968910099586,18.01066919890445,51.839999999967404
312467.5607,14.709152052508086,11.174158192264628,23.26746380131659,20.340290670815623,51.84099999995669
312467.5617,16.41968134997759,13.711512898856993,27.05305592501398,22.25043498257775,51.84200000000419
312467.5627,17.78581218446585,15.985215386531939,30.186083429800394,23.72325100283849,51.84299999999348
312467.5637,18.80706890113185,17.98727746181254,32.64271964470501,24.761758001314373,51.84399999998277
312467.5647,19.49840353876683,19.721562147685454,34.4259731582252,25.385746033292268,51.84499999997206
312467.5657,19.884961503669484,21.1988679996909,35.56027707946315,25.626754017530512,51.84599999996135
312467.5667,19.996505915400338,22.431873612465427,36.08532219080497,25.52269990988692,51.84700000000885
312467.5677,19.86214229866506,23.430534732630253,36.04981473443462,25.11274284007121,51.84799999999814
312467.5687,19.505927712140014,24.198459300293756,35.50579736600604,24.432904430007817,51.84899999998743
312467.5697,18.943831802364393,24.730665334738223,34.50406734559654,23.51287201163505,51.84999999997672
312467.5707,18.182354187509645,25.01296556840275,33.09107137135205,22.374261455649638,51.85099999996601
312467.5717,17.218910128839664,25.023037848664604,31.30746846851504,21.03044709770025,51.8519999999553
312467.5727,16.043894621832532,24.733050652925446,29.188351001940188,19.487888496552156,51.853000000002794
312467.5737,14.644144686022148,24.113538123107897,26.764920240413524,17.74871679824596,51.853999999992084
312467.5747,13.00736037839316,23.138076822871806,24.06724697904542,15.8142044145109,51.85499999998137
312467.5757,11.126933324503314,21.78822161997454,21.12762647810583,13.688644720780443,51.85599999997066
312467.5767,9.006578921188567,20.058120542494773,17.98397260428071,11.383123348345022,51.85699999995995
312467.5777,6.6641803519115905,17.958252175232893,14.682694797002966,8.918673853523298,51.85800000000745
312467.5787,4.1343281117083865,15.517811937743748,11.280562988914145,6.328376775549517,51.85899999999674
312467.5797,1.4691703054801408,12.785407177445721,7.845183036368057,3.658075380615349,51.85999999998603
312467.5807,-1.2626367434710428,9.827891971071763,4.453865927469218,0.9655318348691104,51.86099999997532
312467.5817,-3.978888776491594,6.727363543481093,1.1908609189138801,-1.6819814671798685,51.86199999996461
312467.5827,-6.588512077528663,3.5765338480202855,-1.8568840183584223,-4.2114869292121995,51.86300000001211
312467.5837,-8.997579846151249,0.472862503601139,-4.6050919977154114,-6.549176194407968,51.8640000000014
312467.5847,-11.11613425722359,-2.48802683963498,-6.978168992219932,-8.625900509516576,51.86499999999069
312467.5857,-12.865181684031823,-5.219039703776828,-8.915272454526681,-10.382742257300771,51.86599999997998
312467.5867,-14.183190620235033,-7.6477816769098235,-10.37581446350421,-11.776105756784231,51.866999999969266
312467.5877,-15.031450818890082,-9.721613397570495,-11.343804212751127,-12.781795754978734,51.867999999958556
312467.5887,-15.397745910927823,-11.411094220993487,-11.830524179614526,-13.397637353393582,51.869000000006054
312467.5897,-15.29794158181992,-12.711467966899844,-11.875177917104102,-13.644323354894205,51.86999999999534
312467.5907,-14.775282902513823,-13.642029137337822,-11.543331233308148,-13.564341307586878,51.87099999998463
312467.5917,-13.897408991281944,-14.243411004273618,-10.92317454057945,-13.21901646896651,51.87199999997392
312467.5927,-12.751309769604518,-14.573037924498303,-10.119841995276442,-12.683890239982327,51.87299999996321
312467.5937,-11.436646784860441,-14.69916315016779,-9.248212027266646,-12.042817996306175,51.87400000001071
312467.5947,-10.058018330123556,-14.694052353836371,-8.424765064722688,-11.381299129060585,51.875
312467.5957,-8.716852587512049,-14.626958042852687,-7.759172448235502,-10.779632403384644,51.87599999998929
312467.5967,-7.503650801748795,-14.55755226133497,-7.34632564919268,-10.306513123901329,51.87699999997858
312467.5977,-6.4912715139043495,-14.530441921123362,-7.259483116698435,-10.01365235327311,51.87799999996787
312467.5987,-5.729849446336693,-14.571286689809293,-7.545116126400971,-9.931905764405379,51.87899999995716
312467.5997,-5.243788099799725,-14.684883625736273,-8.219883971833504,-10.069259430309348,51.88000000000466
312467.6007,-5.031068534332782,-14.855390852943305,-9.2699772311511,-10.410845532953251,51.880999999993946
312467.6017,-5.064897366301275,-15.048653325900453,-10.652854156734572,-10.920969587177431,51.881999999983236
312467.6027,-5.297496209345335,-15.216387746848147,-12.30118012627812,-11.546941051706442,51.882999999972526
312467.6037,-5.665634244056963,-15.301801318905332,-14.128584327391543,-12.224329744039624,51.883999999961816
312467.6047,-6.097344940113629,-15.246078324277242,-16.03669024685303,-12.883137931425557,51.88500000000931
312467.6057,-6.519162837228366,-14.995083512807359,-17.92277212350217,-13.454295354355642,51.8859999999986
312467.6067,-6.863176862935194,-14.50561049969104,-19.68734804452075,-13.875859845545998,51.88699999998789
312467.6077,-7.073226545270731,-13.750548992896926,-21.2410453305501,-14.098341991769814,51.88799999997718
312467.6087,-7.109663400839574,-12.72245231914585,-22.510162211388373,-14.088664822019762,51.88899999996647
312467.6097,-6.952251918967218,-11.435145855105816,-23.440492237405895,-13.832409536718963,51.88999999995576
312467.6107,-6.600977518145145,-9.92321193309406,-23.99915978690837,-13.334171844350593,51.89100000000326
312467.6117,-6.074743178446533,-8.239398324338572,-24.17441795382951,-12.616043234855487,51.89199999999255
312467.6127,-5.4081506093972855,-6.4502045630537745,-23.973563570970633,-11.71441856821961,51.89299999998184
312467.6137,-4.646754303589193,-4.6300825958923815,-23.41930772699047,-10.675497032846149,51.89399999997113
312467.6147,-3.8413283558333946,-2.8548273759930516,-22.545085548413205,-9.549971298516546,51.89499999996042
312467.6157,-3.041781325944796,-1.1948151431813,-21.389881849530834,-8.387476797963789,51.896000000007916
312467.6167,-2.29138416666172,0.29123606985680706,-19.993180489607397,-7.231391822199113,51.896999999997206
312467.6177,-1.6219374083087932,1.5613595488137828,-18.390612192755654,-6.114537647994817,51.897999999986496
312467.6187,-1.0504003770853574,2.593775233202108,-16.610782022990797,-5.056230408817087,51.898999999975786
312467.6197,-0.5773477324774283,3.3883200207195694,-14.673613690752278,-4.060992686033363,51.899999999965075
312467.6207,-0.18742302938467495,3.9657251580194317,-12.59036859584013,-3.119057318116707,51.90100000001257
312467.6217,0.14825478074535348,4.364807752232994,-10.36530181671988,-2.208606418220556,51.90200000000186
312467.6227,0.4679862176067424,4.637852597735254,-7.99872568823962,-1.2995042399926937,51.90299999999115
312467.6237,0.8141269683595675,4.844643112721055,-5.491084344002415,-0.35812207307478,51.90399999998044
312467.6247,1.2270448951042598,5.045737979549423,-2.8475173730459953,0.6472668114021776,51.90499999996973
312467.6257,1.7390610358727394,5.2956692202795805,-0.08232103413044606,1.741111586083001,51.90599999995902
312467.6267,2.369051820875873,5.636749818101435,2.7772908776401994,2.9358246220308484,51.90700000000652
312467.6277,3.118334528549456,6.094123099873885,5.688666028729268,4.228181956821839,51.90799999999581
312467.6287,3.9683379864739665,6.672567149310442,8.592854040464745,5.5973170748493,51.9089999999851
312467.6297,4.880387114877067,7.355396982582431,11.415664074799352,7.004586141176445,51.90999999997439
312467.6307,5.797719949352163,8.105601655217702,14.070697267003718,8.395396841349454,51.91099999996368
312467.6317,6.6496298436174355,8.869132929942474,16.464201818617678,9.702894711325902,51.912000000011176
312467.6327,7.357405944453826,9.580048184779137,18.50139765691523,10.853209863322272,51.913000000000466
312467.6337,7.841553587372792,10.167023853146693,20.093746163466683,11.77180229171364,51.913999999989755
312467.6347,8.029632220170898,10.560615202007547,21.166516361811684,12.390321986277431,51.914999999979045
312467.6357,7.863966577110267,10.700557592685202,21.66593548097113,12.65333332352194,51.915999999968335
312467.6367,7.308475923740226,10.542391686358483,21.56521655399934,12.524248794189129,51.916999999957625
312467.6377,6.353928287341396,10.062751945081663,20.868829691456902,11.989876197800323,51.91800000000512
312467.6387,5.021056660165865,9.262779107337284,19.61452119801597,11.063100997641147,51.91899999999441
312467.6397,3.361160599964361,8.169291710418971,17.872773854234413,9.783390901876146,51.9199999999837
312467.6407,1.454042327720709,6.833562656996918,15.743625391491532,8.215007553571748,51.92099999997299
312467.6417,-0.5966296970945459,5.3277741679882284,13.350999803948119,6.443021876998487,51.92199999996228
312467.6427,-2.6701976071147504,3.7394464656306776,10.834935395216894,4.5674350795914185,51.92300000000978
312467.6437,-4.637587535528843,2.164330867542468,8.342292562558363,2.6958869441960625,51.92399999999907
312467.6447,-6.370871730655755,0.6984078176697942,6.016674067321346,0.9355696011495255,51.92499999998836
312467.6457,-7.753010984517014,-0.5702797795864356,3.9883761583139283,-0.6149548093327968,51.92599999997765
312467.6467,-8.686941916578615,-1.569206512001343,2.3652015362758623,-1.873318239129008,51.92699999996694
312467.6477,-9.103223067386258,-2.247656254482689,1.2249027096075507,-2.7796284676940672,51.92799999995623
312467.6487,-8.96557545330189,-2.5811407466440377,0.6098917947148715,-3.3009162753177996,51.929000000003725
312467.6497,-8.273836164625452,-2.5735317373676008,0.5246619020431026,-3.433359197130852,51.929999999993015
312467.6507,-7.064070889573722,-2.2567045059819897,0.9361331406276868,-3.20209251266606,51.930999999982305
312467.6517,-5.405841831158361,-1.6877207465901167,1.7768841529077353,-2.658635120357845,51.931999999971595
312467.6527,-3.3968780576389466,-0.9438062807762857,2.9509811001606296,-1.876172065189502,51.932999999960884
312467.6537,-1.1556226084015278,-0.11558228008849719,4.341893059152442,-0.9431266591553562,51.93400000000838
312467.6547,1.1876863792782772,0.7008315710037761,5.82180634447086,0.0443945004789495,51.93499999999767
312467.6557,3.500621456582049,1.4121222630156924,7.2615364562843245,0.9906046892514866,51.93599999998696
312467.6567,5.658029816356964,1.9357438628631825,8.540195403331731,1.807777282854831,51.93699999997625
312467.6577,7.550553234384611,2.2068172860242736,9.55380746331772,2.4230458467338947,51.93799999996554
312467.6587,9.091501552915169,2.183357737366797,10.222174282723996,2.783683225709929,51.93900000001304
312467.6597,10.221540199112827,1.8493788784004763,10.493460098221687,2.860428025045974,51.94000000000233
312467.6607,10.910862522112387,1.2156245877531386,10.346183557395966,2.6486145409651805,51.94099999999162
312467.6617,11.158755170831977,0.31790263917367256,9.78854371329293,2.1670702292223485,51.94199999998091
312467.6627,10.990706708355058,-0.7867816328602106,8.855251597974997,1.4549533305742215,51.9429999999702
312467.6637,10.453433312370034,-2.025890844082357,7.602262565481693,0.5668925247927546,51.94399999995949
312467.6647,9.608379822475278,-3.318256767117309,6.099987590140315,-0.43305734295609494,51.945000000006985
312467.6657,8.524382555410417,-4.5815464169271065,4.425687154855098,-1.478028465609944,51.945999999996275
312467.6667,7.270240720760096,-5.739579965580356,2.6558080682255154,-2.5048666105987616,51.946999999985565
312467.6677,5.90793100809539,-6.728813792774889,0.8590069147474078,-3.4599384307081595,51.947999999974854
312467.6687,4.487117058398965,-7.503393791098262,-0.909483708181144,-4.303670809541282,51.948999999964144
312467.6697,3.041460909055965,-8.038331899704044,-2.611639295911192,-5.013409405707042,51.95000000001164
312467.6707,1.5870518047236246,-8.330547978941796,-4.228266991038029,-5.584357884019167,51.95100000000093
312467.6717,0.12304809676658479,-8.3977309128022,-5.758380934625023,-6.028554773211563,51.95199999999022
312467.6727,-1.3655980473772793,-8.27518651987408,-7.2164703379372765,-6.37204223642536,51.95299999997951
312467.6737,-2.9036736581215785,-8.011034699641955,-8.628012801185541,-6.650560984277996,51.9539999999688
312467.6747,-4.520010359297882,-7.660275433020857,-10.023759509049874,-6.904250606107064,51.95499999995809
312467.6757,-6.241198070281016,-7.278347761649018,-11.433438771505397,-7.171930742492005,51.95600000000559
312467.6767,-8.085399867025727,-6.91484787059295,-12.879578559137729,-7.485576610209362,51.95699999999488
312467.6777,-10.056948291013091,-6.608048216127416,-14.372132267412569,-7.865578968856451,51.95799999998417
312467.6787,-12.142322982820591,-6.3807720674947195,-15.904506908622135,-8.317296261500006,51.95899999997346
312467.6797,-14.307969498551733,-6.238035835501075,-17.451447943414696,-8.829273700447713,51.95999999996275
312467.6807,-16.50023355803716,-6.166689387185198,-18.969044527167735,-9.373333763184805,51.961000000010245
312467.6817,-18.64747217980654,-6.137080317991009,-20.396901966069457,-9.906551799763747,51.961999999999534
312467.6827,-20.664184175907454,-6.106562099123779,-21.662306115732065,-10.37493809647444,51.962999999988824
312467.6837,-22.45679885104643,-6.024478498242445,-22.685999238311503,-10.71847279617079,51.963999999978114
312467.6847,-23.93059346753112,-5.838106195385486,-23.389018722575514,-10.876999837977126,51.964999999967404
312467.6857,-24.99709360236272,-5.498938938343338,-23.69993569229206,-10.796394449802168,51.96599999995669
312467.6867,-25.581257346248563,-4.968659655536872,-23.561781263567777,-10.434384859383549,51.96700000000419
312467.6877,-25.627759587828447,-4.224175366065365,-22.937969093966828,-9.765436292261796,51.96799999999348
312467.6887,-25.105774896778573,-3.261180768663162,-21.816612088630034,-8.784191512566379,51.96899999998277
312467.6897,-24.011798715332468,-2.095861161330141,-20.212780215583248,-7.507098886380303,51.96999999997206
312467.6907,-22.370232866514645,-0.7645296442549122,-18.168441004374202,-5.972032988943072,51.97099999996135
312467.6917,-20.23167454723613,0.6788007297425228,-15.7500456568871,-4.235907225406454,51.97200000000885
312467.6927,-17.669067121194004,2.1667023438196393,-13.043950327453182,-2.3704738298571892,51.97299999999814
312467.6937,-14.772074700920431,3.6240808845323196,-10.150071990749183,-0.45668478559867715,51.97399999998743
312467.6947,-11.640210772576326,4.974840981815689,-7.17435092480896,1.4218698228565956,51.97499999997672
312467.6957,-8.375367513739404,6.1488280938376505,-4.2207102521941,3.1858358699202474,51.97599999996601
312467.6967,-5.074445623850323,7.088370884660372,-1.383255461393553,4.766636521193244,51.9769999999553
312467.6977,-1.822769283937026,7.753780362514439,1.260562020330209,6.112063020733527,51.978000000002794
312467.6987,1.3111111381550347,8.127257458140724,3.6551818122191655,7.190384325280729,51.978999999992084
312467.6997,4.278766677378616,8.214810437192341,5.770086972171113,7.9925838086886785,51.97999999998137
312467.7007,7.053111100800598,8.045973108953316,7.600584174699311,8.532508398518171,51.98099999997066
312467.7017,9.627431263676026,7.671325810528057,9.166149969273542,8.844913874528585,51.98199999995995
312467.7027,12.012379144966404,7.158033046145601,10.5065139826686,8.981590471047067,51.98300000000745
312467.7037,14.231279641060336,6.583803732985622,11.675866686919395,9.00593595742339,51.98399999999674
312467.7047,16.314273783776315,6.02983342124641,12.735759280981043,8.986491253231165,51.98499999998603
312467.7057,18.291930425287845,5.573387529992058,13.747388802468112,8.990051990733752,51.98599999997532
312467.7067,20.18900937536905,5.280720717249178,14.764020485749068,9.075008694659392,51.98699999996461
312467.7077,22.019040531085107,5.200996345054512,15.824285746602563,9.285544588866301,51.98800000001211
312467.7087,23.780298525672404,5.361774562069831,16.94700918120076,9.647235780496155,51.9890000000014
312467.7097,25.4536092733772,5.76648708146087,18.128069763201836,10.164461959261471,51.98999999999069
312467.7107,27.00223772480829,6.394125973652649,19.33960435002825,10.81986015421018,51.99099999997998
312467.7117,28.373893792184486,7.201161396692315,20.531634825547986,11.575856704306874,51.991999999969266
312467.7127,29.504676928571538,8.125489966502503,21.635965816212686,12.378112744563705,51.992999999958556
312467.7137,30.324580873426694,9.092022323290866,22.571980803767108,13.160535733131345,51.994000000006054
312467.7147,30.76401852863061,10.019364288947346,23.253782022965755,13.851361686537357,51.99499999999534
312467.7157,30.760719031947826,10.826945880626775,23.597991581424143,14.379714218548457,51.99599999998463
312467.7167,30.266305758495534,11.441916041020976,23.531470207183496,14.682006670313184,51.99699999997392
312467.7177,29.251889701483186,11.805151647061216,22.99822174687276,14.707576228997407,51.99799999996321
312467.7187,27.71210508434617,11.875823904495952,21.964834640861863,14.42302143504801,51.99900000001071
312467.7197,25.667164111027482,11.634114050844328,20.42395766816796,13.814848432662577,52.0
312467.7207,23.162700677523816,11.081858438458593,18.395501634215517,12.890203210004307,52.00099999998929
312467.7217,20.26738954536909,10.241111740280145,15.925481951580922,11.675659665656944,52.00199999997858
312467.7227,17.068546394498185,9.150825387979605,13.082646986217345,10.214227374184347,52.00299999996787
312467.7237,13.66611351696266,7.862025639802258,9.953250742363798,8.560919053355562,52.00399999995716
312467.7247,10.165595748358973,6.432023214829098,6.634504736458523,6.777358422933482,52.00500000000466
312467.7257,6.670615487451144,4.91827950968219,3.2273653417824617,4.926000409701571,52.005999999993946
312467.7267,3.275793726453559,3.3725837388419104,-0.17063243359870217,3.0645684570217946,52.006999999983236
312467.7277,0.06063185192721061,1.8361579621286492,-3.4718010435051467,1.2412848404853556,52.007999999972526
312467.7287,-2.9150304976687997,0.3362065826484061,-6.603379883157386,-0.5086176645125913,52.008999999961816
312467.7297,-5.613563378699343,-1.115726487796733,-9.51080974809185,-2.1647518376314165,52.01000000000931
312467.7307,-8.019881548029064,-2.5234208723733054,-12.158937685013882,-3.7216223103027284,52.0109999999986
312467.7317,-10.139569713590038,-3.9037004803814908,-14.531107424342546,-5.186876613496067,52.01199999998789
312467.7327,-11.995023628442683,-5.282456559394466,-16.626313923632683,-6.577966626833068,52.01299999997718
312467.7337,-13.620033295762672,-6.689401280075943,-18.454804660276224,-7.917596986654377,52.01399999996647
312467.7347,-15.053393287597657,-8.15212155706002,-20.032674288344555,-9.228470233810727,52.01499999995576
312467.7357,-16.332225842183078,-9.690087489391528,-21.376106206450043,-10.527920247780006,52.01600000000326
312467.7367,-17.485734525720826,-11.309288622001137,-22.495953260079112,-11.823047112063371,52.01699999999255
312467.7377,-18.53006610062856,-12.998121598509877,-23.393315860729132,-13.106925231670408,52.01799999998184
312467.7387,-19.46484926244206,-14.725038887114883,-24.056672202600303,-14.35635578575482,52.01899999997113
312467.7397,-20.27181138062358,-16.438300715995634,-24.46095201666865,-15.531483912735169,52.01999999996042
312467.7407,-20.91566448163929,-18.0679671601803,-24.568738547140196,-16.57741491808505,52.021000000007916
312467.7417,-21.34721995394588,-19.530044354188096,-24.333553824472677,-17.427760454092695,52.021999999997206
312467.7427,-21.50846067939447,-20.732479881057138,-23.70495300069291,-18.00984512537239,52.022999999986496
312467.7437,-21.339092449640003,-21.582509136431757,-22.634947871215232,-18.2511263255357,52.023999999975786
312467.7447,-20.78393439281395,-21.9947061993919,-21.085118972300634,-18.086243257649386,52.024999999965075
312467.7457,-19.800407270748327,-21.899004545918096,-19.033676791326407,-17.46402914019456,52.02600000001257
312467.7467,-18.365349575519765,-21.247934166271566,-16.48170664134566,-16.35380239187172,52.02700000000186
312467.7477,-16.48043803722746,-20.0223749530407,-13.457882474233354,-14.750300784114561,52.02799999999115
312467.7487,-14.175607739425525,-18.235247277992702,-10.021058594583822,-12.676733322770636,52.02899999998044
312467.7497,-11.510046734106416,-15.932738530549054,-6.260333868762108,-10.185587986670598,52.02999999996973
312467.7507,-8.570564005339337,-13.192882534137677,-2.29241333843173,-7.357034213785168,52.03099999995902
312467.7517,-5.467376562510908,-10.121546690383797,1.7436546931550203,-4.294978238212616,52.03200000000652
312467.7527,-2.327607690018195,-6.846116925697045,5.6940363194882595,-1.1210461851227012,52.03299999999581
312467.7537,0.7129897905740975,-3.507380711780269,9.399408743435245,2.0330365115243945,52.0339999999851
312467.7547,3.5193954649831567,-0.2502736277292572,12.7052623002398,5.034048887112645,52.03499999997439
312467.7557,5.966965825302203,2.7857405677234213,15.472361420181839,7.756145404866603,52.03599999996368
312467.7567,7.950519997163502,5.475852482371254,17.586482339963826,10.089248193440586,52.037000000011176
312467.7577,9.392064944509139,7.717888243765648,18.96659043551809,11.946253421252623,52.038000000000466
312467.7587,10.246472804800032,9.438435008879182,19.57074237606945,13.268448513621141,52.038999999989755
312467.7597,10.50460167290151,10.59662574183402,19.399186923876744,14.028696103639696,52.039999999979045
312467.7607,10.19357739843254,11.185310628969027,18.494375873562745,14.23214012939509,52.040999999968335
312467.7617,9.374206603642492,11.229578104937147,16.93786145905125,13.91441055514171,52.041999999957625
312467.7627,8.135746515288325,10.782824970240586,14.84432414106396,13.137525026970339,52.04300000000512
312467.7637,6.588491482873451,9.920790288326321,12.35322040222361,11.983887611650596,52.04399999999441
312467.7647,4.854827449998679,8.73414162614814,9.61874152360638,10.548947845762134,52.0449999999837
312467.7657,3.059536517988252,7.320318788456898,6.798913042530505,8.933192658568693,52.04599999997299
312467.7667,1.3201922514320772,5.775389117256264,4.044728387516584,7.2341895400767715,52.04699999996228
312467.7677,-0.26153242399024185,4.1866458518625524,1.4901938144911995,5.539377923180323,52.04800000000978
312467.7687,-1.606916615980131,2.6265900107481093,-0.7559324922255581,3.92021987469827,52.04899999999907
312467.7697,-2.6650332835444552,1.1487863371571712,-2.6160869133888647,2.4281797031453416,52.04999999998836
312467.7707,-3.4150218368022416,-0.21410981046220529,-4.047127410557673,1.0928190819408317,52.05099999997765
312467.7717,-3.8656709666957423,-1.4500759284798457,-5.040683147224205,-0.07791230733219894,52.05199999996694
312467.7727,-4.052437346219659,-2.5653388080215684,-5.620724625652223,-1.0953207502369153,52.05299999995623
312467.7737,-4.0322559315011475,-3.580229462602283,-5.8386929117142845,-1.9858707311629364,52.054000000003725
312467.7747,-3.876690125401139,-4.52378703982612,-5.766729924949146,-2.7858275115844258,52.054999999993015
312467.7757,-3.664107405104013,-5.427733595013612,-5.489699656840629,-3.535230706018318,52.055999999982305
312467.7767,-3.4716359799511047,-6.32048909336477,-5.096769818911426,-4.271838307078442,52.056999999971595
312467.7777,-3.3676550525522955,-7.221875658361425,-4.673328782609803,-5.0256656882572575,52.057999999960884
312467.7787,-3.4054968052953525,-8.139074661388968,-4.2939449335516695,-5.814667766425637,52.05900000000838
312467.7797,-3.618900713782883,-9.064258925676649,-4.016942925969767,-6.641983039907613,52.05999999999767
312467.7807,-4.019574610009587,-9.97413975638392,-3.8809881519819163,-7.494989098729577,52.06099999998696
312467.7817,-4.597001067776141,-10.831463388514305,-3.903856099315166,-8.346227710904653,52.06199999997625
312467.7827,-5.320403829880386,-11.588284605791378,-4.083339016178465,-9.156063092604883,52.06299999996554
312467.7837,-6.142579340863189,-12.190657652075775,-4.400030902249521,-9.876759004186079,52.06400000001304
312467.7847,-7.005123522854415,-12.5842350581851,-4.821554152585916,-10.457516633577333,52.06500000000233
312467.7857,-7.844460573633827,-12.720168680826612,-5.307664369992514,-10.849920048972143,52.06599999999162
312467.7867,-8.59802026755776,-12.56067375053536,-5.815605736784457,-11.013198593383462,52.06699999998091
312467.7877,-9.20991803590613,-12.083649357691039,-6.305093192223007,-10.918739367660141,52.0679999999702
312467.7887,-9.635566110302836,-11.285844200299742,-6.7423677918361244,-10.55336514020277,52.06899999995949
312467.7897,-9.844775667831179,-10.184204870945418,-7.102899547711384,-9.9210249819649,52.070000000006985
312467.7907,-9.823084884967782,-8.815230412311358,-7.372483414454721,-9.042713006623629,52.070999999996275
312467.7917,-9.571247471223542,-7.23236241585615,-7.546670175631553,-7.954617534457015,52.071999999985565
312467.7927,-9.10301962288351,-5.501643725542373,-7.628673654000044,-6.704689657422228,52.072999999974854
312467.7937,-8.44156919488006,-3.6960601336199503,-7.626077523153294,-5.347987478223234,52.073999999964144
312467.7947,-7.614979944975518,-1.8891198378549794,-7.546809599880688,-3.9412831143995883,52.07500000001164
312467.7957,-6.6514205485629745,-0.1483104662016911,-7.394943356970656,-2.5375004735746263,52.07600000000093
312467.7967,-5.574582733920656,1.4709057146535491,-7.166915564654604,-1.1805744243315326,52.07699999999022
312467.7977,-4.399961792678752,2.929943670310261,-6.848712053198465,0.09871621187903185,52.07799999997951
312467.7987,-3.132459096845473,4.210288176413602,-6.414474105511699,1.2854848325600918,52.0789999999688
312467.7997,-1.765639755914584,5.314681110088835,-5.826826006901043,2.3817286189915614,52.07999999995809
312467.8007,-0.282794282702987,6.26615415925144,-5.039035399524809,3.405438585210305,52.08100000000559
312467.8017,1.3402498621146968,7.104971289703709,-3.9989118549565514,4.38788403548127,52.08199999999488
312467.8027,3.1308216695082876,7.88375474019802,-2.654146985242314,5.369316836062598,52.08299999998417
312467.8037,5.114037208183774,8.661252723880171,-0.9586227179355628,6.3935079567007005,52.08399999997346
312467.8047,7.306935281381915,9.495347972937079,1.1209180863930581,7.501656415405729,52.08499999996275
312467.8057,9.712764906454172,10.43598955981294,3.5985181771607415,8.726285954862343,52.086000000010245
312467.8067,12.3160848595406,11.518747478267496,6.463655337059727,10.085759516721415,52.086999999999534
312467.8077,15.079280955145302,12.759638170180963,9.67751717506835,11.579993829250665,52.087999999988824
312467.8087,17.940988452082284,14.151754140952303,13.171396059174006,13.187850312617035,52.088999999978114
312467.8097,20.816735723244147,15.664062880437063,16.84751818005349,14.866523934404457,52.089999999967404
312467.8107,23.60191721768859,17.242535566326488,20.58240369283068,16.55306333208797,52.09099999995669
312467.8117,26.176978735349454,18.81354418220244,24.232622100524697,18.167951563354944,52.09200000000419
312467.8127,28.414477980659996,20.28924816304016,27.642580785678827,19.620476980820527,52.09299999999348
312467.8137,30.187489882351002,21.574499548978302,30.653786713875064,20.815447392040223,52.09399999998277
312467.8147,31.378678534819713,22.574647527244696,33.1148711391707,21.660665107003982,52.09499999997206
312467.8157,31.889270859371692,23.203533582020604,34.89157954628995,22.074499068840147,52.09599999996135
312467.8167,31.647150493620096,23.390946026608255,35.87591311915163,21.992871202194642,52.09700000000885
312467.8177,30.613346611580504,23.088849745658933,35.993666028143174,21.37501960010296,52.09799999999814
312467.8187,28.78631700130844,22.27581909850639,35.20973007098378,20.207507187702344,52.09899999998743
312467.8197,26.20360683314174,20.959268413830607,33.53072338361701,18.506101188233803,52.09999999997672
312467.8207,22.940687614147837,19.17527937886609,31.004726211719294,16.31534130673104,52.10099999996601
312467.8217,19.107024299330007,16.986048228316598,27.718153287901565,13.705824783992316,52.1019999999553
312467.8227,14.839659808099478,14.475196505550972,23.790036384384035,10.769444369837476,52.103000000002794
312467.8237,10.29482275970336,11.741386118271405,19.36420946661596,7.613001027219966,52.103999999992084
312467.8247,5.638235829113132,8.890833592130575,14.600062254680637,4.350759121735731,52.10499999998137
312467.8257,1.0349126691057908,6.029415147968592,9.662639883714144,1.0966041076904496,52.10599999997066
312467.8267,-3.360729475103757,3.2550843842980126,4.712906546823034,-2.0435074111571336,52.10699999995995
312467.8277,-7.413650091619162,0.6512852943314642,-0.10104387457726961,-4.978150585062677,52.10800000000745
312467.8287,-11.015174483582872,-1.7180608383229448,-4.651153365636859,-7.635530247866518,52.10899999999674
312467.8297,-14.087675753033857,-3.8115750483557456,-8.83443160162172,-9.966664659269975,52.10999999998603
312467.8307,-16.586647263650132,-5.611225166092276,-12.575555423895315,-11.946432064657545,52.11099999997532
312467.8317,-18.500101412456004,-7.120911113050657,-15.82697249875524,-13.572462686878763,52.11199999996461
312467.8327,-19.84547106173783,-8.363042845633649,-18.566681930369317,-14.862063829536375,52.11300000001211
312467.8337,-20.664410109502914,-9.373515867878421,-20.794079181401713,-15.847550462293404,52.1140000000014
312467.8347,-21.016068820536,-10.19564073797478,-22.524425038045226,-16.570500181677158,52.11499999999069
312467.8357,-20.969541160728728,-10.873678235751838,-23.78261221054404,-17.07554576959816,52.11599999997998
312467.8367,-20.596234567007585,-11.44666172253013,-24.596947957220767,-17.40435181200032,52.116999999969266
312467.8377,-19.962893101460114,-11.943150039216714,-24.993643154110373,-17.5903910924101,52.117999999958556
312467.8387,-19.12591558830588,-12.377452083708661,-24.992600974080787,-17.65504511208307,52.119000000006054
312467.8397,-18.127460669752008,-12.747708315142976,-24.604942081202537,-17.6054104163458,52.11999999999534
312467.8407,-16.993636080725995,-13.03602046007579,-23.832504074813833,-17.434012745796267,52.12099999998463
312467.8417,-15.73484943377936,-13.210607992957437,-22.669331113789042,-17.12043230246009,52.12199999997392
312467.8427,-14.348174349530135,-13.229759709771411,-21.104947675330216,-16.634645380676734,52.12299999996321
312467.8437,-12.821380956814059,-13.047161832622132,-19.129010668156816,-15.941709906024101,52.12400000001071
312467.8447,-11.138113713066046,-12.618039181941043,-16.736776779745412,-15.007282657852459,52.125
312467.8457,-9.283588293364996,-11.905457495630143,-13.93472289897947,-13.80336796111003,52.12599999998929
312467.8467,-7.25013357902179,-10.886111863384498,-10.745626825899096,-12.31367014413522,52.12699999997858
312467.8477,-5.041928621091125,-9.554970951022858,-7.212456585079574,-10.537957832509491,52.12799999996787
