TimeStamp,ECR,FCR,ECU,FCU,time_index
312416.7197,17.478950777879923,18.475932554279723,13.524386647804045,18.67515066797451,1.0
312416.7207,18.920283409896378,18.547354326007095,13.421176065800438,18.21023450636991,1.0009999999892898
312416.7217,19.795498524329606,18.103706098894712,12.909285139413091,17.231529326804658,1.0019999999785796
312416.7227,20.15386905209191,17.210175672597586,12.058022882205634,15.819432309998179,1.0029999999678694
312416.7237,20.06843557270185,15.951036506487394,10.953577574832494,14.07321479001108,1.0039999999571592
312416.7247,19.62845096419779,14.422132935388579,9.691587956637866,12.103176502136654,1.0050000000046566
312416.7257,18.931045639349072,12.722839270751281,8.369227920945688,10.022281006760847,1.0059999999939464
312416.7267,18.072878093840302,10.948231079176361,7.077524196723569,7.938005733844921,1.0069999999832362
312416.7277,17.142511392226236,9.182168977951065,5.8945908712172566,5.945104303976055,1.007999999972526
312416.7287,16.21416344947432,7.491891522166625,4.880364816438654,4.1198786723232415,1.0089999999618158
312416.7297,15.343327343771126,5.924554834796853,4.073272210528539,2.516404357505133,1.0100000000093132
312416.7307,14.564562761405199,4.505958442460821,3.4890636301470366,1.1649588092535421,1.010999999998603
312416.7317,13.891540385695189,3.241478891520583,3.121842531309466,0.07268969843020573,1.0119999999878928
312416.7327,13.319199085633866,2.1190164572192987,2.9471000497337885,-0.7736527843189657,1.0129999999771826
312416.7337,12.827672664240339,1.1135666307328436,2.9263784534208166,-1.403287251400212,1.0139999999664724
312416.7347,12.387478179671795,0.19287572733439315,3.0130345918360644,-1.8557962186704087,1.0149999999557622
312416.7357,11.965347026213134,-0.6764566024770474,3.158477662852461,-2.1749642126946562,1.0160000000032596
312416.7367,11.530033224472986,-1.523097012754599,3.318221568481187,-2.402714778059033,1.0169999999925494
312416.7377,11.057454523334423,-2.365953866134767,3.4571238602416425,-2.5737737182313727,1.0179999999818392
312416.7387,10.534608062206209,-3.2105433625993376,3.553277144583511,-2.711595683957134,1.018999999971129
312416.7397,9.96184419874845,-4.04712974087982,3.60016512370971,-2.8259489001929925,1.0199999999604188
312416.7407,9.353264947783087,-4.850833741521352,3.606879390575431,-2.9123729784551395,1.0210000000079162
312416.7417,8.73521859942349,-5.5836958609732505,3.596396252591781,-2.953525553713558,1.021999999997206
312416.7427,8.143068666228505,-6.19847556456744,3.602114982294354,-2.922234854244652,1.0229999999864958
312416.7437,7.616602467609999,-6.643785069493167,3.663039905092296,-2.785897025001199,1.0239999999757856
312416.7447,7.194593514419547,-6.870014758199281,3.8181306811741647,-2.5117167378213963,1.0249999999650754
312416.7457,6.909127393587838,-6.835420849497036,4.100433947085861,-2.0722011635941144,1.0260000000125729
312416.7467,6.78033340634186,-6.511723277789605,4.53163633177555,-1.4502894085179343,1.0270000000018626
312416.7477,6.812130421252364,-5.8886051299279325,5.117641046110743,-0.6435346777142065,1.0279999999911524
312416.7487,6.9894985378793955,-4.976610236831291,5.845671438739534,0.33314888079768906,1.0289999999804422
312416.7497,7.2776378030910545,-3.8080922525075365,6.6832548132884595,1.4465179757810116,1.029999999969732
312416.7507,7.62318633000101,-2.4360612978230582,7.579253188506582,2.6459736290653155,1.0309999999590218
312416.7517,7.957461574041418,-0.9309839227440588,8.466902962827048,3.8664413726435733,1.0320000000065193
312416.7527,8.201481076500743,0.6242020527058398,9.268622854736932,5.032927450178177,1.032999999995809
312416.7537,8.272333498195463,2.140414799275178,9.902169106996682,6.066346112355525,1.0339999999850988
312416.7547,8.090325923877623,3.529515842439435,10.287576705259852,6.8900779930791565,1.0349999999743886
312416.7557,7.586243933873199,4.711493025511317,10.354239299611718,7.4366371153434745,1.0359999999636784
312416.7567,6.708036079838739,5.621056999980999,10.047457359874054,7.653802717532292,1.0370000000111759
312416.7577,5.4262770558636335,6.213018623754686,9.333826398610963,7.509614215728813,1.0380000000004657
312416.7587,3.7378702367448398,6.465926600302362,8.204940978634248,6.995729370617216,1.0389999999897555
312416.7597,1.6676102591208144,6.383608445161409,6.679045735684436,6.128797367323693,1.0399999999790452
312416.7607,-0.7325754816793059,5.994457579698929,4.800456743968067,4.949685365943689,1.040999999968335
312416.7617,-3.386670395641965,5.348525585980887,2.636786558112728,3.5206009636538527,1.0419999999576248
312416.7627,-6.199646350381063,4.512690274461609,0.27421371115571874,1.9203540333287958,1.0430000000051223
312416.7637,-9.064132676494708,3.564356456832549,-2.1887779181881672,0.23817990968100222,1.043999999994412
312416.7647,-11.868083961439867,2.584288834098151,-4.648620679882622,-1.4333156138395602,1.0449999999837019
312416.7657,-14.502760833928425,1.6492610820857563,-7.004187623771529,-3.005444151667717,1.0459999999729916
312416.7667,-16.870310437176403,0.8252235407177095,-9.163936581115816,-4.400287295803869,1.0469999999622814
312416.7677,-18.890274221916584,0.16164185704572845,-11.052031407907544,-5.556487273554746,1.0480000000097789
312416.7687,-20.50445607040381,-0.3124548489408105,-12.612900847984802,-6.433451073946291,1.0489999999990687
312416.7697,-21.67974329674143,-0.5903443240206694,-13.813850347846433,-7.0135960331833775,1.0499999999883585
312416.7707,-22.408671164761067,-0.6872313561940121,-14.645533788891605,-7.302453305072485,1.0509999999776483
312416.7717,-22.707738858811926,-0.6376693606203899,-15.12030166945787,-7.326651600791323,1.051999999966938
312416.7727,-22.613700096223177,-0.4910506670139878,-15.268649165063954,-7.130007029160537,1.0529999999562278
312416.7737,-22.178243749787075,-0.305622867988875,-15.134171362065015,-6.7681259916532595,1.0540000000037253
312416.7747,-21.46163019016642,-0.14163434116239415,-14.767575685240123,-6.3020692323424825,1.054999999993015
312416.7757,-20.525942909574255,-0.054299093494056296,-14.220389043699024,-5.791712545539438,1.0559999999823049
312416.7767,-19.428643251942304,-0.08729068636565182,-13.53902084887849,-5.289464775717041,1.0569999999715947
312416.7777,-18.21707610770025,-0.2674250397602095,-12.759800452230557,-4.834964159194627,1.0579999999608845
312416.7787,-16.924470310756917,-0.6010770330049371,-11.905502888025406,-4.451273638410994,1.059000000008382
312416.7797,-15.56781960616712,-1.072707027611376,-10.98372041425134,-4.142944369940022,1.0599999999976717
312416.7807,-14.147834154499288,-1.6456670472850605,-9.987244693034114,-3.8961290933533097,1.0609999999869615
312416.7817,-12.650938086787484,-2.265232397095651,-8.896414647127077,-3.6807217334080162,1.0619999999762513
312416.7827,-11.053076958153081,-2.8635847994756736,-7.6831789378978135,-3.4542967356565564,1.062999999965541
312416.7837,-9.324911154517299,-3.3662791295687353,-6.316440208585552,-3.1674411337694095,1.0640000000130385
312416.7847,-7.437826139045863,-3.6995765589253296,-4.768108978927671,-2.7699319939534135,1.0650000000023283
312416.7857,-5.370102448875215,-3.79793706688505,-3.0192124896265082,-2.2171255404560717,1.065999999991618
312416.7867,-3.112566499504408,-3.6109428002767627,-1.0653864690078851,-1.475900518670832,1.0669999999809079
312416.7877,-0.6730899264229786,-3.1089729604809047,1.0788720798278164,-0.5295396516148188,1.0679999999701977
312416.7887,1.9205839883379887,-2.287066198505455,3.3776998458246035,0.618964535802409,1.0689999999594875
312416.7897,4.620044040117218,-1.166576881492545,5.7734532586554295,1.9455396462679584,1.070000000006985
312416.7907,7.3576006684860875,0.20555934971699966,8.188527072154175,3.4057694039649644,1.0709999999962747
312416.7917,10.04979802023661,1.759907785328994,10.529328195484833,4.937698570712846,1.0719999999855645
312416.7927,12.602770268700901,3.409697701708304,12.692113214607835,6.466464885938679,1.0729999999748543
312416.7937,14.918974530653772,5.057600665266573,14.570209267729991,7.910334193198573,1.073999999964144
312416.7947,16.904687685049588,6.603504343274503,16.061993300088176,9.187573722390699,1.0750000000116415
312416.7957,18.47756835730181,7.952567435613728,17.078918665082774,10.223512018605204,1.0760000000009313
312416.7967,19.573567152557697,9.022815347641274,17.552859359926412,10.957110877578147,1.0769999999902211
312416.7977,20.15252011930993,9.751581343485158,17.442093161964415,11.346417299016814,1.077999999979511
312416.7987,20.2018777298238,10.100209680183658,16.735361076865317,11.37236789054346,1.0789999999688007
312416.7997,19.73819325256709,10.05660466083339,15.45361098306873,11.040574271428707,1.0799999999580905
312416.8007,18.80620376131295,9.63541627840078,13.649242011596842,10.380910680048983,1.081000000005588
312416.8017,17.475563900695303,8.875878965937238,11.40289314556421,9.444935427508948,1.0819999999948777
312416.8027,15.835514843390204,7.837542918939181,8.818043056172288,8.301385548431135,1.0829999999841675
312416.8037,13.987966936724824,6.594335848505991,6.013886907609968,7.030168718665775,1.0839999999734573
312416.8047,12.03962515555834,5.227547662159344,3.117110741160948,5.715420220770146,1.084999999962747
312416.8057,10.09387685305853,3.8184265968786435,0.25328030312579464,4.438281433079445,1.0860000000102445
312416.8067,8.243182481386423,2.4411036765828653,-2.46141029989814,3.2700813704412957,1.0869999999995343
312416.8077,6.562659730187646,1.1565206223490994,-4.927326503978672,2.266561812389588,1.0879999999888241
312416.8087,5.10543466302791,0.007928969164255182,-7.066921940627848,1.4636835716860543,1.088999999978114
312416.8097,3.900161201453327,-0.9816339890747932,-8.82817523764976,0.8753965899000467,1.0899999999674037
312416.8107,2.9508994247625617,-1.8096874978239699,-10.185704994407658,0.4935649614409001,1.0909999999566935
312416.8117,2.2393141404167443,-2.492482296228223,-11.139555247295135,0.29002841454288625,1.092000000004191
312416.8127,1.7289303647625125,-3.0612389657394594,-11.71186408121598,0.22057467760299937,1.0929999999934807
312416.8137,1.370983696562666,-3.5568724365956115,-11.941825081583518,0.23041271707783956,1.0939999999827705
312416.8147,1.1112505095425544,-4.0237743234722,-11.879506048894093,0.26059298396227865,1.0949999999720603
312416.8157,0.8971504531889392,-4.5033160392060125,-11.579187000413645,0.25473148342623014,1.0959999999613501
312416.8167,0.6843910481216056,-5.027760486929682,-11.092910786801413,0.165368261829782,1.0970000000088476
312416.8177,0.4424734988695257,-5.615226323863848,-10.464902013635895,-0.040669826074381334,1.0979999999981374
312416.8187,0.15849547714458162,-6.266240856699248,-9.727407522004905,-0.3784314733868962,1.0989999999874271
312416.8197,-0.1611407958213375,-6.962256402408422,-8.898354964172606,-0.8429056338016848,1.099999999976717
312416.8207,-0.491295173643835,-7.666306482455565,-7.981030858150525,-1.409177252424104,1.1009999999660067
312416.8217,-0.7908808884017416,-8.325762193099397,-6.965765533758275,-2.0346562622142126,1.1019999999552965
312416.8227,-1.0076046739046367,-8.876936872602759,-5.833401034919152,-2.6631580880492938,1.103000000002794
312416.8237,-1.0841804263876904,-9.25109970774629,-4.560130467098036,-3.2304322557063756,1.1039999999920838
312416.8247,-0.9653877814414501,-9.381314647117524,-3.1231522361782833,-3.6705941164461477,1.1049999999813735
312416.8257,-0.605254942264614,-9.209434090125747,-1.5064946315013514,-3.9228268828382036,1.1059999999706633
312416.8267,0.026376398445138154,-8.692555804238328,0.2936559064538125,-3.9376955266052165,1.1069999999599531
312416.8277,0.9385947549027001,-7.8082984073970145,2.264743450928276,-3.682452893679431,1.1080000000074506
312416.8287,2.116042213204146,-6.558360889132067,4.3752591183369205,-3.144817603700199,1.1089999999967404
312416.8297,3.517812018238287,-4.969994189466675,6.574133917518875,-2.3348529778631066,1.1099999999860302
312416.8307,5.078798540643738,-3.0952118516068956,8.792257221764677,-1.2847615329461621,1.11099999997532
312416.8317,6.713442335861797,-1.007782719318811,10.946054125149479,-0.04661221345776442,1.1119999999646097
312416.8327,8.321581241551332,1.2017395435215688,12.942843510692272,1.3117823917375042,1.1130000000121072
312416.8337,9.79591277722697,3.4325083179318465,14.68751291013948,2.7124436498461835,1.114000000001397
312416.8347,11.030413407946725,5.580811413454505,16.089904748593053,4.073725578283105,1.1149999999906868
312416.8357,11.928961971792607,7.547760861368511,17.072225575717468,5.317115167535348,1.1159999999799766
312416.8367,12.4133872757254,9.246549864927664,17.57577387609686,6.373690020291414,1.1169999999692664
312416.8377,12.430206216967477,10.60862647153356,17.56633492862578,7.189627132515742,1.1179999999585561
312416.8387,11.955434377735145,11.588240604974784,17.03770808380942,7.730253659596625,1.1190000000060536
312416.8397,10.997024815861849,12.1649796431178,16.013001595342402,7.982276536084829,1.1199999999953434
312416.8407,9.59470612370004,12.344101976149531,14.543536433672191,7.954008212520794,1.1209999999846332
312416.8417,7.8172272122586595,12.154688744506677,12.705423391251962,7.673602594244214,1.121999999973923
312416.8427,5.757251221453947,11.645840531649439,10.594095690327185,7.185509046926935,1.1229999999632128
312416.8437,3.524352224240648,10.88132800103797,8.317271120704035,6.545524000786867,1.1240000000107102
312416.8447,1.2367361250321605,9.933245655619515,5.986964888347214,5.814952440380885,1.125
312416.8457,-0.9875842268454612,8.875302635837677,3.7112626010164993,5.054472525829291,1.1259999999892898
312416.8467,-3.0393900010739117,7.7764058742517195,1.586583629019459,4.318318041252115,1.1269999999785796
312416.8477,-4.825896116336531,6.695147403571304,-0.3088835204556893,3.6493535082477386,1.1279999999678694
312416.8487,-6.276793117318979,5.675704012510332,-1.920005428498283,3.075519912393486,1.1289999999571592
312416.8497,-7.348213251510745,4.745504532210979,-3.2173860754200776,2.607984982566803,1.1300000000046566
312416.8507,-8.024343644003507,3.914833432444638,-4.197709996720745,2.241155395762219,1.1309999999939464
312416.8517,-8.316632759854746,3.1783380132938506,-4.881770888432053,1.9545169105201632,1.1319999999832362
312416.8527,-8.260760374791378,2.5182105972966036,-5.310428189080854,1.716081450657519,1.132999999972526
312416.8537,-7.911744487944939,1.9086464419544453,-5.538927106068049,1.487056288578537,1.1339999999618158
312416.8547,-7.337721696064858,1.321049708309744,-5.630166944157516,1.2272261086226728,1.1350000000093132
312416.8557,-6.613045317113401,0.7293865648931747,-5.647594167351279,0.9004663079892639,1.135999999998603
312416.8567,-5.811388385326003,0.11507365169192746,-5.648421805594395,0.4797926716447201,1.1369999999878928
312416.8577,-4.999513393415975,-0.5291573246409769,-5.677833540274111,-0.04860011220876408,1.1379999999771826
312416.8587,-4.232280909514448,-1.1968675170006648,-5.764723698282102,-0.6827554390836608,1.1389999999664724
312416.8597,-3.5493248406681297,-1.8672826378133773,-5.9193643036090995,-1.4041228369744212,1.1399999999557622
312416.8607,-2.9736383303172267,-2.5065313823752864,-6.133193262539003,-2.178593086396392,1.1410000000032596
312416.8617,-2.512109984295287,-3.070653373251253,-6.380703228449938,-2.9593240244696846,1.1419999999925494
312416.8627,-2.1578460781157767,-3.510087712950165,-6.623199865545726,-3.691094643386127,1.1429999999818392
312416.8637,-1.8939311373174168,-3.7751894747167416,-6.814011818296407,-4.3157641466255345,1.143999999971129
312416.8647,-1.6981350699818056,-3.822202450896266,-6.9045909335211215,-4.778292972213548,1.1449999999604188
312416.8657,-1.5479840757909253,-3.619054618944174,-6.850854168230215,-5.0327166381849056,1.1460000000079162
312416.8667,-1.425583625783916,-3.1503448490141706,-6.6190965437338285,-5.047457575226739,1.146999999997206
312416.8677,-1.3216173839223242,-2.420955813893526,-6.190849468249214,-4.8094159053737835,1.1479999999864958
312416.8687,-1.2380420064524347,-1.457852926875357,-5.566166157860973,-4.3263923592935365,1.1489999999757856
312416.8697,-1.1891442105609322,-0.3098006403874669,-4.76497502935017,-3.627554561242523,1.1499999999650754
312416.8707,-1.2008081962773731,0.9550709104559645,-3.8263370408829944,-2.761846540414647,1.1510000000125729
312416.8717,-1.3080397432471857,2.2537037570330485,-2.80565471892643,-1.794442237363764,1.1520000000018626
312416.8727,-1.550987722918,3.494207401619914,-1.770088099466684,-0.80153732742559,1.1529999999911524
312416.8737,-1.969874361262288,4.583092974738627,-0.7926155102465434,0.1360591660395263,1.1539999999804422
312416.8747,-2.599374706621311,5.433003607342839,0.05468306695750647,0.9399478348825652,1.154999999969732
312416.8757,-3.463059871862408,5.9702345972969155,0.7074592868465306,1.5411221159419293,1.1559999999590218
312416.8767,-4.568529683061364,6.141340374161848,1.1153677071265893,1.8862514445416485,1.1570000000065193
312416.8777,-5.903806637256366,5.918196360099284,1.2471455109415703,1.9426616949196471,1.157999999995809
312416.8787,-7.43544931462658,5.301016467982335,1.0939827500275638,1.7015266100339663,1.1589999999850988
312416.8797,-9.108680433776732,4.319009020918667,0.6708284086217007,1.178948056179398,1.1599999999743886
312416.8807,-10.849628427470819,3.0285682856624567,0.015476603524970824,0.4147993213903046,1.1609999999636784
312416.8817,-12.569571063549583,1.5091252950666505,-0.8145073828711353,-0.5305844418870463,1.1620000000111759
312416.8827,-14.17086612439179,-0.14300139880305673,-1.746750852688542,-1.5815812978314339,1.1630000000004657
312416.8837,-15.554077875218953,-1.8222277462459062,-2.7004714938553924,-2.6538588045198552,1.1639999999897555
312416.8847,-16.62567686243492,-3.4221333404957712,-3.5937116966163245,-3.6617535162356685,1.1649999999790452
312416.8857,-17.30561804552895,-4.843955354178532,-4.350727566504636,-4.525778420165841,1.165999999968335
312416.8867,-17.534096259873188,-6.004397482522163,-4.908832427256,-5.179569579513761,1.1669999999576248
312416.8877,-17.276839921067722,-6.842066708150048,-5.2240440568721676,-5.575635097997664,1.1680000000051223
312416.8887,-16.528428433741638,-7.3219775073520506,-5.27499750068251,-5.689381738165477,1.168999999994412
312416.8897,-15.313294490774986,-7.437742076874448,-5.0647501937278205,-5.521056379648974,1.1699999999837019
312416.8907,-13.68428278066088,-7.211279211691926,-4.620307320608588,-5.09543546376175,1.1709999999729916
312416.8917,-11.71886150491461,-6.690103184920731,-3.989913308072794,-4.45930682568234,1.1719999999622814
312416.8927,-9.513300943009893,-5.94247556844521,-3.238368903914451,-3.67699459905374,1.1730000000097789
312416.8937,-7.175323050899064,-5.05089631984534,-2.4408216940825715,-2.824359439369721,1.1739999999990687
312416.8947,-4.815869323314833,-4.104557356781791,-1.6756228573981133,-1.9818458320523753,1.1749999999883585
312416.8957,-2.5407168999582135,-3.191468495368385,-1.016930413257854,-1.2272325150854864,1.1759999999776483
312416.8967,-0.44268696672395735,-2.390984157233407,-0.527760764575289,-0.6287632192810071,1.176999999966938
312416.8977,1.4048666711272562,-1.7674083705869725,-0.2541440027033297,-0.23929130039756383,1.1779999999562278
312416.8987,2.9527221660726286,-1.3652407296347835,-0.22092888327831145,-0.09196796683753529,1.1790000000037253
312416.8997,4.178215387269937,-1.2064587136833316,-0.42962143352807197,-0.1978500647211364,1.179999999993015
312416.9007,5.085246409427927,-1.2900286869675905,-0.8584427488581701,-0.5456149238335956,1.1809999999823049
312416.9017,5.701914323931566,-1.593618962345436,-1.4645761526174765,-1.1033650467690879,1.1819999999715947
312416.9027,6.076050641900701,-2.0772748998392676,-2.188362623619964,-1.8223043891213628,1.1829999999608845
312416.9037,6.2691174800189895,-2.6886288488394494,-2.959016886927757,-2.641890133606339,1.184000000008382
312416.9047,6.349087074625878,-3.3690748842981577,-3.7012929828098557,-3.4959263668604303,1.1849999999976717
312416.9057,6.3830095519107735,-4.060253369417936,-4.342441385141365,-4.31898208100822,1.1859999999869615
312416.9067,6.429997690391377,-4.710171308175994,-4.8187781207256695,-5.052493324327957,1.1869999999762513
312416.9077,6.535308685721294,-5.278332657316736,-5.081231703404967,-5.649949967390683,1.187999999965541
312416.9087,6.726088540535995,-5.739363074652922,-5.099341297895612,-6.080667086617836,1.1890000000130385
312416.9097,7.009175889199397,-6.084774735610577,-4.8633385001697915,-6.331789290400867,1.1900000000023283
312416.9107,7.371155337252004,-6.322712635784711,-4.384139551860905,-6.408358557438144,1.190999999991618
312416.9117,7.7806259265091455,-6.475734629615015,-3.6912853153867387,-6.331474159284611,1.1919999999809079
312416.9127,8.192430018203792,-6.576882306756273,-2.8290719919501677,-6.134767323231398,1.1929999999701977
312416.9137,8.553393191986626,-6.664478270936032,-1.8512959491416259,-5.859584200763681,1.1939999999594875
312416.9147,8.808975660002412,-6.776219674940521,-0.8151732516005635,-5.549401493960402,1.195000000006985
312416.9157,8.910144819195176,-6.943214559080652,0.22492503484781204,-5.2440767843743625,1.1959999999962747
312416.9167,8.819755770276842,-7.184618900460454,1.2232649239567919,-4.97455248265082,1.1969999999855645
312416.9177,8.517774147272432,-7.5034770111711,2.1474626024517582,-4.75858665943639,1.1979999999748543
312416.9187,8.004788807958608,-7.884251303840994,2.9816238353234863,-4.597980298564873,1.198999999964144
312416.9197,7.303429812947838,-8.292360813678139,3.7275767407591234,-4.47761894974577,1.2000000000116415
312416.9207,6.457513318966053,-8.675847525635962,4.404060741418718,-4.366462317067592,1.2010000000009313
312416.9217,5.528959436889365,-8.969075169696465,5.043944747942549,-4.2204162524367845,1.2019999999902211
312416.9227,4.592749874304582,-9.09815783016369,5.689751418457937,-3.9868276749914187,1.202999999979511
312416.9237,3.730387750200876,-8.987635963869598,6.387941300817621,-3.6101734099229907,1.2039999999688007
312416.9247,3.022473223880506,-8.567783112027323,7.182543048845079,-3.038385791663051,1.2049999999580905
312416.9257,2.541100704218839,-7.781851218244769,8.10879032420748,-2.229184049483334,1.206000000005588
312416.9267,2.342807322673928,-6.59255381889678,9.187434763369273,-1.155768630061581,1.2069999999948777
312416.9277,2.462755617232922,-4.987145752829132,10.420346283849105,0.18871271575322804,1.2079999999841675
312416.9287,2.9107204116902885,-2.9805801136034695,11.787892407015704,1.7884077175478696,1.2089999999734573
312416.9297,3.6692815592967727,-0.616396476811032,13.24841865287794,3.604032953785539,1.209999999962747
312416.9307,4.694416815904728,2.034797512476919,14.739948852130293,5.574307483033867,1.2110000000102445
312416.9317,5.918462683591824,4.879166230544058,16.184007221244194,7.619469860068545,1.2119999999995343
312416.9327,7.255187534469896,7.805506593649124,17.491254480513867,9.646600661369048,1.2129999999888241
312416.9337,8.60652230262265,10.692638870447924,18.568448728587974,11.556296816613536,1.213999999978114
312416.9347,9.870338727805176,13.417694370669953,19.32610611125937,13.25011059712292,1.2149999999674037
312416.9357,10.94856847169911,15.8645827064455,19.68615999654668,14.638088171113806,1.2159999999566935
312416.9367,11.754927592723819,17.9319048916702,19.58890809645296,15.645727939166992,1.217000000004191
312416.9377,12.221552418883322,19.539631104876825,18.998595946412724,16.21972900552763,1.2179999999934807
312416.9387,12.30396049659989,20.633978362751012,17.90710691567581,16.332010409209143,1.2189999999827705
312416.9397,11.98391328747869,21.19009234587749,16.335401912747965,15.981641572509561,1.2199999999720603
312416.9407,11.269959546704754,21.212342843229038,14.332559618238315,15.19451844544212,1.2209999999613501
312416.9417,10.19565999246079,20.732263937591274,11.972490494102763,14.020829339693135,1.2220000000088476
312416.9427,8.815713303933766,19.8043868130873,9.348613615299062,12.530559271948434,1.2229999999981374
312416.9437,7.200399327833319,18.50040414755866,6.5669738164651115,10.807462068992383,1.2239999999874271
312416.9447,5.4289087072252995,16.902252240116862,3.7384196599137103,8.942068218402696,1.224999999976717
312416.9457,3.582224313404377,15.094786428895466,0.9705466286624213,7.024380251041746,1.2259999999660067
312416.9467,1.7362498906299209,13.158748754309405,-1.6398732330955788,5.136928448456061,1.2269999999552965
312416.9477,-0.04415720849496625,11.164682449755876,-4.0133057452221825,3.3488161319660636,1.228000000002794
312416.9487,-1.7096950745925552,9.168340532929165,-6.092158736206608,1.7112802408537837,1.2289999999920838
312416.9497,-3.229270289274493,7.207976482801624,-7.843388835109886,0.2551396992728105,1.2299999999813735
312416.9507,-4.59059120152126,5.303709707177266,-9.258826949505636,-1.0096836374025047,1.2309999999706633
312416.9517,-5.798709841910259,3.4589466751656563,-10.353257672501469,-2.092590406305997,1.2319999999599531
312416.9527,-6.872729964506056,1.6636311905043264,-11.160501890032238,-3.018894282466526,1.2330000000074506
312416.9537,-7.841083834874435,-0.10108522341996302,-11.727939980033847,-3.8249727501658737,1.2339999999967404
312416.9547,-8.735923161426836,-1.8573015368633854,-12.110057032084946,-4.5525089664572445,1.2349999999860302
312416.9557,-9.587255873438718,-3.624585949800726,-12.361677619876904,-5.242437658932739,1.23599999997532
312416.9567,-10.417481827601375,-5.414605804687313,-12.531577656501508,-5.929228618385257,1.2369999999646097
312416.9577,-11.23693501880474,-7.226771959401266,-12.657113056196449,-6.63609881290426,1.2380000000121072
312416.9587,-12.040932207517104,-9.04539237172166,-12.76039425947049,-7.371642997365398,1.239000000001397
312416.9597,-12.808668992665607,-10.838670947690746,-12.846373253327172,-8.128223225052718,1.2399999999906868
312416.9607,-13.504110312400597,-12.559694799824541,-12.903011708252391,-8.882274932633223,1.2409999999799766
312416.9617,-14.078812726338862,-14.149345291339563,-12.90348491970246,-9.596489562307124,1.2419999999692664
312416.9627,-14.476411780736994,-15.540866425276347,-12.810167604524135,-10.223640742015268,1.2429999999585561
312416.9637,-14.638329916655888,-16.665648503780012,-12.579964959232736,-10.711652092977303,1.2440000000060536
312416.9647,-14.5101268071382,-17.459653180443123,-12.170413877171631,-11.009376594256093,1.2449999999953434
312416.9657,-14.047838381977822,-17.869831377017228,-11.545898641728577,-11.072482863193281,1.2459999999846332
312416.9667,-13.223641050533647,-17.859875707312742,-10.68331085342775,-10.868830144729625,1.246999999973923
312416.9677,-12.030235147353315,-17.41470530693388,-9.57653638899169,-10.382762625590543,1.2479999999632128
312416.9687,-10.483461078544115,-16.543198023770426,-8.239267730229779,-9.617860095952961,1.2490000000107102
312416.9697,-8.622831513911303,-15.278851461622965,-6.705806747616269,-8.597835449911154,1.25
312416.9707,-6.509866643892265,-13.678254137105238,-5.029724589675043,-7.365454843631586,1.2509999999892898
312416.9717,-4.224336936715517,-11.817461415981592,-3.280461830766577,-5.979555127731481,1.2519999999785796
312416.9727,-1.858727438930727,-9.786576927827195,-1.538162034081139,-4.510425674359943,1.2529999999678694
312416.9737,0.4885814517225316,-7.683018451460793,0.11278548234586358,-3.0339887388723796,1.2539999999571592
312416.9747,2.7207878544245565,-5.604080103894483,1.5908808943743242,-1.6253373072031114,1.2550000000046566
312416.9757,4.750094687120962,-3.639476740382322,2.8246368416534344,-0.3522593811440081,1.2559999999939464
312416.9767,6.504381210844639,-1.864564193999977,3.7589888512661385,0.7306143832145341,1.2569999999832362
312416.9777,7.932477288689864,-0.33486924785250616,4.360351964978413,1.5864579712757432,1.257999999972526
312416.9787,9.007526219728316,0.917558446867496,4.619805017580924,2.1992237947438253,1.2589999999618158
312416.9797,9.7281021889466,1.8856323141631643,4.554058816809713,2.5746350060396246,1.2600000000093132
312416.9807,10.116963131152357,2.586418250291775,4.204074658618077,2.7390805439541404,1.260999999998603
312416.9817,10.217548433277328,3.0581126807619663,3.631424919762336,2.7365022201628264,1.2619999999878928
312416.9827,10.088551184024618,3.3551065731951106,2.9127060839126155,2.623561125702637,1.2629999999771826
312416.9837,9.797085065896177,3.541616587133198,2.1325052171606234,2.4635419902898947,1.2639999999664724
312416.9847,9.41110767639501,3.684502240482747,1.37556498085701,2.3195819074678083,1.2649999999557622
312416.9857,8.991840872514674,3.8459659679213836,0.7188755643845443,2.2478812755223294,1.2660000000032596
312416.9867,8.586936475544912,4.076843521259201,0.22443607646798377,2.291562580539585,1.2669999999925494
312416.9877,8.225071007381084,4.411134163151612,-0.06662876119837254,2.4757856323148415,1.2679999999818392
312416.9887,7.912521710868727,4.862299072455884,-0.1380332059797092,2.804611241014653,1.268999999971129
312416.9897,7.632090077755095,5.421684011598401,1.0327619021798418e-05,3.2599401079654675,1.2699999999604188
312416.9907,7.344515953767413,6.059215329525433,0.3116099120923718,3.8026556870518164,1.2710000000079162
312416.9917,6.99228617464243,6.726296911470296,0.7384314546657992,4.375887992473469,1.271999999997206
312416.9927,6.505509426446519,7.3606212956327814,1.2050688967152754,4.910110226945807,1.2729999999864958
312416.9937,5.809325898643718,7.8924217405308905,1.6260610695962905,5.329601544176795,1.2739999999757856
312416.9947,4.832165909587137,8.251551713210821,1.9139141443054868,5.559674590925816,1.2749999999650754
312416.9957,3.5140810619406766,8.374697752108895,1.9873939619876713,5.533988845895,1.2760000000125729
312416.9967,1.8143536360375558,8.212018781102408,1.7793270778497274,5.201257849406606,1.2770000000018626
312416.9977,-0.2823530448930059,7.732560953817756,1.2431954488849009,4.530711627595747,1.2779999999911524
312416.9987,-2.7619136615552327,6.927916505330835,0.3579228569163567,3.5157900029249105,1.2789999999804422
312416.9997,-5.579154681394178,5.813766206562673,-0.8695795141797933,2.175707182984126,1.279999999969732
312417.0007,-8.6589622003278,4.4291511275158575,-2.4043316840703564,0.5547272991466711,1.2809999999590218
312417.0017,-11.900037385671421,2.833540373558648,-4.185661870075554,-1.2807946555354643,1.2820000000065193
312417.0027,-15.181010575374843,1.1019756705980328,-6.131808929537845,-3.247342349447806,1.282999999995809
312417.0037,-18.368408681364013,-0.6812397879132587,-8.146313750353166,-5.250689451688573,1.2839999999850988
312417.0047,-21.325800541671498,-2.4297001682834884,-10.125602358633158,-7.193282485765201,1.2849999999743886
312417.0057,-23.92333718800707,-4.062214378302186,-11.967060641224304,-8.98187960345867,1.2859999999636784
312417.0067,-26.046868639333,-5.50957928216574,-13.57686494773197,-10.534748816529707,1.2870000000111759
312417.0077,-27.605858919596184,-6.720161120629601,-14.876867282269922,-11.787774606515026,1.2880000000004657
312417.0087,-28.539432486893883,-7.663755796258894,-15.809934376799713,-12.698928888861328,1.2889999999897555
312417.0097,-28.820057348324124,-8.333368471035849,-16.343296347765776,-13.250720511898582,1.2899999999790452
312417.0107,-28.454586308561286,-8.744757475245736,-16.469657239780986,-13.450431385955055,1.290999999968335
312417.0117,-27.482617445383987,-8.933806717878522,-16.206037142508148,-13.328158125938742,1.2919999999576248
312417.0127,-25.972375297102037,-8.952003088505696,-15.590532454837788,-12.932885356048335,1.2930000000051223
312417.0137,-24.014532742907694,-8.860479929056742,-14.677376211308781,-12.327000601382377,1.293999999994412
312417.0147,-21.71456977402819,-8.72322646743861,-13.530835401667463,-11.579803380782986,1.2949999999837019
312417.0157,-19.184383114758592,-8.60014260520437,-12.218582223126402,-10.760649192709433,1.2959999999729916
312417.0167,-16.533909521790882,-8.540630946700896,-10.805212031010623,-9.932394397268068,1.2969999999622814
312417.0177,-13.8635018420608,-8.578362346442345,-9.34654959566882,-9.145768532175852,1.2980000000097789
312417.0187,-11.257703843926835,-8.727733121063821,-7.885290942961151,-8.43520066198957,1.2989999999990687
312417.0197,-8.78091741211077,-8.98236313544839,-6.4483805649048,-7.816476120880434,1.2999999999883585
312417.0207,-6.47525951563152,-9.315780910285152,-5.046338330515738,-7.286414494998337,1.3009999999776483
312417.0217,-4.360686106441145,-9.68422471403155,-3.6745458535333495,-6.824557293207787,1.301999999966938
312417.0227,-2.4372376037509165,-10.03127865505803,-2.316299003831457,-6.396654423222191,1.3029999999562278
312417.0237,-0.6890576652907969,-10.293880697451133,-0.9472520216536148,-5.959561871781532,1.3040000000037253
312417.0247,0.9103268163074218,-10.409103143126742,0.45926265255550974,-5.4670261174967685,1.304999999993015
312417.0257,2.392085559516619,-10.321028803453572,1.9266422282835436,-4.8757470248624895,1.3059999999823049
312417.0267,3.7861899117415114,-9.987035368046513,3.469777656721236,-4.151088240749929,1.3069999999715947
312417.0277,5.116184426660327,-9.382857372211864,5.090763120641488,-3.2718443603528016,1.3079999999608845
312417.0287,6.395177605975207,-8.505914047194922,6.776040343590217,-2.2335730546787094,1.309000000008382
312417.0297,7.623460590147657,-7.3765605216036505,8.495317337373056,-1.0501478896332557,1.3099999999976717
312417.0307,8.78797895065499,-6.037122725526825,10.202416578312912,0.2466311158072684,1.3109999999869615
312417.0317,9.863678387987157,-4.548793043311337,11.838006832724501,1.6093351742848763,1.3119999999762513
312417.0327,10.816541109695287,-2.9866730436311566,13.33397620107398,2.978885639794856,1.312999999965541
312417.0337,11.607946810360676,-1.4334310057999247,14.619031237670324,4.28981727673222,1.3140000000130385
312417.0347,12.19984909574069,0.02782227557306954,15.624975640044061,5.476299171025265,1.3150000000023283
312417.0357,12.560169364869598,1.3207590458749388,16.293045270438927,6.478309559076144,1.315999999991618
312417.0367,12.66778451272658,2.3824706329045005,16.57966201044674,7.247344276040829,1.3169999999809079
312417.0377,12.516524840554741,3.1688799473448928,16.461018784017405,7.751083970628899,1.3179999999701977
312417.0387,12.117700099747793,3.6584150078728395,15.936017265140142,7.976548136017842,1.3189999999594875
312417.0397,11.500824260091393,3.853596766437921,15.027237658466085,7.931414110835324,1.320000000006985
312417.0407,10.71239782005046,3.780396800884572,13.779810987564378,7.643361582775557,1.3209999999962747
312417.0417,9.81281108995853,3.485436514628917,12.258269693290805,7.157499657961199,1.3219999999855645
312417.0427,8.871632011121706,3.0313082028791616,10.54165169661604,6.532124716176563,1.3229999999748543
312417.0437,7.9617172524345525,2.4904793142156603,8.717306595507091,5.83322405522347,1.323999999964144
312417.0447,7.152717519449557,1.9383767878327929,6.873982994660473,5.128266137118373,1.3250000000116415
312417.0457,6.504623432981971,1.4463252694371453,5.09484995028041,4.4798905241751,1.3260000000009313
312417.0467,6.062008831081693,1.075023837918353,3.451115493595359,3.9401220543199442,1.3269999999902211
312417.0477,5.849572228206572,0.8691896196589487,1.9968498040402294,3.545683175343302,1.327999999979511
312417.0487,5.869459394083622,0.853878906100533,0.7655049146727896,3.3148704958913346,1.3289999999688007
312417.0497,6.100681751016041,1.0328287240921552,-0.23154208696956974,3.246307040997767,1.3299999999580905
312417.0507,6.500742808665384,1.388960727067072,-1.0042935551898062,3.319695584376787,1.331000000005588
312417.0517,7.009367968308787,1.886974544089361,-1.5813666872605439,3.498499085624441,1.3319999999948777
312417.0527,7.5540231352672675,2.477750453349547,-2.0054480412128037,3.734281363900596,1.3329999999841675
312417.0537,8.056725566355993,3.104101826752657,-2.3274330621295096,3.9722737935288936,1.3339999999734573
312417.0547,8.441514558277664,3.707283897532475,-2.5998491153622996,4.157608661975197,1.334999999962747
312417.0557,8.641873862906325,4.233590261236889,-2.8702346406599766,4.241589443210829,1.3360000000102445
312417.0567,8.607390209847036,4.640359614272443,-3.1751549304881084,4.187359827770066,1.3369999999995343
312417.0577,8.308994508283126,4.900773561137906,-3.5354754435827322,3.974388071912028,1.3379999999888241
312417.0587,7.742258854110956,5.006946287639011,-3.9533918785309234,3.601296047011574,1.338999999978114
312417.0597,6.928401713132531,4.970976853469555,-4.411543990699978,3.086722533536151,1.3399999999674037
312417.0607,5.912868681903014,4.823838226337865,-4.874333929160786,2.468102374523974,1.3409999999566935
312417.0617,4.761586526997449,4.612194065809518,-5.291349737049717,1.7984484531047384,1.342000000004191
312417.0627,3.5552116200387296,4.39344339033079,-5.602582137351422,1.1414220753952757,1.3429999999934807
312417.0637,2.381888782813652,4.229474039525958,-5.744938749074636,0.5651497750651759,1.3439999999827705
312417.0647,1.3291839168329493,4.179740393089229,-5.659422718393319,0.13537381977873414,1.3449999999720603
312417.0657,0.47593907632430693,4.294355700450194,-5.298266213968521,-0.09140307394296347,1.3459999999613501
312417.0667,-0.11518677514367644,4.607896963380897,-4.63130129620747,-0.07410859893430662,1.3470000000088476
312417.0677,-0.4037860605692364,5.134559489900963,-3.650912651413911,0.20798778736107162,1.3479999999981374
312417.0687,-0.3758000784692897,5.865174564563025,-2.3750431003801564,0.752143039261016,1.3489999999874271
312417.0697,-0.04524701091001,6.766428867066021,-0.8479018588692143,1.5311240881493955,1.349999999976717
312417.0707,0.5465983204899841,7.782415052090773,0.8617597264129127,2.494444943870077,1.3509999999660067
312417.0717,1.3345139526199963,8.838419420226447,2.6647103389623616,3.571783121715519,1.3519999999552965
312417.0727,2.2348375351815046,9.846636459220694,4.4573211453066826,4.678294551677495,1.353000000002794
312417.0737,3.1526723497670015,10.713312166425627,6.129156381625888,5.721365096873016,1.3539999999920838
312417.0747,3.990135303039486,11.346676737776965,7.571412610394228,6.608198833283573,1.3549999999813735
312417.0757,4.654892230145021,11.664946212920754,8.685461428354134,7.253561648508278,1.3559999999706633
312417.0767,5.068199693711325,11.60365996391238,9.390734592067405,7.586981401390134,1.3569999999599531
312417.0777,5.171719993012,11.121677865075391,9.631246303660724,7.5587545459235645,1.3580000000074506
312417.0787,4.932492686322886,10.205282202114853,9.380169517766141,7.14421909367574,1.3589999999967404
312417.0797,4.345620326630252,8.870003270219199,8.642059950970218,6.345914488547393,1.3599999999860302
312417.0807,3.434441529737325,7.159997488993068,7.452536100540643,5.1934449352179355,1.36099999997532
312417.0817,2.2482002423760443,5.145032584891114,5.875455502098476,3.7410751250425274,1.3619999999646097
312417.0827,0.8574535684328257,2.9153543250509912,3.9978545534246708,2.063295771243308,1.3630000000121072
312417.0837,-0.6523305485953929,0.5749024104624357,1.9231199155570824,0.24878097678903416,1.364000000001397
312417.0847,-2.1883699385696236,-1.7665089106525398,-0.2369851878620044,-1.6066973257621548,1.3649999999906868
312417.0857,-3.6586385767740257,-4.001341092509328,-2.3707210183225653,-3.4077442603057886,1.3659999999799766
312417.0867,-4.979654975928986,-6.032086379223706,-4.374452057739858,-5.066527187133927,1.3669999999692664
312417.0877,-6.083270006762816,-7.777948947090889,-6.1597063844126945,-6.509031584716021,1.3679999999585561
312417.0887,-6.921840915714816,-9.179884339748362,-7.658620936207494,-7.679847981517127,1.3690000000060536
312417.0897,-7.471341175184311,-10.203593010846879,-8.827343725704397,-8.545100505722923,1.3699999999953434
312417.0907,-7.732159977659263,-10.840263669992792,-9.647166060575406,-9.093313073044285,1.3709999999846332
312417.0917,-7.727570584167698,-11.105078645494027,-10.123378052844334,-9.334211539455218,1.371999999973923
312417.0927,-7.500071361261007,-11.033705485119405,-10.282057636168327,-9.295659412145342,1.3729999999632128
312417.0937,-7.106005430104155,-10.677185962972098,-10.165195919371284,-9.01910148396513,1.3740000000107102
312417.0947,-6.609025004690861,-10.095777599570333,-9.824711513771382,-8.554026926604378,1.375
312417.0957,-6.073069547056929,-9.352390133573282,-9.315999357238011,-7.9520478530710905,1.3759999999892898
312417.0967,-5.5555633379464995,-8.50628216484799,-8.691687099315262,-7.261213330696659,1.3769999999785796
312417.0977,-5.101505053325123,-7.607639883680082,-7.996232381104714,-6.521140507701658,1.3779999999678694
312417.0987,-4.739023372905357,-6.693555396621497,-7.261892051769925,-5.7594482983241875,1.3789999999571592
312417.0997,-4.476818841272583,-5.785767639463173,-6.506440355153998,-4.989835054271925,1.3800000000046566
312417.1007,-4.303718808544712,-4.890340098235333,-5.732823269115914,-4.21196462250068,1.3809999999939464
312417.1017,-4.190358714364567,-3.999245696438092,-4.930729797437044,-3.4131331444474284,1.3819999999832362
312417.1027,-4.092790495106713,-3.093630786563908,-4.079858923756398,-2.571501292358292,1.382999999972526
312417.1037,-3.9576284635651646,-2.148357080837078,-3.1544834132429775,-1.660512246274936,1.3839999999618158
312417.1047,-3.728193267039634,-1.1372898157702076,-2.1287764138756846,-0.6539910798488651,1.3850000000093132
312417.1057,-3.3510199450660965,-0.03872538489144017,-0.982287295182517,0.4686511888989909,1.385999999998603
312417.1067,-2.7820655901165194,1.1596605826938429,0.2950628087682883,1.7176985975007961,1.3869999999878928
312417.1077,-1.9919881647055067,2.4569121510891216,1.6990462539783449,3.089438273934259,1.3879999999771826
312417.1087,-0.9699665345477009,3.8363964329570654,3.20872643898187,4.563933861989524,1.3889999999664724
312417.1097,0.2743175384702505,5.265211487613879,4.785901195629526,6.104553555091887,1.3899999999557622
312417.1107,1.7107272296356333,6.695510213471492,6.376514533207292,7.659362246644898,1.3910000000032596
312417.1117,3.2907347957738255,8.06765069473706,7.913954354696143,9.164295024289299,1.3919999999925494
312417.1127,4.951286005445391,9.314890414748286,9.323955593314466,10.547843668123411,1.3929999999818392
312417.1137,6.620069352216234,10.369176143812197,10.530656732743164,11.736827617240294,1.393999999971129
312417.1147,8.221655957272604,11.167459942601045,11.463230226098881,12.662702230999463,1.3949999999604188
312417.1157,9.683892069085294,11.657907018085385,12.062436939820424,13.267792200836446,1.3960000000079162
312417.1167,10.94390487129131,11.805359946635912,12.286448821478459,13.51083349306087,1.396999999997206
312417.1177,11.953125826888119,11.59548656498702,12.115343564338485,13.37126408159938,1.3979999999864958
312417.1187,12.680839451949106,11.037159790470689,11.553794674062926,12.851816749098507,1.3989999999757856
312417.1197,13.115918645405394,10.16278513102697,10.631648628575038,11.979125605559272,1.3999999999650754
312417.1207,13.266594965297497,9.026489375115325,9.402281496714313,10.802246374194556,1.4010000000125729
312417.1217,13.15831458886966,7.700292526970587,7.938840907242117,9.389190565295424,1.4020000000018626
312417.1227,12.829927653839102,6.268583914992501,6.328684736533712,7.821765802061516,1.4029999999911524
312417.1237,12.32863029860895,4.821392843172272,4.666505097575691,6.189179866364824,1.4039999999804422
312417.1247,11.704207557636346,3.447067269721069,3.046757626841056,4.580988138776985,1.404999999969732
312417.1257,11.00319813959165,2.2250383540556586,1.5560885482288662,3.080030830156595,1.4059999999590218
312417.1267,10.26361142145512,1.2193476039907971,0.2664581237611169,1.7560109424276846,1.4070000000065193
312417.1277,9.510771495535346,0.47354647250277443,-0.7704020850965251,0.6603055274353666,1.407999999995809
312417.1287,8.754748082479939,0.0074517455594799165,-1.526683616837213,-0.17751302908179326,1.4089999999850988
312417.1297,7.989670854827557,-0.18393405136661814,-2.000005597412585,-0.7511312050354105,1.4099999999743886
312417.1307,7.195028395024894,-0.12923299160884405,-2.212594192612931,-1.076802500493415,1.4109999999636784
312417.1317,6.3388451488368025,0.12265534839447058,-2.2082219654068864,-1.1905930499851574,1.4120000000111759
312417.1327,5.382430228430012,0.5077404330325634,-2.0472044980130844,-1.1438453183967812,1.4130000000004657
312417.1337,4.2862209822504775,0.9534725617393804,-1.7999358515597745,-0.9973105851341177,1.4139999999897555
312417.1347,3.016119392658937,1.3859966509470159,-1.5395825823501132,-0.8145273603635474,1.4149999999790452
312417.1357,1.5496536393279334,1.7374354685317595,-1.3346347025719216,-0.6550933451351145,1.415999999968335
312417.1367,-0.11870215472388608,1.9525071549143937,-1.2420235187639215,-0.5684861589447167,1.4169999999576248
312417.1377,-1.973649169426321,1.9938462545639108,-1.3014595740781965,-0.5890320571365276,1.4180000000051223
312417.1387,-3.9770962910109136,1.8455227517177946,-1.5315244627967781,-0.7325076956468267,1.418999999994412
312417.1397,-6.068395661980617,1.5144276886909183,-1.9278796781262992,-0.994698795936769,1.4199999999837019
312417.1407,-8.166863022611867,1.0294000229430573,-2.4637504645603387,-1.3520470303856607,1.4209999999729916
312417.1417,-10.176442281910733,0.43818750944344786,-3.092622791553651,-1.7643113518574225,1.4219999999622814
312417.1427,-11.992161325009171,-0.1974565418005731,-3.7528783688649052,-2.178972313494186,1.4230000000097789
312417.1437,-13.507844259714124,-0.8080590303811789,-4.373906733600026,-2.536936917528805,1.4239999999990687
312417.1447,-14.624412141282725,-1.3234807060246045,-4.883092815417944,-2.778973838911016,1.4249999999883585
312417.1457,-15.258033092512118,-1.680049568021616,-5.212996556628898,-2.8522369081849748,1.4259999999776483
312417.1467,-15.34738111541313,-1.8270790899943474,-5.308025911488376,-2.7162254950355362,1.426999999966938
312417.1477,-14.859331539174686,-1.732136789180722,-5.129957167147516,-2.3475847918209682,1.4279999999562278
312417.1487,-13.792553945918655,-1.384550475540349,-4.661771708639921,-1.7432616548351467,1.4290000000037253
312417.1497,-12.178648315159469,-0.7968108467296732,-3.9094447125233573,-0.9216916581026138,1.429999999993015
312417.1507,-10.080689729697209,-0.0037333027083035998,-2.9015224690992634,0.07811520369364447,1.4309999999823049
312417.1517,-7.589280596956022,0.9405408713414258,-1.6865414214117553,1.1995177934590324,1.4319999999715947
312417.1527,-4.816434865772458,1.9674145226654547,-0.3285524596822083,2.3729455418080745,1.4329999999608845
312417.1537,-1.887814789040245,3.0001053966393982,1.09880196503744,3.5219158609482037,1.434000000008382
312417.1547,1.0660111926224176,3.960711952559328,2.519070619969682,4.5697950827419245,1.4349999999976717
312417.1557,3.9185349144871715,4.777392128975087,3.8599669833465975,5.446656604506386,1.4359999999869615
312417.1567,6.555728986458336,5.390962753966453,5.059848094883305,6.09557833377525,1.4369999999762513
312417.1577,8.883206824809195,5.76028422434122,6.0730644169930015,6.47777364729948,1.437999999965541
312417.1587,10.831529700285385,5.8659135623456775,6.873659478277847,6.576060918226577,1.4390000000130385
312417.1597,12.359244722335703,5.711677452823196,7.457062172654846,6.3963355243933036,1.4400000000023283
312417.1607,13.453451658307339,5.324018971324978,7.839613579747261,5.966899775520475,1.440999999991618
312417.1617,14.127927541504175,4.749187778326555,8.055984561982893,5.335711857918462,1.4419999999809079
312417.1627,14.419064096578438,4.048552569188264,8.154749186296574,4.565814781388591,1.4429999999701977
312417.1637,14.380072582103091,3.2924962175180164,8.192561762618233,3.729381064087173,1.4439999999594875
312417.1647,14.074064803078082,2.5534906832662787,8.227524076031276,2.9009415782761594,1.445000000006985
312417.1657,13.566713295580149,1.8990271169346753,8.312410592618376,2.1504447529190687,1.4459999999962747
312417.1667,12.91921937155496,1.3850891014605264,8.488435041280852,1.5368076693042174,1.4469999999855645
312417.1677,12.182272827676607,1.0508024813772372,8.780190223953952,1.1025720408669701,1.4479999999748543
312417.1687,11.39157649809037,0.9147791200334611,9.192279160934069,0.8701703955543951,1.448999999964144
312417.1697,10.565343648574812,0.9735055966014574,9.70799079762317,0.8401514827636183,1.4500000000116415
312417.1707,9.703972900061592,1.2019275978800452,10.290173551614467,0.9915242333509032,1.4510000000009313
312417.1717,8.79188399839428,1.5561661684151373,10.88424447049177,1.284174971515504,1.4519999999902211
312417.1727,7.801280049219569,1.9780940301698553,11.423061739350677,1.6631129037061805,1.452999999979511
312417.1737,6.697409089660861,2.401319170280607,11.833204237500878,2.0641235720139255,1.4539999999688007
312417.1747,5.444748816629965,2.7579864611842893,12.042061780868636,2.420275932990883,1.4549999999580905
312417.1757,4.013447323782449,2.985729472803973,11.985057295667316,2.668648922082612,1.456000000005588
312417.1767,2.3853284555707113,3.034091430659045,11.612305515603438,2.7566253863565486,1.4569999999948777
312417.1777,0.5588149350202398,2.8697876182894713,10.894063526332934,2.647146660449037,1.4579999999841675
312417.1787,-1.4477689216375376,2.4802960470623665,9.824441666488362,2.3224251788685417,1.4589999999734573
312417.1797,-3.5948912749421145,1.8754275663038737,8.423007912793798,1.7857649962715247,1.459999999962747
312417.1807,-5.822681131946875,1.0867245467311406,6.734118899502434,1.0613258672006431,1.4610000000102445
312417.1817,-8.053932320171189,0.1647493660270125,4.82402668988066,0.1918673527943076,1.4619999999995343
312417.1827,-10.198992116927684,-0.8254706580318187,2.7760213475831654,-0.7652944000802798,1.4629999999888241
312417.1837,-12.162096132283676,-1.8103966134218539,0.684054799454319,-1.7437121744764388,1.463999999978114
312417.1847,-13.84856672575698,-2.714749935393328,-1.3545664777028368,-2.674078620792875,1.4649999999674037
312417.1857,-15.172205093109017,-3.4684461122716805,-3.246747410618069,-3.490727175745619,1.4659999999566935
312417.1867,-16.062185575584376,-4.0130208221196755,-4.910736449618501,-4.137729687674434,1.467000000004191
312417.1877,-16.468806648111233,-4.306932320899658,-6.282178153904832,-4.57400184535198,1.4679999999934807
312417.1887,-16.367561737935052,-4.32923726080234,-7.318549137659717,-4.776929448202507,1.4689999999827705
312417.1897,-15.761153667069571,-4.081299312681497,-8.00159977232485,-4.744177781171267,1.4699999999720603
312417.1907,-14.679273190531834,-3.586384846701339,-8.337618572940144,-4.49352796134438,1.4709999999613501
312417.1917,-13.176175415541243,-2.8872081518251713,-8.355546519870193,-4.060780052691591,1.4720000000088476
312417.1927,-11.326296856077782,-2.041689635478405,-8.10317397537691,-3.495953583282526,1.4729999999981374
312417.1937,-9.218340015043772,-1.117364290931339,-7.641833227333727,-2.858182982088768,1.4739999999874271
312417.1947,-6.948393713864621,-0.1850073269735847,-7.0401374845723454,-2.209831929524516,1.474999999976717
312417.1957,-4.612742204058497,0.6878834884779166,-6.367399117265119,-1.6104242714703094,1.4759999999660067
312417.1967,-2.3010363145953963,1.4431005566725732,-5.687378436835397,-1.1110028218072463,1.4769999999552965
312417.1977,-0.09045383776923506,2.0366420535721637,-5.052968031255326,-0.7494798738083385,1.478000000002794
312417.1987,1.9586310791567718,2.442053188226855,-4.50231173632033,-0.5474394291869871,1.4789999999920838
312417.1997,3.8051076371540065,2.6518782333368094,-4.056702752224871,-0.5087014948979491,1.4799999999813735
312417.2007,5.4275476607242705,2.6771018921490115,-3.7204180049667137,-0.6197783005314357,1.4809999999706633
312417.2017,6.822622497252742,2.5446637575734274,-3.4824445882923767,-0.852159023852536,1.4819999999599531
312417.2027,8.001757586183412,2.2933260400815163,-3.3198592770308664,-1.1661729212308056,1.4830000000074506
312417.2037,8.986440971987985,1.968342740822432,-3.2024532203487737,-1.51601934117912,1.4839999999967404
312417.2047,9.80273491040002,1.6155011904230474,-3.0980678808296376,-1.8554331512440319,1.4849999999860302
312417.2057,10.475615996488232,1.2751720109749451,-2.978037626958486,-2.1433877197665008,1.48599999997532
312417.2067,11.02378134154021,0.9770044490572175,-2.8221260920671942,-2.3492315377042874,1.4869999999646097
312417.2077,11.455505074294228,0.7358404080521458,-2.622398216141345,-2.456709617304851,1.4880000000121072
312417.2087,11.766016207266324,0.549298528243686,-2.3855822134202946,-2.466431652383752,1.489000000001397
312417.2097,11.936707065345148,0.3973112898818096,-2.133634233130273,-2.396504684049219,1.4899999999906868
312417.2107,11.93628728020897,0.24369996012764025,-1.9024072510699206,-2.2812332938464452,1.4909999999799766
312417.2117,11.723791343610985,0.039663896863866226,-1.7385257472763642,-2.167986760472379,1.4919999999692664
312417.2127,11.253148756010209,-0.2711370287532757,-1.6947588246931817,-2.112520608087646,1.4929999999585561
312417.2137,10.478855040539282,-0.746395571813715,-1.8243472726125884,-2.1732007460071014,1.4940000000060536
312417.2147,9.362156714206803,-1.4384747893549867,-2.174858094875305,-2.4046957784200793,1.4949999999953434
312417.2157,7.877096643088581,-2.387900109134133,-2.7822010276015057,-2.851765109568469,1.4959999999846332
312417.2167,6.015765209834235,-3.617690661552581,-3.6654390098688023,-3.5437706719506967,1.496999999973923
312417.2177,3.7921680433436484,-5.129123885932969,-4.822958181408627,-4.490478036189836,1.4979999999632128
312417.2187,1.2442467649561737,-6.8993971672743895,-6.230438844226056,-5.679594041132592,1.4990000000107102
312417.2197,-1.5662366740748517,-8.881472948711677,-7.8408987850373455,-7.0763242324042945,1.5
312417.2207,-4.556035793443459,-11.006186412687631,-9.586880874139645,-8.625040140912413,1.5009999999892898
312417.2217,-7.624842056414216,-13.186477468079493,-11.384647404737244,-10.252942553584148,1.5019999999785796
312417.2227,-10.661453195743608,-15.323402531801948,-13.140044786823932,-11.875412334128104,1.5029999999678694
312417.2237,-13.551169587039931,-17.31340657577593,-14.75553361297757,-13.40257412184753,1.5039999999571592
312417.2247,-16.18377191514267,-19.05620929407336,-16.137757565737704,-14.746476751612494,1.5050000000046566
312417.2257,-18.46136554915313,-20.462593565259283,-17.204962419696276,-15.828229566925948,1.5059999999939464
312417.2267,-20.30537751148214,-21.461386307817587,-17.8935800561469,-16.584432506624207,1.5069999999832362
312417.2277,-21.662061247394867,-22.004991487672186,-18.16336211307232,-16.972300342264663,1.507999999972526
312417.2287,-22.505996411943247,-22.072966013915902,-18.000577369758027,-16.973001923978664,1.5089999999618158
312417.2297,-22.841253286476878,-21.673309182764015,-17.418964106099967,-16.592902294785134,1.5100000000093132
312417.2307,-22.700106943173505,-20.841348074205005,-16.45833669223719,-15.862593041168022,1.510999999998603
312417.2317,-22.13941431061811,-19.63632464040241,-15.180964694580227,-14.833805243307875,1.5119999999878928
312417.2327,-21.234985953205758,-18.136003770452962,-13.666051811017102,-13.574499697744926,1.5129999999771826
312417.2337,-20.074472560936975,-16.42980491294351,-12.00282082189741,-12.162601338915028,1.5139999999664724
312417.2347,-18.749425606200592,-14.611095326078274,-10.282842134786057,-10.67897230364184,1.5149999999557622
312417.2357,-17.347268746376603,-12.76935774571692,-8.592314585130943,-9.200288498674537,1.5160000000032596
312417.2367,-15.943923691554673,-10.982952111707737,-7.00501086936787,-7.79249100255239,1.5169999999925494
312417.2377,-14.597770502438237,-9.313129415360882,-5.576535738805496,-6.505425510795521,1.5179999999818392
312417.2387,-13.345493563012665,-7.799831769656686,-4.340418835400217,-5.369165933894441,1.518999999971129
312417.2397,-12.200183002399992,-6.459638518896116,-3.3063877776594652,-4.3923535229922,1.5199999999604188
312417.2407,-11.151844460458179,-5.286010503630942,-2.4609576591162576,-3.5626865001285233,1.5210000000079162
312417.2417,-10.170238600364744,-4.251763595405512,-1.770250625834294,-2.84948616134853,1.521999999997206
312417.2427,-9.209747920410482,-3.3134896855147513,-1.184745110971482,-2.208064086563016,1.5229999999864958
312417.2437,-8.215773761309046,-2.417459004940518,-0.645469341451455,-1.5854409750867393,1.5239999999757856
312417.2447,-7.13201971493081,-1.506399705739407,-0.0910158585911762,-0.9268376350289704,1.5249999999650754
312417.2457,-5.907933080291874,-0.5264722454234371,0.5353235344989732,-0.18228540618750652,1.5260000000125729
312417.2467,-4.505561764414415,0.5662553380266071,1.2790121529146374,0.6873061098580878,1.5270000000018626
312417.2477,-2.9051414883067586,1.8004688525484702,2.1689618803671986,1.7052308151413762,1.5279999999911524
312417.2487,-1.1088518058605938,3.185925353736809,3.213991955488029,2.8757095440659777,1.5289999999804422
312417.2497,0.8576426455393618,4.71177730465717,4.401404326229801,4.182584579661461,1.529999999969732
312417.2507,2.9460342360779865,6.347052324877402,5.697817188464825,5.5901197295241385,1.5309999999590218
312417.2517,5.088534996839494,8.043221908990015,7.052174524838882,7.045832327601817,1.5320000000065193
312417.2527,7.203071687160327,9.738584794208741,8.400633321994212,8.485082620313136,1.532999999995809
312417.2537,9.200027487851576,11.364011156139126,9.67284283278079,9.836971951770908,1.5339999999850988
312417.2547,10.989893678500776,12.849460151764236,10.798990177358672,11.030971040152663,1.5349999999743886
312417.2557,12.491105117413829,14.130608604887481,11.716907595578547,12.003626213781773,1.5359999999636784
312417.2567,13.637313713490917,15.154920105911026,12.378526698659227,12.704681995967698,1.5370000000111759
312417.2577,14.383406199637273,15.88654219481426,12.755025330737245,13.102013887932015,1.5380000000004657
312417.2587,14.709691298386577,16.309538721678507,12.840137499712807,13.184880241338407,1.5389999999897555
312417.2597,14.623855295257872,16.42913301346006,12.651274315871383,12.965165541397809,1.5399999999790452
312417.2607,14.160497279573656,16.270838348975985,12.228316866372047,12.47648329551317,1.540999999968335
312417.2617,13.378285376487852,15.877565490232364,11.630169826735028,11.771215904454202,1.5419999999576248
312417.2627,12.355000988266765,15.305001443371834,10.929385230943877,10.915770920906308,1.5430000000051223
312417.2637,11.180937653980338,14.615728893436032,10.205357691688652,9.9845081856185,1.543999999994412
312417.2647,9.951275447438096,13.872684405896045,9.536736708743296,9.052923296026158,1.5449999999837019
312417.2657,8.758146094276018,13.132622636226726,8.993784304689521,8.19074682173853,1.5459999999729916
312417.2667,7.6831292645144265,12.440256423234564,8.63141880075537,7.455628311828367,1.5469999999622814
312417.2677,6.790874543654951,11.823678313889278,8.483626564362503,6.888018402013997,1.5480000000097789
312417.2687,6.124431063924547,11.291543948358575,8.559798415614155,6.507746582849788,1.5489999999990687
312417.2697,5.702698790594661,10.832324017205094,8.843367875303402,6.3126276688677745,1.5499999999883585
312417.2707,5.520208463337431,10.415726210668618,9.292911655761499,6.279232732528655,1.5509999999776483
312417.2717,5.549211389730139,9.996171892191557,9.845639456997308,6.365749471665017,1.551999999966938
312417.2727,5.74383764658531,9.518005496029208,10.422972587598037,6.516653233014506,1.5529999999562278
312417.2737,6.045883358503615,8.921938292169235,10.937711009672148,6.668733102650947,1.5540000000037253
312417.2747,6.39163370674166,8.152099659258644,11.302135299789375,6.757884851657771,1.554999999993015
312417.2757,6.719032955347181,7.163001174181782,11.436298423270996,6.726007030229918,1.5559999999823049
312417.2767,6.974485084363286,5.925718559994822,11.275740930773514,6.527325495629156,1.5569999999715947
312417.2777,7.118610989672132,4.432664128881184,10.777914248908848,6.13352620925216,1.5579999999608845
312417.2787,7.130396212174683,2.7004514846745606,9.926715259587986,5.537190930563098,1.559000000008382
312417.2797,7.009325986345726,0.770532576083618,8.734710001712312,4.75319429904893,1.5599999999976717
312417.2807,6.775305939853645,-1.292502417140189,7.2428383912073215,3.8179177986993267,1.5609999999869615
312417.2817,6.46638720747916,-3.404849691658646,5.517624917739449,2.7863471100047534,1.5619999999762513
312417.2827,6.134532446622454,-5.469315681871277,3.6461501570258013,1.7273239016507864,1.562999999965541
312417.2837,5.8398529952771465,-7.382532501635311,1.7292428329210052,0.7174013791281675,1.5640000000130385
312417.2847,5.643898336702734,-9.04292259750786,-0.12648725753746448,-0.16611235490698553,1.5650000000023283
312417.2857,5.602672501766752,-10.358696290207671,-1.8170538880733516,-0.8522608658268336,1.565999999991618
312417.2867,5.760079071846552,-11.255159812823537,-3.249182372818946,-1.2830194399936585,1.5669999999809079
312417.2877,6.142454574836058,-11.680673872723036,-4.347365155174725,-1.4187233266548382,1.5679999999701977
312417.2887,6.754743564347554,-11.610727669485712,-5.059274838446508,-1.2418302636662086,1.5689999999594875
312417.2897,7.5787081143690695,-11.049768676715559,-5.359086364432244,-0.7586641273834622,1.570000000006985
312417.2907,8.573365684872138,-10.030637472252621,-5.248462283595042,0.001019037959273191,1.5709999999962747
312417.2917,9.67763185389628,-8.611679392660463,-4.755177861087096,0.9865922029209309,1.5719999999855645
312417.2927,10.814929582612185,-6.871819436940063,-3.9295844837519502,2.130991781582814,1.5729999999748543
312417.2937,11.899335481851777,-4.9040730939860895,-2.839309092610805,3.35659313079519,1.573999999964144
312417.2947,12.842684609499496,-2.80810585329456,-1.5627451251488833,4.581959326795425,1.5750000000116415
312417.2957,13.561963082718476,-0.6825348262379829,-0.18199186479862645,5.728815454651897,1.5760000000009313
312417.2967,13.986291073944635,1.3823203042874077,1.2240650641404083,6.728583914963817,1.5769999999902211
312417.2977,14.062839962336882,3.3105838280675592,2.585871779546496,7.527864161231707,1.577999999979511
312417.2987,13.761132255879682,5.045331105789261,3.8479592939587812,8.092347909207241,1.5789999999688007
312417.2997,13.075330882361222,6.551086063114371,4.9719190131054996,8.408817458786906,1.5799999999580905
312417.3007,12.024319894983565,7.8141397239387995,5.937377128750599,8.485064831237993,1.581000000005588
312417.3017,10.649592257088226,8.840735479503701,6.740953005355122,8.347774211778642,1.5819999999948777
312417.3027,9.011171155178602,9.65337502313076,7.393393527418222,8.038609577705802,1.5829999999841675
312417.3037,7.181978592377499,10.285679980408899,7.915259921649776,7.608923856658941,1.5839999999734573
312417.3047,5.2412105747804665,10.776380662769787,8.331687526954061,7.113638477681707,1.584999999962747
312417.3057,3.2673679372602007,11.163081955326364,8.66682825184442,6.6049199014116535,1.5860000000102445
312417.3067,1.3316172333399676,11.476469731841219,8.938611471463949,6.12629522029212,1.5869999999995343
312417.3077,-0.5078850125483638,11.735568420407235,9.15441967841383,5.707800919492848,1.5879999999888241
312417.3087,-2.2101745921750537,11.944546983449166,9.308174672695701,5.362652348575185,1.588999999978114
312417.3097,-3.7537930586671333,12.09140813261967,9.379178912055913,5.085767083370208,1.5899999999674037
312417.3107,-5.13704755747933,12.148700380291704,9.332870333083354,4.8542885454946845,1.5909999999566935
312417.3117,-6.376239639902869,12.076184023707684,9.123446454733473,4.630055532896977,1.592000000004191
312417.3127,-7.502089051639486,11.82518110807078,8.69811541642972,4.363768555099562,1.5929999999934807
312417.3137,-8.554757642009259,11.34416576899272,8.002557822192818,4.000434274496157,1.5939999999827705
312417.3147,-9.578015658773612,10.585022300565928,6.987051411410398,3.485541608173419,1.5949999999720603
312417.3157,-10.613174233162082,9.509326571423749,5.612633970282629,2.77134964899133,1.5959999999613501
312417.3167,-11.69342585898412,8.09399906025642,3.856666292778662,1.82265563198253,1.5970000000088476
312417.3177,-12.83918753723696,6.33573546934609,1.7172078334221497,0.6214617338735532,1.5979999999981374
312417.3187,-14.054933920021938,4.253737835020846,-0.784272046126945,-0.8299325854249886,1.5989999999874271
312417.3197,-15.32785119057979,1.890433674560866,-3.6021655979266343,-2.507731490178784,1.599999999976717
312417.3207,-16.628452428150812,-0.6899333148751348,-6.668107905615337,-4.367469985071177,1.6009999999660067
312417.3217,-17.913091033404033,-3.40474953915586,-9.894389636862364,-6.346801933377284,1.6019999999552965
312417.3227,-19.128111061197373,-6.158223921457616,-13.179124802683141,-8.369991586705304,1.603000000002794
312417.3237,-20.21520201755579,-8.847864452916994,-16.412725068287152,-10.353685244285687,1.6039999999920838
312417.3247,-21.117398194563993,-11.371650846867212,-19.48510374946595,-12.213415593006399,1.6049999999813735
312417.3257,-21.785091946029226,-13.635246732595423,-22.29296049234152,-13.87022138845146,1.6059999999706633
312417.3267,-22.181423788489425,-15.55859051301211,-24.746488949664656,-15.25675619799253,1.6069999999599531
312417.3277,-22.286470777484777,-17.081264287195104,-26.774905425141572,-16.32231267836122,1.6080000000074506
312417.3287,-22.099772670227004,-18.166159094423374,-28.33031097975367,-17.03629793771003,1.6089999999967404
312417.3297,-21.640901372802453,-18.80112038097764,-29.38956157522948,-17.389850004289855,1.6099999999860302
312417.3307,-20.94797666168578,-18.998453620452775,-29.95401445423153,-17.395469876963357,1.61099999997532
312417.3317,-20.07424050948008,-18.79237703696652,-30.047224979307455,-17.0847396993283,1.6119999999646097
312417.3327,-19.08300258490126,-18.234705920059437,-29.710866187665154,-16.504385777816296,1.6130000000121072
312417.3337,-18.041440474129285,-17.38922156443877,-28.99931375349245,-15.711106751933203,1.614000000001397
312417.3347,-17.013862515352034,-16.325300785712642,-27.97346498351567,-14.765706171714045,1.6149999999906868
312417.3357,-16.055106013513708,-15.111447155543061,-26.69442939313455,-13.727133238441919,1.6159999999799766
312417.3367,-15.204741999304776,-13.80936619865668,-25.21773344408437,-12.647039132602906,1.6169999999692664
312417.3377,-14.482689158720707,-12.46916379729673,-23.588622624918926,-11.565398855641169,1.6179999999585561
312417.3387,-13.8867102599622,-11.12612632176327,-21.838926079421267,-10.50763560940012,1.6190000000060536
312417.3397,-13.39208656680221,-9.79937465556303,-19.985784133106613,-9.483527715328687,1.6199999999953434
312417.3407,-12.953556447105784,-8.492488961864185,-18.032343732341435,-8.487992632285232,1.6209999999846332
312417.3417,-12.509383963841211,-7.195996292647112,-15.970320482261831,-7.5036473233756595,1.621999999973923
312417.3427,-11.987213195117857,-5.891419481662938,-13.784129304042304,-6.504858625742159,1.6229999999632128
312417.3437,-11.311184997498467,-4.556422622416693,-11.456118506638493,-5.462840049499077,1.6240000000107102
312417.3447,-10.40966260736795,-3.1704722461406845,-8.972321217036148,-4.351238458416416,1.625
312417.3457,-9.22284390274038,-1.7203758799744824,-6.328076037061985,-3.151596900496804,1.6259999999892898
312417.3467,-7.709538396864884,-0.2050669689449889,-3.5328721155055347,-1.858084496302753,1.6269999999785796
312417.3477,-5.852456513657014,1.3609232398768605,-0.6138427068008783,-0.480950684509714,1.6279999999678694
312417.3487,-3.6614910924489044,2.9457371357868753,2.382540600119009,0.9517169174331563,1.6289999999571592
312417.3497,-1.1746539597326489,4.500461703161596,5.390845685586301,2.3941859567021737,1.6300000000046566
312417.3507,1.5434535521989876,5.9614531724433455,8.329197266460636,3.7852854061849635,1.6309999999939464
312417.3517,4.405528642451599,7.254559436141316,11.103786136749724,5.052483063836472,1.6319999999832362
312417.3527,7.307486767038844,8.300886885493906,13.615018445267088,6.117501796711281,1.632999999972526
312417.3537,10.135897020534104,9.023593202910734,15.764780277691827,6.902980201140953,1.6339999999618158
312417.3547,12.776276255258614,9.35507137356276,17.4641684160261,7.33956768468581,1.6350000000093132
312417.3557,15.121505857171552,9.243834621937898,18.640974892860136,7.372785984627886,1.635999999998603
312417.3567,17.079625186625627,8.660423143310831,19.24621761598983,6.968994992920507,1.6369999999878928
312417.3577,18.580315918956142,7.601730930354554,19.2590821430226,6.1198704772871455,1.6379999999771826
312417.3587,19.579516048108,6.093287792375836,18.689774275902153,4.844928714202925,1.6389999999664724
312417.3597,20.06177915055569,4.189215128816783,17.579967157603807,3.1918064181984382,1.6399999999557622
312417.3607,20.04020664776304,1.9697868544214912,16.000742788011234,1.234207409049358,1.6410000000032596
312417.3617,19.55400788920248,-0.4632511554257899,14.048155937683443,-0.932358989050054,1.6419999999925494
312417.3627,18.663963138399595,-2.993239856187086,11.836766689026302,-3.196719064811774,1.6429999999818392
312417.3637,17.446256913799612,-5.496503219653632,9.491675474608238,-5.439552073968344,1.643999999971129
312417.3647,15.985295279669193,-7.850912813392072,7.139733557531866,-7.541651951210665,1.6449999999604188
312417.3657,14.366206769822815,-9.944385544600191,4.900679039052877,-9.392231176338418,1.6460000000079162
312417.3667,12.66774467009644,-11.682581613698286,2.878956201153915,-10.896559329807516,1.646999999997206
312417.3677,10.956257006922048,-12.99514051382564,1.1569134378130226,-11.982289239721883,1.6479999999864958
312417.3687,9.2812751505581,-13.83992564412896,-0.21005193823263804,-12.60394389276793,1.6489999999757856
312417.3697,7.673104013919308,-14.20493023427147,-1.1960130737684493,-12.745205987870616,1.6499999999650754
312417.3707,6.142593058635147,-14.107711495019386,-1.8045228782087737,-12.418853047435185,1.6510000000125729
312417.3717,4.683047802244179,-13.592445806459557,-2.066168580751668,-11.664395180240314,1.6520000000018626
312417.3727,3.2740278279297446,-12.724913797815827,-2.033949549092725,-10.543679503896728,1.6529999999911524
312417.3737,1.8865903747730937,-11.585909789531282,-1.7769510355045801,-9.13490523197642,1.6539999999804422
312417.3747,0.4893966982124555,-10.263707646385095,-1.372934802415081,-7.525629522995749,1.654999999969732
312417.3757,-0.944984659864396,-8.846291685794128,-0.9005556746485976,-5.805423695743449,1.6559999999590218
312417.3767,-2.434259772292373,-7.414069878805333,-0.4319330149738293,-4.058855192008709,1.6570000000065193
312417.3777,-3.981706467164279,-6.033726756255232,-0.026256591926846356,-2.359421784749851,1.657999999995809
312417.3787,-5.573101846293329,-4.753751408577127,0.27500729683575437,-0.7649563499500791,1.6589999999850988
312417.3797,-7.175628980381165,-3.6020039833432955,0.4509096880594793,0.6851358440810702,1.6599999999743886
312417.3807,-8.738910387877551,-2.585479191202876,0.5016150504428426,1.970634170355543,1.6609999999636784
312417.3817,-10.198099835432958,-1.692207714658836,0.44681978887737783,3.0892832276449242,1.6620000000111759
312417.3827,-11.478754471775886,-0.8950274119697819,0.32222578916095224,4.053822129236919,1.6630000000004657
312417.3837,-12.503027078225298,-0.15677621317750795,0.1744879421664819,4.887657819061867,1.6639999999897555
312417.3847,-13.19658133325721,0.5636749323168501,0.05519676048255778,5.619705517713582,1.6649999999790452
312417.3857,-13.495555008704333,1.3052049722417753,0.014541730840102917,6.278992449392903,1.665999999968335
312417.3867,-13.352884692987192,2.0987055439256928,0.09532018235520039,6.889632474614449,1.6669999999576248
312417.3877,-12.743362156793143,2.9624292049007983,0.3279089355359434,7.4667284644105445,1.6680000000051223
312417.3887,-11.666911346043893,3.8989098643118645,0.7267071531232661,8.013651716182391,1.668999999994412
312417.3897,-10.149744579815687,4.893775158840334,1.2883999901020522,8.520994587422477,1.6699999999837019
312417.3907,-8.243260231303577,5.916572131971715,1.992200068174747,8.96730949290722,1.6709999999729916
312417.3917,-6.020762002451791,6.923517730384099,2.8020169756634044,9.321553116266601,1.6719999999622814
312417.3927,-3.572290489917851,7.861885316823755,3.6703047434766853,9.546968878674043,1.6730000000097789
312417.3937,-0.9980403967772925,8.67556762064315,4.543163666699428,9.605982282659449,1.6739999999990687
312417.3947,1.599026492641479,9.311232354775152,5.366143307054198,9.46556887310024,1.6749999999883585
312417.3957,4.1206850654359055,9.724421536423218,6.090120966540459,9.102495054784734,1.6759999999776483
312417.3967,6.480369492818132,9.884945917223929,6.676621596276343,8.50783417822662,1.676999999966938
312417.3977,8.608874598806691,9.780991915240463,7.102001800162763,7.690224294370835,1.6779999999562278
312417.3987,10.458316162494008,9.4214835984833,7.360036611539412,6.677453738257046,1.6790000000037253
312417.3997,12.004001377376618,8.836414280859719,7.462611430163523,5.516124582604275,1.679999999993015
312417.4007,13.244065744912657,8.075064184235748,7.438416498022187,4.26933589443308,1.6809999999823049
312417.4017,14.196951623340302,7.202232439108981,7.3297480113900395,3.0125296454135637,1.6819999999715947
312417.4027,14.897014983291934,6.292812467575451,7.1877176547959785,1.8278320809934558,1.6829999999608845
312417.4037,15.388729862824043,5.425209588240539,7.0663410974531855,0.7973833276564739,1.684000000008382
312417.4047,15.720096561046478,4.674221582018724,7.016098740926741,-0.0037381523697332833,1.6849999999976717
312417.4057,15.935936299372054,4.104064708809106,7.077626197552285,-0.5143336741050165,1.6859999999869615
312417.4067,16.07176431948974,3.762222891252546,7.276190830496653,-0.6929903956249271,1.6869999999762513
312417.4077,16.148874204167214,3.6747266113739663,7.6175438637456745,-0.5224924947849863,1.687999999965541
312417.4087,16.17114434858555,3.843337125908939,8.085611231043123,-0.012283810269653566,1.6890000000130385
312417.4097,16.123904886816952,4.244933382219916,8.642312533459148,0.8012970959105944,1.6900000000023283
312417.4107,15.974996901234844,4.833190642099398,9.229592999732795,1.857084977417022,1.690999999991618
312417.4117,15.677935669309118,5.542421412127192,9.773538066422109,3.073321509322463,1.6919999999809079
312417.4127,15.176877652639414,6.293241982335698,10.190235140080965,4.35371472130891,1.6929999999701977
312417.4137,14.412907772458517,6.999551809676158,10.392872387689906,5.594812597641453,1.6939999999594875
312417.4147,13.331027309200485,7.576185287579251,10.299437262756525,6.694054132251457,1.695000000006985
312417.4157,11.887147003762502,7.946528607528286,9.84031058057127,7.557795083113718,1.6959999999962747
312417.4167,10.054382219529561,8.049395066788767,8.965052155280308,8.108605138843034,1.6969999999855645
312417.4177,7.8280082939950315,7.84452041600891,7.647741649399121,8.291198430409064,1.6979999999748543
312417.4187,5.22855866490125,7.316169243055104,5.890367156055979,8.076484229005718,1.698999999964144
312417.4197,2.302724004791216,6.474521603157724,3.7239319640165602,7.463397476460975,1.7000000000116415
312417.4207,-0.8780795832396633,5.354719040428527,1.207159979566792,6.478373104537495,1.7010000000009313
312417.4217,-4.22138166544746,4.013670620593647,-1.577097723084422,5.172544491237107,1.7019999999902211
312417.4227,-7.619260656111114,2.52493128446502,-4.527440105926605,3.6169542889764084,1.702999999979511
312417.4237,-10.955385352984704,0.972146331071611,-7.530979175739842,1.8962454724057634,1.7039999999688007
312417.4247,-14.112861928007488,-0.5583103579411204,-10.471255428833757,0.10143474866683898,1.7049999999580905
312417.4257,-16.982175287648992,-1.984803539710631,-13.236297387811772,-1.6775532219771412,1.706000000005588
312417.4267,-19.468504262402167,-3.237302906603412,-15.726109529489584,-3.3589011047495942,1.7069999999948777
312417.4277,-21.497750384566764,-4.26300465831961,-17.858933782242495,-4.874828585209614,1.7079999999841675
312417.4287,-23.020744266580326,-5.030189122828802,-19.57575287309545,-6.1759162790947775,1.7089999999734573
312417.4297,-24.015269722845026,-5.529969618904684,-20.84267706432416,-7.2334674156773655,1.709999999962747
312417.4307,-24.485756604358492,-5.775795015952839,-21.651062288521107,-8.039747382855206,1.7110000000102445
312417.4317,-24.460718223257672,-5.800788351743561,-22.01542719017713,-8.606151270906796,1.7119999999995343
312417.4327,-23.98822620250073,-5.653214982799995,-21.969447668288346,-8.95955260143982,1.7129999999888241
312417.4337,-23.129903306366465,-5.390555489891566,-21.56048957981299,-9.137262692513199,1.713999999978114
312417.4347,-21.954054838305147,-5.07279323075857,-20.843275553016102,-9.18116246398362,1.7149999999674037
312417.4357,-20.528637738072305,-4.755600905819266,-19.873357216148733,-9.131644130595696,1.7159999999566935
312417.4367,-18.914775797926353,-4.484117538843068,-18.701072310478654,-9.022011940035304,1.717000000004191
312417.4377,-17.161468479211134,-4.28794621995712,-17.366606487299343,-8.873937941326782,1.7179999999934807
312417.4387,-15.30201559336384,-4.17787981653633,-15.896658140548672,-8.69445613411492,1.7189999999827705
312417.4397,-13.352502911990634,-4.144688708791501,-14.303033564370978,-8.474817504714142,1.7199999999720603
312417.4407,-11.312482041639592,-4.160098433536317,-12.583296133430963,-8.19133538626163,1.7209999999613501
312417.4417,-9.167752544238489,-4.179866150854543,-10.723377409735486,-7.8081444413885155,1.7220000000088476
312417.4427,-6.894937610244718,-4.1486545850819425,-8.701851646485913,-7.281597801392419,1.7229999999981374
312417.4437,-4.467358114202215,-4.006221203338107,-6.495398753869225,-6.5658552377103945,1.7239999999874271
312417.4447,-1.8615722054976225,-3.6943066947876693,-4.084852134034597,-5.619087771139564,1.724999999976717
312417.4457,0.9361274379876047,-3.163533508443764,-1.4611598941304558,-4.409653593086104,1.7259999999660067
312417.4467,3.9239712177232384,-2.379619594851815,1.369412189517482,-2.921593744190645,1.7269999999552965
312417.4477,7.080371073938654,-1.3282752421337336,4.381439666380812,-1.158854531879855,1.728000000002794
312417.4487,10.361494259605056,-0.018275955630005895,7.528334571421422,0.852238362028322,1.7289999999920838
312417.4497,13.701082982532522,1.5176204658004886,10.742472452056687,3.06256312243769,1.7299999999813735
312417.4507,17.012631980352964,3.2240362596811165,13.937536942933935,5.401953522233978,1.7309999999706633
312417.4517,20.19380428321924,5.026518118389061,17.012946675677018,7.783019764411016,1.7319999999599531
312417.4527,23.132742919695644,6.836954402625586,19.86001932624315,10.10673660171822,1.7330000000074506
312417.4537,25.715744917919928,8.560373573527539,22.369349290528447,12.269322256278251,1.7339999999967404
312417.4547,27.83562244631615,10.102497507770327,24.438746536836973,14.169802021777569,1.7349999999860302
312417.4557,29.39999829295594,11.377349277499759,25.98101749568308,15.717578543440009,1.73599999997532
312417.4567,30.338776863223636,12.31420875158815,26.930871211641282,16.839323751739915,1.7369999999646097
312417.4577,30.61009828106227,12.863271510965243,27.250305441288173,17.484566048621087,1.7380000000121072
312417.4587,30.204215771579538,12.999490857295308,26.931961219623222,17.62946496899744,1.739000000001397
312417.4597,29.144922625169738,12.724256831205716,26.00011782387477,17.278432670426167,1.7399999999906868
312417.4607,27.488376867894175,12.064772985972823,24.509215396673785,16.463461028832427,1.7409999999799766
312417.4617,25.31940804352003,11.071210879451337,22.54001901509631,15.241225512498442,1.7419999999692664
312417.4627,22.745618665843008,9.811932414157166,20.19375391662775,13.688241835919833,1.7429999999585561
312417.4637,19.889791208088628,8.36725082523234,17.584726204524816,11.894528935691778,1.7440000000060536
312417.4647,16.881261215380523,6.822334843256708,14.832079038986162,9.956365080860236,1.7449999999953434
312417.4657,13.847004292067894,5.25993460569801,12.051408269088702,7.968800344788073,1.7459999999846332
312417.4667,10.90320147164466,3.7536154565977244,9.34696690009606,6.0186012479897935,1.746999999973923
312417.4677,8.147992798469547,2.362126630744205,6.805124612290285,4.178251417843111,1.7479999999632128
312417.4687,5.656008697476981,1.125412292220323,4.4896232795499404,2.5015211843600413,1.7490000000107102
312417.4697,3.4750950062979498,0.06260470296918712,2.438994569156306,1.0209604344238286,1.75
312417.4707,1.625437560679607,-0.8278597026319824,0.6662984373857502,-0.25252136045637447,1.7509999999892898
312417.4717,0.10106646135564455,-1.5660710474825181,-0.8388781299585484,-1.328027405109649,1.7519999999785796
312417.4727,-1.1264995697484619,-2.186694424042793,-2.1064332274654625,-2.2312339851549057,1.7529999999678694
312417.4737,-2.1029010014303426,-2.7336789796099548,-3.1802253426735794,-2.9995451724489977,1.7539999999571592
312417.4747,-2.884457170534515,-3.254196985798765,-4.111599130877178,-3.6763758138884786,1.7550000000046566
312417.4757,-3.5312261483892,-3.792450627250337,-4.952624960275482,-4.305170050750305,1.7559999999939464
312417.4767,-4.100295210337739,-4.38398845920607,-5.749726050910386,-4.923774701898585,1.7569999999832362
312417.4777,-4.639946722160731,-5.051113559005253,-6.538311782127025,-5.5597372119146735,1.757999999972526
312417.4787,-5.185236439815913,-5.79984774437899,-7.338920919641798,-6.226992069852767,1.7589999999618158
312417.4797,-5.755362698130539,-6.6187529415776805,-8.15521607496245,-6.924248714006222,1.7600000000093132
312417.4807,-6.353012120753682,-7.479718408698979,-8.973977179681059,-7.635213412280051,1.760999999998603
312417.4817,-6.965659922984589,-8.340620411181355,-9.767036572447935,-8.33058574839893,1.7619999999878928
312417.4827,-7.568601480232193,-9.149569348449809,-10.494901884550416,-8.971586472334282,1.7629999999771826
312417.4837,-8.129316684993952,-9.850297363983415,-11.111644676041752,-9.514616011763772,1.7639999999664724
312417.4847,-8.612637030111014,-10.38812324772211,-11.570509198521416,-9.916527591471526,1.7649999999557622
312417.4857,-8.986110180812883,-10.715872475926464,-11.829628690893756,-10.139937100089792,1.7660000000032596
312417.4867,-9.224945154214435,-10.79913431904397,-11.857232510148696,-10.157989614978987,1.7669999999925494
312417.4877,-9.315973825555545,-10.620304582444351,-11.635786137881068,-9.958059900738418,1.7679999999818392
312417.4887,-9.260175580354161,-10.180984995724058,-11.16462140617913,-9.543975312186102,1.768999999971129
312417.4897,-9.073469916768104,-9.502476242888923,-10.460774259908868,-8.936503056039118,1.7699999999604188
312417.4907,-8.785670360835006,-8.624294501388235,-9.55793570034934,-8.172024144476337,1.7710000000079162
312417.4917,-8.437692815653506,-7.600841820996893,-8.503619126737965,-7.299505357492205,1.771999999997206
312417.4927,-8.077301930740663,-6.496548644131028,-7.354834103745247,-6.376058990350994,1.7729999999864958
312417.4937,-7.753840690157193,-5.379963393179258,-6.172713727054978,-5.461529998452701,1.7739999999757856
312417.4947,-7.512504513833079,-4.317373572843599,-5.0166543066687606,-4.612656102957645,1.7749999999650754
312417.4957,-7.388779653374754,-3.366594168203962,-3.938580673048914,-3.8773975893791035,1.7760000000125729
312417.4967,-7.403660241146518,-2.5715469473224304,-2.9779423679625556,-3.2900244792332556,1.7770000000018626
312417.4977,-7.56018915535997,-1.9581795938620432,-2.1579759107475343,-2.867480053361345,1.7779999999911524
312417.4987,-7.841741468205105,-1.5321436120252827,-1.4836430476477867,-2.6074178917022977,1.7789999999804422
312417.4997,-8.212298020014133,-1.278477387768716,-0.9414867587553937,-2.488146532717305,1.779999999969732
312417.5007,-8.618757558290477,-1.1633426430263525,-0.5014525023612646,-2.470527571558481,1.7809999999590218
312417.5017,-8.995128742122546,-1.1376583578115285,-0.12052108619546162,-2.501678114570127,1.7820000000065193
312417.5027,-9.268248912309199,-1.1422862897987087,0.2521882025749836,-2.5201463360240473,1.782999999995809
312417.5037,-9.36451449601216,-1.1142653827530076,0.6693411039227397,-2.4620776169204412,1.7839999999850988
312417.5047,-9.216994781454268,-0.9934843058562326,1.1789429270197658,-2.2677835893599254,1.7849999999743886
312417.5057,-8.772248335616313,-0.7291330251666771,1.81817688839196,-1.8880780863140378,1.7859999999636784
312417.5067,-7.996175373386957,-0.2852907467844265,2.608162895800919,-1.2897576771231403,1.7870000000111759
312417.5077,-6.87831920012256,0.3549125022089096,3.550193845479232,-0.459679248448594,1.7880000000004657
312417.5087,-5.4341682173515045,1.1869875151798974,4.6238707053481845,0.5929839424415635,1.7889999999897555
312417.5097,-3.705193861979409,2.184878874380911,5.787378473376604,1.836555416725307,1.7899999999790452
312417.5107,-1.7565716447945936,3.3029030364647465,6.979939683180592,3.2187890864838624,1.790999999968335
312417.5117,0.3272482775562975,4.479665345170337,8.12627030228501,4.67077164371431,1.7919999999576248
312417.5127,2.4487491109620305,5.643594660660181,9.142665201329317,6.112452253710178,1.7930000000051223
312417.5137,4.5047905430591415,6.719573185074879,9.944176180590555,7.459299948792449,1.793999999994412
312417.5147,6.394622635881243,7.636027868681933,10.452231006798284,8.629478117248745,1.7949999999837019
312417.5157,8.02774798520922,8.33179959655953,10.601988512000986,9.550872558342459,1.7959999999729916
312417.5167,9.33092010139219,8.76212237471332,10.348738177588825,10.167320065062764,1.7969999999622814
312417.5177,10.253644343223806,8.903125723141564,9.67273201467682,10.443457597634836,1.7980000000097789
312417.5187,10.771686716078744,8.754411882594272,8.58197485582493,10.367740940819788,1.7989999999990687
312417.5197,10.888282213838403,8.339442083593365,7.112683605352598,9.953353993690532,1.7999999999883585
312417.5207,10.63295029820814,7.703675496873724,5.327339287607392,9.236928983267491,1.8009999999776483
312417.5217,10.058049823695821,6.910620412560603,3.3104777701754484,8.275204748875582,1.801999999966938
312417.5227,9.233417597005145,6.036158803078693,1.1625747750780626,7.139944861522859,1.8029999999562278
312417.5237,8.239613383894806,5.1616731509991185,-1.0074417454500981,5.911600932200428,1.8040000000037253
312417.5247,7.160422322651525,4.366621924745941,-3.0903905810315973,4.672323223469862,1.804999999993015
312417.5257,6.075331027358565,3.7212658305640822,-4.9850196884293085,3.498979336623524,1.8059999999823049
312417.5267,5.052689905721397,3.2802353685771215,-6.605445691403745,2.456836657621298,1.8069999999715947
312417.5277,4.144201813071421,3.077552183664592,-7.887193751290027,1.5944959485412928,1.8079999999608845
312417.5287,3.381243215660088,3.123579566092212,-8.791312457496968,0.940538645483208,1.809000000008382
312417.5297,2.7733416184930313,3.4041942942592223,-9.30621901531214,0.502181242288525,1.8099999999976717
312417.5307,2.308919910674635,3.8822603767640453,-9.447142753794571,0.26603309235343303,1.8109999999869615
312417.5317,1.9581952603836394,4.501265489827272,-9.253259560451843,0.2008482541083361,1.8119999999762513
312417.5327,1.6779089783385446,5.19077419269018,-8.782824817548535,0.26196769266906195,1.812999999965541
312417.5337,1.41738493306596,5.873178288208545,-8.10679720667627,0.39698417744106074,1.8140000000130385
312417.5347,1.1252850522466475,6.471100768683609,-7.301582688595403,0.5520445743968051,1.8150000000023283
312417.5357,0.7563637313871239,6.914747644537254,-6.4416039838135015,0.6781443953113372,1.815999999991618
312417.5367,0.2775250599600824,7.148507628066438,-5.592408786169748,0.7367732651864967,1.8169999999809079
312417.5377,-0.3274425826638855,7.136172611905707,-4.804969134958923,0.7043370175657445,1.8179999999701977
312417.5387,-1.0549477531164464,6.864285105343619,-4.111700903973293,0.574905854612342,1.8189999999594875
312417.5397,-1.8808052678384426,6.3432993995391085,-3.5245583658331787,0.36100629392354533,1.820000000006985
312417.5407,-2.7616740335439327,5.6064537628294975,-3.0353512862735346,0.09237097328583412,1.8209999999962747
312417.5417,-3.6386017104111006,4.7064710585940635,-2.6182112743316246,-0.18723446424468435,1.8219999999855645
312417.5427,-4.442343980896721,3.710413544586119,-2.233921717255651,-0.4247943832466665,1.8229999999748543
312417.5437,-5.099947806599736,2.693194109153672,-1.835642297827193,-0.5639596762074915,1.823999999964144
312417.5447,-5.5419593349684,1.7303737791056226,-1.375422714113313,-0.5515045988739391,1.8250000000116415
312417.5457,-5.7095507352268475,0.8909417053075037,-0.8108240862102141,-0.3436721050188298,1.8260000000009313
312417.5467,-5.560862784896656,0.230772659150488,-0.1109580249023949,0.08823864185201874,1.8269999999902211
312417.5477,-5.075931347603721,-0.21261140587995278,0.7386867995149873,0.7536196235603266,1.827999999979511
312417.5487,-4.2596991060115545,-0.4234781660152427,1.7331384843923234,1.6400867537157773,1.8289999999688007
312417.5497,-3.1427961074084454,-0.40919937276744783,2.8468914548139557,2.713077192730469,1.8299999999580905
312417.5507,-1.7799861131501724,-0.199329506348129,4.035041300701996,3.917590489336545,1.831000000005588
312417.5517,-0.24639962462027157,0.15744727567385405,5.236515740550412,5.1819441945994935,1.8319999999948777
312417.5527,1.3681130281299934,0.5981913515440002,6.379102563374852,6.423217485807636,1.8329999999841675
312417.5537,2.965994703098447,1.0519172056331063,7.38579482816129,7.553890084630855,1.8339999999734573
312417.5547,4.4497159125479975,1.446525521695291,8.181840263650077,8.489064685832563,1.834999999962747
312417.5557,5.72951757062071,1.715778437824217,8.701808840692708,9.153600966578052,1.8360000000102445
312417.5567,6.730449240058685,1.8056388797812342,8.895987039434374,9.488494007454017,1.8369999999995343
312417.5577,7.398059225313417,1.6793616978117833,8.735469884100787,9.455899264786984,1.8379999999888241
312417.5587,7.702223863386601,1.3208508600924285,8.21544613924654,9.042333415448976,1.838999999978114
312417.5597,7.6387833426369,0.7359705414757681,7.356345844744102,8.259753114381438,1.8399999999674037
312417.5607,7.228862677905334,-0.04829866309864085,6.202725458917219,7.144415174649582,1.8409999999566935
312417.5617,6.515978413619653,-0.9867541076128018,4.8199839895379615,5.753632309238555,1.842000000004191
312417.5627,5.561242551457363,-2.020610040264745,3.2892122054602355,4.160737889856581,1.8429999999934807
312417.5637,4.437154573301161,-3.083404599166161,1.700655911058883,2.4487418304903024,1.8439999999827705
312417.5647,3.220602857408774,-4.107575721017601,0.14640590048465651,0.7032813568882985,1.8449999999720603
312417.5657,1.9857656998388857,-5.031044073328164,-1.287001144415723,-0.9944666503650244,1.8459999999613501
312417.5667,0.7976030370968098,-5.803144253469313,-2.525381693354154,-2.574246833490107,1.8470000000088476
312417.5677,-0.2934370217259138,-6.389314035729534,-3.5124773892417935,-3.98196130067845,1.8479999999981374
312417.5687,-1.2550007947846362,-6.77407846610068,-4.213795935339336,-5.183205480316489,1.8489999999874271
312417.5697,-2.0743810246198815,-6.962038425129168,-4.6183879662153915,-6.164798441169968,1.849999999976717
312417.5707,-2.7579256241969454,-6.976774721814007,-4.738429668648186,-6.934200488882896,1.8509999999660067
312417.5717,-3.3284078512840534,-6.857788856898872,-4.606694964792391,-7.5169184986308135,1.8519999999552965
312417.5727,-3.8206686388072755,-6.655799469106353,-4.272205441244026,-7.952196147501751,1.853000000002794
312417.5737,-4.276016163721555,-6.426879524155898,-3.794520842315466,-8.28745272752526,1.8539999999920838
312417.5747,-4.735993094929352,-6.226037028922134,-3.2372607614784146,-8.572054288603287,1.8549999999813735
312417.5757,-5.236185830312951,-6.100899714166363,-2.66151673188098,-8.85106278344321,1.8559999999706633
312417.5767,-5.800745969642,-6.086155906677182,-2.119816673779598,-9.15960667656902,1.8569999999599531
312417.5777,-6.438222523383539,-6.199330378112305,-1.6512405499063902,-9.518450444605469,1.8580000000074506
312417.5787,-7.139170863850657,-6.438342424557724,-1.278163563495986,-9.931217110827252,1.8589999999967404
312417.5797,-7.875824147108129,-6.781116659609208,-1.0049336317605837,-10.383549626343116,1.8599999999860302
312417.5807,-8.603902606220284,-7.1873123538224135,-0.818590158255076,-10.844300172415537,1.86099999997532
312417.5817,-9.266416519814074,-7.602024784247474,-0.6915212700653697,-11.26863076174255,1.8619999999646097
312417.5827,-9.79911159099604,-7.961112953755385,-0.5857576521986689,-11.602714213709158,1.8630000000121072
312417.5837,-10.137031603399397,-8.197641948507355,-0.45843281646485945,-11.789560928970047,1.864000000001397
312417.5847,-10.221550065145305,-8.24881168852702,-0.2678189724801338,-11.775380163495843,1.8649999999906868
312417.5857,-10.007162720997803,-8.062688635685,0.020713192334603905,-11.515826378715184,1.8659999999799766
312417.5867,-9.467342758335583,-7.604068910170533,0.4294573056179301,-10.981487647492045,1.8669999999692664
312417.5877,-8.598839875454434,-6.858879410597943,0.9644321686462697,-10.162043601753796,1.8679999999585561
312417.5887,-7.4239459151383675,-5.8366605985995115,1.6131862515023279,-9.068648270918384,1.8690000000060536
312417.5897,-5.990440129352023,-4.570857443815138,2.344615283499897,-7.734265960948511,1.8699999999953434
312417.5907,-4.369148089892258,-3.1168559323969016,3.110857499289977,-6.211889174771617,1.8709999999846332
312417.5917,-2.6492784351301335,-1.547921000294288,3.851117780797102,-4.570776770283933,1.871999999973923
312417.5927,-0.9319186432985295,0.05060358103582601,4.497071514587647,-2.8910474973287226,1.8729999999632128
312417.5937,0.6777464070621732,1.588302039842662,4.979331635660804,-1.257129287133746,1.8740000000107102
312417.5947,2.0787992125362544,2.9772487399189456,5.2343450686627655,0.249318228609689,1.875
312417.5957,3.182779230275432,4.139416749562154,5.211029761011847,1.5563332630331967,1.8759999999892898
312417.5967,3.920946274276732,5.013235034769177,4.876476786284033,2.6077673337733556,1.8769999999785796
312417.5977,4.249946145067818,5.558675216882489,4.220122899051479,3.3679943030852715,1.8779999999678694
312417.5987,4.155350961818385,5.760387843349269,3.25594004767289,3.8247528123024237,1.8789999999571592
312417.5997,3.6527417605472814,5.628594047850191,2.022376276615358,3.9898397329497635,1.8800000000046566
312417.6007,2.786228485925619,5.197653361083168,0.5799990165202007,3.897578536429855,1.8809999999939464
312417.6017,1.624540752734807,4.522451436191748,-0.9929841577252575,3.6012011993866007,1.8819999999832362
312417.6027,0.2550488115198817,3.6729608851020745,-2.6069426458091542,3.1674844851258253,1.882999999972526
312417.6037,-1.2237337179762224,2.727503864960873,-4.168218843281889,2.670151399533531,1.8839999999618158
312417.6047,-2.7104740681083386,1.7653693558445498,-5.587022445882095,2.1826696305650057,1.8850000000093132
312417.6057,-4.109406352250839,0.8594990306235846,-6.785085800681818,1.7711388903948602,1.885999999998603
312417.6067,-5.338013290487485,0.06994718720502821,-7.702357525015843,1.4879522430710173,1.8869999999878928
312417.6077,-6.3333094664036835,-0.561256897854877,-8.302096256245646,1.3668431834753973,1.8879999999771826
312417.6087,-7.056169744804521,-1.0133542129052782,-8.573873451700145,1.419797381321458,1.8889999999664724
312417.6097,-7.493336690618686,-1.287905103360084,-8.534189706560099,1.6361283797207407,1.8899999999557622
312417.6107,-7.656964949788362,-1.4075544395368496,-8.224634362583458,1.9838074895204547,1.8910000000032596
312417.6117,-7.581796812178065,-1.4126497490710224,-7.707751510522257,2.412919898952537,1.8919999999925494
312417.6127,-7.320288660360204,-1.3560606012131038,-7.060994234807071,2.860912807050056,1.8929999999818392
312417.6137,-6.9362008979307825,-1.296724967483831,-6.369331838726248,3.2591272401464426,1.893999999971129
312417.6147,-6.497305657214644,-1.2925743421786866,-5.717203978585065,3.539980082583157,1.8949999999604188
312417.6157,-6.0679435673515405,-1.3935516650830817,-5.180578472215131,3.6440989506080808,1.8960000000079162
312417.6167,-5.702165950543464,-1.6354283494054538,-4.819859820472549,3.526716114315945,1.896999999997206
312417.6177,-5.4381319065274685,-2.035049627294202,-4.674314045183835,3.162698407513991,1.8979999999864958
312417.6187,-5.294297811031808,-2.587498425072268,-4.7585301493852565,2.5497210959919836,1.8989999999757856
312417.6197,-5.2677531288502495,-3.265480588107839,-5.061243417712971,1.7092722610540148,1.8999999999650754
312417.6207,-5.334839499217853,-4.021016766194685,-5.546619814735556,0.6853830275771804,1.9010000000125729
312417.6217,-5.4539613717880195,-4.789299888095641,-6.157865813565865,-0.45880237379905214,1.9020000000018626
312417.6227,-5.570278701133724,-5.49436402694017,-6.822806840364695,-1.6462954095031208,1.9029999999911524
312417.6237,-5.621786810388107,-6.056031427028027,-7.460891503984874,-2.7928737430500488,1.9039999999804422
312417.6247,-5.546153671201206,-6.397477033411316,-7.990945765917124,-3.8144088285969375,1.904999999969732
312417.6257,-5.28761358854508,-6.452686492328479,-8.338933848209615,-4.634219210702099,1.9059999999590218
312417.6267,-4.803215332082244,-6.173090455868477,-8.444987195114072,-5.189758281211869,1.9070000000065193
312417.6277,-4.067791827547386,-5.532734439706328,-8.269038401701547,-5.438012026484176,1.907999999995809
312417.6287,-3.0771503797761106,-4.531481966185931,-7.7945359999016475,-5.359108948442101,1.9089999999850988
312417.6297,-1.8491636220976586,-3.1959357461333706,-7.029904533367613,-4.957818275637798,1.9099999999743886
312417.6307,-0.42265372245848265,-1.5779789713936347,-6.0076339052706,-4.262816657181929,1.9109999999636784
312417.6317,1.1458154289517468,0.24893474705646715,-4.781111092729787,-3.3238177598989367,1.9120000000111759
312417.6327,2.786913412095512,2.195400643218921,-3.4195237333893127,-2.206862689087936,1.9130000000004657
312417.6337,4.4247844114849,4.163069013601837,-2.0013479150659363,-0.9882422080137936,1.9139999999897555
312417.6347,5.983926645454273,6.052386909969287,-0.6070642345465732,0.2523522960203308,1.9149999999790452
312417.6357,7.396019233353268,7.7703578037307945,0.6881856048007927,1.438785208003863,1.915999999968335
312417.6367,8.606011570734173,9.237605038931179,1.8212909153537329,2.504874756845533,1.9169999999576248
312417.6377,9.576864630129506,10.394096928178055,2.746572777139283,3.3996301481668394,1.9180000000051223
312417.6387,10.29246889469271,11.20302478599416,3.43938577440947,4.090846473856532,1.918999999994412
312417.6397,10.758446377722535,11.65250677510353,3.897594006650584,4.566743431896912,1.9199999999837019
312417.6407,11.000756229043557,11.755002267281649,4.140806122508812,4.835530497098484,1.9209999999729916
312417.6417,11.062243750597514,11.544542723063747,4.207475249680828,4.922987602145659,1.9219999999622814
312417.6427,10.997479404444183,11.072094268064747,4.150178777871509,4.868346278330692,1.9230000000097789
312417.6437,10.866407101857153,10.399543856246611,4.0295695652988535,4.718922355719933,1.9239999999990687
312417.6447,10.727442566789069,9.592928085685923,3.907617124241547,4.524071527218363,1.9249999999883585
312417.6457,10.630720754963974,8.715589206989645,3.840822484806353,4.3291017143567,1.9259999999776483
312417.6467,10.612180283276368,7.821940562270673,3.874087653692669,4.169775312328967,1.926999999966938
312417.6477,10.689093483099457,6.9524542002593,4.035850497998439,4.067970381268826,1.9279999999562278
312417.6487,10.8575106502729,6.13035390327911,4.334965738012516,4.028949247097561,1.9290000000037253
312417.6497,11.091899914931258,5.360320371756548,4.759635660441262,4.040517889764012,1.929999999993015
312417.6507,11.34704814160867,4.6293094504574155,5.278487872825415,4.07416639346869,1.9309999999823049
312417.6517,11.562064518392393,3.909369490567978,5.843682435555689,4.088078805210766,1.9319999999715947
312417.6527,11.666118947684227,3.162141489116624,6.395728340639754,4.031710027989808,1.9329999999608845
312417.6537,11.585372634194707,2.344555534355154,6.869519552503614,3.851466770153306,1.934000000008382
312417.6547,11.250435665815385,1.4151160917848262,7.200980402694203,3.4969150092283794,1.9349999999976717
312417.6557,10.603628156642293,0.3401087057899147,7.333650838257511,2.9268792925657765,1.9359999999869615
312417.6567,9.605333684881334,-0.9009323452757495,7.224549597211077,2.114805217082324,1.9369999999762513
312417.6577,8.238815481588606,-2.311082728025688,6.84872693917275,1.052825116480799,1.937999999965541
312417.6587,6.513009490569005,-3.873668204419769,6.202050688327484,-0.24590832574036037,1.9390000000130385
312417.6597,4.46300033561157,-5.5519633154426895,5.301946858068745,-1.7468873100008875,1.9400000000023283
312417.6607,2.1481079476901557,-7.291019240889532,4.186021349400367,-3.3959839608490925,1.940999999991618
312417.6617,-0.35225731297964763,-9.021477103959045,2.9087017387013296,-5.12312224713085,1.9419999999809079
312417.6627,-2.9445971013783545,-10.665021853232421,1.5362368605746406,-6.847561955046566,1.9429999999701977
312417.6637,-5.5286301173288575,-12.140963871980357,0.14055697519544527,-8.484308891883472,1.9439999999594875
312417.6647,-8.005216521163051,-13.373317315321536,-1.2073876719697507,-9.951051328254495,1.945000000006985
312417.6657,-10.284155845378505,-14.297687661890262,-2.4441386535259495,-11.174966694057433,1.9459999999962747
312417.6667,-12.29112173374876,-14.867291850326492,-3.5194338595686285,-12.098750392086531,1.9469999999855645
312417.6677,-13.97307739687959,-15.057511804252275,-4.400526423790204,-12.685289697070935,1.9479999999748543
312417.6687,-15.301660060682641,-14.868518755145166,-5.074677315192128,-12.920533282712794,1.948999999964144
312417.6697,-16.274217172645308,-14.325688365655713,-5.549562981543816,-12.814278644308278,1.9500000000116415
312417.6707,-16.91240308241859,-13.47773753510522,-5.8515483036981415,-12.398798907326267,1.9510000000009313
312417.6717,-17.258480576222414,-12.39273244945965,-6.021990121374563,-11.72543787788561,1.9519999999902211
312417.6727,-17.369694253335023,-11.152322655453043,-6.111936461000201,-10.859497534381793,1.952999999979511
312417.6737,-17.311270711198834,-9.844727725199167,-6.175751498437871,-9.873906475374083,1.9539999999688007
312417.6747,-17.148735558127232,-8.5571247099464,-6.26430975982024,-8.842275136081403,1.9549999999580905
312417.6757,-16.94030616278115,-7.3681442068279805,-6.418453630179051,-7.832002444851734,1.956000000005588
312417.6767,-16.730114891563737,-6.341174647833589,-6.663390555830945,-6.898093273324491,1.9569999999948777
312417.6777,-16.542940523229074,-5.519099113836345,-7.004621709086952,-6.0782770368139944,1.9579999999841675
312417.6787,-16.380982740150852,-4.920953826333604,-7.425850199756371,-5.389891803786082,1.9589999999734573
312417.6797,-16.223019606286616,-4.5408155107197095,-7.889127833299658,-4.828827481154787,1.959999999962747
312417.6807,-16.026059339528643,-4.349013605975239,-8.337283078505854,-4.370622596847738,1.9610000000102445
312417.6817,-15.729357329969742,-4.295543169442175,-8.698450193162964,-3.9736011684781323,1.9619999999995343
312417.6827,-15.260440272530332,-4.315346471450188,-8.892311943673151,-3.5837392443595735,1.9629999999888241
312417.6837,-14.542583447048127,-4.334955646385048,-8.837496234741195,-3.1407839469848176,1.963999999978114
312417.6847,-13.503043393803015,-4.279862162591023,-8.459447080389907,-2.585027312915902,1.9649999999674037
312417.6857,-12.081270314179932,-4.081913318115955,-7.698034554432764,-1.8640744840297896,1.9659999999566935
312417.6867,-10.236319974909849,-3.6860375628558604,-6.514182373381581,-0.9389468303258471,1.967000000004191
312417.6877,-7.952754175809317,-3.055668791486172,-4.894874601495552,0.21107483625226928,1.9679999999934807
312417.6887,-5.244455350984757,-2.1763680054864705,-2.8560470233556847,1.5853400186694184,1.9689999999827705
312417.6897,-2.155971587454036,-1.0573163058355035,-0.44306050776799993,3.160757215022361,1.9699999999720603
312417.6907,1.238764912400034,0.2694410738502719,2.2713249105784263,4.892871258415785,1.9709999999613501
312417.6917,4.840261689269388,1.7519040276023443,5.191326445979695,6.718992724430197,1.9720000000088476
312417.6927,8.529515159038464,3.3228791862817215,8.204499798996583,8.563086297368036,1.9729999999981374
312417.6937,12.175765518408877,4.906118100112965,11.189536419967565,10.341957203001515,1.9739999999874271
312417.6947,15.645284785454976,6.423228575151507,14.024816034746856,11.972151857130855,1.974999999976717
312417.6957,18.810435657457784,7.8006873829349415,16.596965365719935,13.376922457875574,1.9759999999660067
312417.6967,21.558220652467263,8.976279774664956,18.80867577293421,14.492601575307498,1.9769999999552965
312417.6977,23.797595381315382,9.904353909668673,20.585104154922927,15.273791986232657,1.978000000002794
312417.6987,25.464940972657928,10.559399977762107,21.878315936754774,15.696893102142422,1.9789999999920838
312417.6997,26.527266517365373,10.937632264255386,22.66941337432222,15.761646892630038,1.9799999999813735
312417.7007,26.98292566831833,11.056450971210172,22.96820899935748,15.490577399153779,1.9809999999706633
312417.7017,26.859861569634976,10.951869697901735,22.81053205257049,14.926400132120214,1.9819999999599531
312417.7027,26.21161903839581,10.674193577813519,22.253473399139537,14.127671215036772,1.9830000000074506
312417.7037,25.111561062759485,10.28240270908591,21.369060962815883,13.163112360433407,1.9839999999967404
312417.7047,23.645879681904066,9.837819199516149,20.236995504688306,12.105170638952591,1.9849999999860302
312417.7057,21.906085197735866,9.397701940462763,18.93715274823012,11.02343981763355,1.98599999997532
312417.7067,19.981684322141817,9.009414912134716,17.542565571372062,9.978576483806037,1.9869999999646097
312417.7077,17.953715769637864,8.705752507211209,16.113539069778703,9.017288931008732,1.9880000000121072
312417.7087,15.889706130078308,8.50188543328623,14.693428217268146,8.168865576752042,1.989000000001397
312417.7097,13.840450887038866,8.39422526123193,13.306435076548128,7.443553669210106,1.9899999999906868
312417.7107,11.838831439068489,8.36131112865597,11.957577262930597,6.832913723824777,1.9909999999799766
312417.7117,9.900668525324944,8.366617817314264,10.634761899222074,6.312078828839939,1.9919999999692664
312417.7127,8.027406539819289,8.362990657146792,9.312690939520794,5.843660001677461,1.9929999999585561
312417.7137,6.2102421514085275,8.298248653534424,7.958144769085535,5.3828776108873715,1.9940000000060536
312417.7147,4.435172079716177,8.121379115628175,6.53605868622171,4.883380251060721,1.9949999999953434
312417.7157,2.6883520837977275,7.788686554865267,5.015733843708679,4.3031478834335815,1.9959999999846332
312417.7167,0.9611398229915386,7.269261696199715,3.376517196199791,3.609871686354706,1.996999999973923
312417.7177,-0.7457604929924768,6.549202787808763,1.612344190167831,2.7852590986190315,1.9979999999632128
312417.7187,-2.4195290228168496,5.634144446178869,-0.26534291620685524,1.827823228389865,1.9990000000107102
312417.7197,-4.034161030893664,4.549816870423246,-2.2266212012763593,0.7538700074143461,2.0
312417.7207,-5.551236053710006,3.3405538395466494,-4.224179636852034,-0.40342120787288943,2.00099999998929
312417.7217,-6.9224649623669805,2.065872136888386,-6.196390382145381,-1.5967355949074054,2.0019999999785796
312417.7227,-8.093762044196879,0.7954377290777614,-8.072070794963297,-2.76890822217072,2.0029999999678694
312417.7237,-9.010423234858296,-0.39710391181465926,-9.77647677702844,-3.858329759878539,2.003999999957159
312417.7247,-9.622868854375202,-1.4408405844601189,-11.237942489757577,-4.804932332473159,2.0050000000046566
312417.7257,-9.892342125204102,-2.274199273679769,-12.394513921394479,-5.556156039640871,2.0059999999939464
312417.7267,-9.795950250542282,-2.850801961609681,-13.199920757758349,-6.072297154821701,2.006999999983236
312417.7277,-9.330493476142674,-3.1439981640077725,-13.628292646794161,-6.330699150890994,2.007999999972526
312417.7287,-8.514643553556006,-3.1496276310071916,-13.677146031828261,-6.32836150125521,2.0089999999618158
312417.7297,-7.389194779741469,-2.8867373810483294,-13.368334306808553,-6.082697338291026,2.0100000000093132
312417.7307,-6.015302079942946,-2.396175289517932,-12.746850621307928,-5.6303539951002355,2.010999999998603
312417.7317,-4.470822177745164,-1.7371883104030197,-11.877579827001313,-5.024202021638842,2.011999999987893
312417.7327,-2.8450654100314177,-0.9823467566335943,-10.840293415315193,-4.328779402245066,2.0129999999771826
312417.7337,-1.2324277879716445,-0.21127780786829967,-9.723349479716505,-3.6146303891344806,2.0139999999664724
312417.7347,0.2745110360752499,0.4961944269381657,-8.616682315685471,-2.952087409216957,2.014999999955762
312417.7357,1.5917801139308438,1.0668496653878938,-7.60473137203668,-2.405099040443669,2.0160000000032596
312417.7367,2.6500620637167387,1.4401694012088906,-6.759960731494786,-2.025701651853688,2.0169999999925494
312417.7377,3.3994224937501403,1.573160787721621,-6.13755827868518,-1.8496674908341608,2.017999999981839
312417.7387,3.8122830453398486,1.4434636879120077,-5.771784637029903,-1.8937442367339812,2.018999999971129
312417.7397,3.8843688251754958,1.0504699242046658,-5.674277866318903,-2.15474206262731,2.019999999960419
312417.7407,3.633560380738064,0.41438173411881585,-5.834427257081509,-2.610539918788479,2.0210000000079162
312417.7417,3.0967875186289717,-0.4266591652383002,-6.221727539794551,-3.222891478735442,2.021999999997206
312417.7427,2.325296383192704,-1.4210500783704774,-6.78983349125381,-3.9417320895640096,2.022999999986496
312417.7437,1.3787827058489535,-2.5093341384738324,-7.481873161429318,-4.71053906639766,2.0239999999757856
312417.7447,0.31899658034415157,-3.630347445954036,-8.236461635037347,-5.472193706098988,2.0249999999650754
312417.7457,-0.7965240711399392,-4.727269443792225,-8.993797670549885,-6.174744929942125,2.026000000012573
312417.7467,-1.919948563288369,-5.752954834600742,-9.701228322809147,-6.776486432504421,2.0270000000018626
312417.7477,-3.0173137980009743,-6.67400373649217,-10.31773112327404,-7.249830518620112,2.0279999999911524
312417.7487,-4.0709237311809146,-7.473160321101258,-10.81688278612108,-7.5835854235106375,2.0289999999804422
312417.7497,-5.0797429927744915,-8.149805494290751,-11.188045491939658,-7.783406559450692,2.029999999969732
312417.7507,-6.057747098315276,-8.71850866246466,-11.435690105054448,-7.870379505311714,2.030999999959022
312417.7517,-7.030404606722728,-9.205807190381185,-11.576971149816073,-7.877884917854971,2.0320000000065193
312417.7527,-8.029663625583387,-9.645569231097957,-11.637851261302368,-7.84707359115093,2.032999999995809
312417.7537,-9.08797627763219,-10.073447190859882,-11.648224669981989,-7.821425666024721,2.033999999985099
312417.7547,-10.232003573139112,-10.521029641917952,-11.636594727710785,-7.840966675342493,2.0349999999743886
312417.7557,-11.476688119291754,-11.010338504007471,-11.62490883041827,-7.936754506680688,2.0359999999636784
312417.7567,-12.820358035203883,-11.549291371022434,-11.624140353720017,-8.126230932013595,2.037000000011176
312417.7577,-14.241433946912363,-12.1286581262681,-11.631132622376349,-8.409950690517848,2.0380000000004657
312417.7587,-15.69716034030827,-12.720895024311758,-11.627091815914932,-8.770067819347101,2.0389999999897555
312417.7597,-17.124587120517965,-13.281052355795895,-11.577946782641584,-9.170785896210415,2.0399999999790452
312417.7607,-18.44380580701626,-13.749741995640779,-11.436600825472128,-9.560783007204694,2.040999999968335
312417.7617,-19.563218975564794,-14.057939315125669,-11.14690292221894,-9.877422879022115,2.041999999957625
312417.7627,-20.386413569642517,-14.13320122717224,-10.648983380466477,-10.05238048627388,2.0430000000051223
312417.7637,-20.82003922571938,-13.90672791576696,-9.885450012737872,-10.018161850968134,2.043999999994412
312417.7647,-20.781978873454545,-13.320595801179614,-8.807840715915804,-9.714898683154427,2.044999999983702
312417.7657,-20.209052368466832,-12.334454006841012,-7.382687262806751,-9.096759166212141,2.0459999999729916
312417.7667,-19.063520084174584,-10.931010221586627,-5.59656778285551,-8.137340942995149,2.0469999999622814
312417.7677,-17.337750470983977,-9.119731854643556,-3.45961017358515,-6.833499310552103,2.048000000009779
312417.7687,-15.056574905866187,-6.93834570421937,-1.0070477622093277,-5.207204771013608,2.0489999999990687
312417.7697,-12.277059913968298,-4.451919291739537,1.7013912489931577,-3.305206060524409,2.0499999999883585
312417.7707,-9.085661561739188,-1.7495306039193539,4.584274973167497,-1.1964801840377546,2.0509999999776483
312417.7717,-5.592967196243184,1.0612411149649545,7.543245958215001,1.032339936086167,2.051999999966938
312417.7727,-1.9264527775664737,3.861564344706881,10.469400598902023,3.2831770214282288,2.052999999956228
312417.7737,1.778131570416202,6.529737601843427,13.250727292183665,5.453819622147234,2.0540000000037253
312417.7747,5.3860072240245405,8.949986832526955,15.779954396924742,7.445683374350133,2.054999999993015
312417.7757,8.772444235392047,11.020914201258671,17.96211386031073,9.171329704269601,2.055999999982305
312417.7767,11.830885774906628,12.662860114201953,19.721147123130834,10.561067745770787,2.0569999999715947
312417.7777,14.47942429078314,13.823534600765656,21.0049649748797,11.568048369187322,2.0579999999608845
312417.7787,16.66508738914444,14.481428463748365,21.788514493360463,12.17139822050682,2.059000000008382
312417.7797,18.365595254863248,14.64671441360515,22.074590652727004,12.377123292893666,2.0599999999976717
312417.7807,19.588486112426853,14.35957491296341,21.892339975057666,12.216718454629762,2.0609999999869615
312417.7817,20.367749430540282,13.68612533613,21.293618575220687,11.743631778917054,2.0619999999762513
312417.7827,20.758335187772598,12.712316480415295,20.347566394634043,11.027930195289464,2.062999999965541
312417.7837,20.829099872189687,11.536379249153217,19.133924090441305,10.14967709443461,2.0640000000130385
312417.7847,20.654887853491147,10.260499801091333,17.735733043858925,9.191647518796952,2.0650000000023283
312417.7857,20.30851748461205,8.982474098439098,16.23211128032209,8.232061673157475,2.065999999991618
312417.7867,19.853438404576572,7.788081277793206,14.691783742788655,7.3380076992491565,2.066999999980908
312417.7877,19.33775076204909,6.744837014717082,13.167965793463067,6.560151245409103,2.0679999999701977
312417.7887,18.790136191330497,5.897649003186461,11.695061841018351,5.929199716845577,2.0689999999594875
312417.7897,18.218058300023653,5.266710531854458,10.287459980031947,5.454415991207886,2.070000000006985
312417.7907,17.608365961339867,4.8477530280245675,8.940496137486802,5.124276734076656,2.0709999999962747
312417.7917,16.930197632801367,4.614555118992351,7.633447645270231,4.90916363060508,2.0719999999855645
312417.7927,16.139861908082334,4.5233956179243355,6.334217170066802,4.765781828499226,2.0729999999748543
312417.7937,15.187179885554563,4.5189608257827905,5.005202854853807,4.642837275238069,2.073999999964144
312417.7947,14.022636660985278,4.541089241405998,3.6097353506151273,4.487388887651727,2.0750000000116415
312417.7957,12.60461518585071,4.531670838008893,2.1184082521943215,4.251233438190311,2.0760000000009313
312417.7967,10.905982443685748,4.441019112507592,0.5146404541898384,3.896685843979434,2.076999999990221
312417.7977,8.91936507174049,4.233101227395063,-1.2011141753698897,3.401184240072661,2.077999999979511
312417.7987,6.660582088997463,3.889137430462582,-3.008960234746059,2.760270849068973,2.0789999999688007
312417.7997,4.169883131897644,3.409252603489847,-4.869229456106899,1.9886639830448956,2.0799999999580905
312417.8007,1.5108536685807206,2.812062965536077,-6.724291662843118,1.1193272237996381,2.081000000005588
312417.8017,-1.2329267738522331,2.1322897205144598,-8.50236326832298,0.2006401589635861,2.0819999999948777
312417.8027,-3.9631730313036253,1.416688201590304,-10.122970607488826,-0.7080383835911451,2.0829999999841675
312417.8037,-6.573645557981913,0.718746573384575,-11.503560520864024,-1.5419669896799464,2.0839999999734573
312417.8047,-8.957745442002917,0.09272635914891533,-12.566634837325614,-2.2372189250769123,2.084999999962747
312417.8057,-11.016259640693429,-0.41232333109502367,-13.246729963045393,-2.7368647327313007,2.0860000000102445
312417.8067,-12.664555777159402,-0.7579504469258206,-13.496573056957805,-2.996529700253248,2.0869999999995343
312417.8077,-13.838586030308566,-0.9205237268648494,-13.29182125975594,-2.988780590962484,2.087999999988824
312417.8087,-14.499180556960201,-0.8938594208880456,-12.633922867055785,-2.705914260329599,2.088999999978114
312417.8097,-14.63428004892928,-0.6899820536489037,-11.550816346814642,-2.1608805216285396,2.0899999999674037
312417.8107,-14.258957381304084,-0.3379439462691386,-10.095387514923269,-1.386256983581838,2.0909999999566935
312417.8117,-13.413289872068319,0.11917108620925286,-8.34181715599052,-0.43138618600555184,2.092000000004191
312417.8127,-12.158345541128742,0.6287468969350767,-6.380150329438568,0.642033840263972,2.0929999999934807
312417.8137,-10.57071916218103,1.134168529369546,-4.309585227408186,1.7654633167824823,2.0939999999827705
312417.8147,-8.736180168470595,1.5808137489256604,-2.23109760516704,2.869589898008501,2.0949999999720603
312417.8157,-6.743062660163019,1.9218769847587864,-0.24007508773495542,3.8903528548346866,2.09599999996135
312417.8167,-4.676031821976384,2.123414503980604,1.5803714597956726,4.77433029609639,2.0970000000088476
312417.8177,-2.6108014238945487,2.1680764311481266,3.1648239331020633,5.482965015427393,2.0979999999981374
312417.8187,-0.6102605738107401,2.0571228256217595,4.46923369063755,5.995224357020637,2.098999999987427
312417.8197,1.277692968817873,1.8104943566397704,5.472565589108556,6.3084495198843396,2.099999999976717
312417.8207,3.020503914459226,1.4649058578108474,6.176316463579361,6.437333918740894,2.1009999999660067
312417.8217,4.599582163956923,1.070133373365824,6.602022926812533,6.41116012331107,2.1019999999552965
312417.8227,6.007468056079256,0.6838518647559964,6.787067829149679,6.269601456305266,2.103000000002794
312417.8237,7.243963535743255,0.3655326627650461,6.779256663622358,6.057539810160556,2.1039999999920838
312417.8247,8.311758186207253,0.17001155062068785,6.630748661472903,5.819450995886106,2.1049999999813735
312417.8257,9.212126936504019,0.14137951609803445,6.391981196796772,5.593952867500246,2.1059999999706633
312417.8267,9.94126160578149,0.3078241946188388,6.106215262783842,5.409095038927457,2.106999999959953
312417.8277,10.487722854214256,0.6779627998429295,5.80525552683945,5.278893716739386,2.1080000000074506
312417.8287,10.831370399222038,1.2390651670711,5.506768490114561,5.201488387470588,2.1089999999967404
312417.8297,10.943960810158112,1.9573821859471807,5.2134498195403784,5.159131362761108,2.10999999998603
312417.8307,10.791411227140507,2.780588297412303,4.914094498074928,5.120032970890466,2.11099999997532
312417.8317,10.337533756662198,3.6421371966935556,4.586421078300641,5.041893268084143,2.1119999999646097
312417.8327,9.548869272574978,4.467138135232564,4.201314571601913,4.8767747574314715,2.113000000012107
312417.8337,8.40010945745909,5.17920531551711,3.728000371875928,4.576827523611081,2.114000000001397
312417.8347,6.879507207316709,5.707630351033286,3.139559671751639,4.100282972387339,2.1149999999906868
312417.8357,4.993647994872935,5.994188062912624,2.418155645854853,3.417094881706697,2.1159999999799766
312417.8367,2.77099235400339,5.99891331701139,1.559363734219463,2.5136309254710874,2.1169999999692664
312417.8377,0.2636996836604664,5.704278901784099,0.5750865933728068,1.3959023011315133,2.117999999958556
312417.8387,-2.452602885015923,5.11735295923049,-0.505323741234763,0.09095569862710304,2.1190000000060536
312417.8397,-5.281250215778783,4.269705007011572,-1.6359312036596731,-1.3537724965560087,2.1199999999953434
312417.8407,-8.109098056236592,3.2150437538737724,-2.7570579461539313,-2.8731421955677727,2.120999999984633
312417.8417,-10.812928937421104,2.0247869554365665,-3.799885487278818,-4.388837823996168,2.121999999973923
312417.8427,-13.267231694339905,0.7819623753219881,-4.692408198589933,-5.81535735772321,2.1229999999632128
312417.8437,-15.352730728824238,-0.4259998810989866,-5.366181997446294,-7.066932416512235,2.12400000001071
312417.8447,-16.964946901355265,-1.5149155715243074,-5.763214048443174,-8.064751162486424,2.125
312417.8457,-18.022044136655985,-2.4112231211683453,-5.842306038995617,-8.743817078468066,2.12599999998929
312417.8467,-18.471258262111306,-3.058401580891682,-5.584198262453809,-9.058801999297419,2.1269999999785796
