TimeStamp,ECR,FCR,ECU,FCU,time_index
312481.7197,-23.225292356078,-54.66392245460091,-45.665413374228706,-52.22078564546885,66.0
312481.7207,-28.16973073929597,-60.093833655049494,-49.17656520311734,-60.536691463759816,66.00099999998929
312481.7217,-31.98803609849746,-64.66982354416672,-50.45008562500816,-68.20071353276693,66.00199999997858
312481.7227,-34.34702255214136,-68.06240951459985,-49.20199570319976,-74.85327901910223,66.00299999996787
312481.7237,-34.9733226468436,-69.98354382276733,-45.239716786098846,-80.1665706025562,66.00399999995716
312481.7247,-33.66931373365131,-70.20257322755596,-38.475504880658534,-83.86087149455811,66.00500000000466
312481.7257,-30.325161099056356,-68.55935308898441,-28.935252813059638,-85.71860324838686,66.00599999999395
312481.7267,-24.926151439811917,-64.97364855198597,-16.761967802443007,-85.5951524090996,66.00699999998324
312481.7277,-17.554792717789038,-59.450194817505206,-2.21353908115007,-83.42579269614859,66.00799999997253
312481.7287,-8.387503464219833,-52.07907857273642,14.345244139686779,-79.22827637710682,66.00899999996182
312481.7297,2.313920024064977,-43.03142109942559,32.456104512366224,-73.10097057590312,66.01000000000931
312481.7307,14.215514672588366,-32.55066537576146,51.58545165940997,-65.21672680786654,66.0109999999986
312481.7317,26.92817816737019,-20.940069017481942,71.14634669075775,-55.81296911627167,66.01199999998789
312481.7327,40.02739664794683,-8.54725817170868,90.52303847226253,-45.17874294590461,66.01299999997718
312481.7337,53.07438466842372,4.253115796635259,109.09669330819953,-33.63966184540248,66.01399999996647
312481.7347,65.63727500518205,17.077469568888127,126.270875487767,-21.541806149622484,66.01499999995576
312481.7357,77.31102412593012,29.55096764854265,141.49537413990763,-9.235657794211763,66.01600000000326
312481.7367,87.73482749453292,41.323698609680726,154.28710947704886,2.938902973261638,66.01699999999255
312481.7377,96.60605639270469,52.08441345341913,164.24707790962216,14.66565333157787,66.01799999998184
312481.7387,103.69001614224373,61.571115317523045,171.07259223730156,25.66245819057835,66.01899999997113
312481.7397,108.8251601120868,69.5780612167833,174.56441563953064,35.68865247415956,66.01999999996042
312481.7407,111.92374643301144,75.95903167064313,174.62874798803628,44.54923132066661,66.02100000000792
312481.7417,112.96826526935882,80.62701715382434,171.27437016418932,52.095979794394225,66.0219999999972
312481.7427,112.00426541485878,83.55073604849554,164.60555802198945,58.22592109494515,66.0229999999865
312481.7437,109.13044531305718,84.74861489028874,154.81161789343918,62.877659176610294,66.02399999997579
312481.7447,104.48702683984118,84.2810108958309,142.154051984689,66.02632127445467,66.02499999996508
312481.7457,98.24348956317662,82.24152832267261,126.9524246598219,67.67785814699127,66.02600000001257
312481.7467,90.58670664914763,78.74827092789774,109.56996844269024,67.86343280050988,66.02700000000186
312481.7477,81.71039785469259,73.9357871178412,90.39984951983097,66.63452791161913,66.02799999999115
312481.7487,71.80661492870291,67.94831386475155,69.85282251996634,64.05924119334937,66.02899999998044
312481.7497,61.059721541644436,60.934727459644634,48.346765521998016,60.22003541789556,66.02999999996973
312481.7507,49.64304924298789,53.045384997366945,26.298324606852717,55.21298833882044,66.03099999995902
312481.7517,37.71813037298687,44.430813253440384,4.116639982761838,49.148371357629074,66.03200000000652
312481.7527,25.43615492216592,35.24199388197187,-17.801101636540082,42.15219737517985,66.03299999999581
312481.7537,12.941094217442775,25.631825474570903,-39.072719625464075,34.36823736868793,66.0339999999851
312481.7547,0.3737976405711512,15.757229201560515,-59.33323726828576,25.959926012271353,66.03499999997439
312481.7557,-12.123690135209392,5.781314767699124,-78.23679922048262,17.111566596475285,66.03599999996368
312481.7567,-24.40432209805951,-4.124960199914669,-95.45884228794209,8.028304747901112,66.03700000001118
312481.7577,-36.3133858270939,-13.782125689512458,-110.69894532607378,-1.0655380779892487,66.03800000000047
312481.7587,-47.68745882247058,-23.00288787760882,-123.6846235599945,-9.930010139185333,66.03899999998976
312481.7597,-58.35525337273108,-31.594362275369217,-134.17613916580083,-18.31499224052678,66.03999999997905
312481.7607,-68.14039729391988,-39.36185880778014,-141.9721962407509,-25.967406631790936,66.04099999996834
312481.7617,-76.86597454640328,-46.11404445842819,-146.9161977124242,-32.6398045014981,66.04199999995762
312481.7627,-84.36045300963247,-51.669149157284245,-148.9025859509841,-38.09980224776139,66.04300000000512
312481.7637,-90.46447551309596,-55.861758997391505,-147.8826855797271,-42.13972527364823,66.04399999999441
312481.7647,-95.03789934581606,-58.549669815991805,-143.8694282337191,-44.58576919684144,66.0449999999837
312481.7657,-97.96644702981754,-59.62026020677369,-136.94036988953127,-45.30600720111912,66.04599999997299
312481.7667,-99.167377882597,-58.995886418312395,-127.2385095813082,-44.216656861912995,66.04699999996228
312481.7677,-98.59369915149144,-56.63789638251479,-114.97057440598064,-41.286161390224855,66.04800000000978
312481.7687,-96.23659399238815,-52.54899480787173,-100.40263414778616,-36.536824185271605,66.04899999999907
312481.7697,-92.12593283111458,-46.773850108341655,-83.85312954125814,-30.043942807662802,66.04999999998836
312481.7707,-86.32893306768452,-39.39799864547952,-65.68361860415132,-21.93259752276831,66.05099999997765
312481.7717,-78.94721721724045,-30.54525356890438,-46.28774291706629,-12.372438802371835,66.05199999996694
312481.7727,-70.11267059480923,-20.373947269867987,-26.079069687884623,-1.5709681131942086,66.05299999995623
312481.7737,-59.98259959723147,-9.072414457204003,-5.478559686482089,10.234098345889223,66.05400000000373
312481.7747,-48.734729323192056,3.1458514519339436,15.097564581854906,22.78276203757971,66.05499999999302
312481.7757,-36.56255052671364,16.04696504391212,35.248824946233576,35.80038507815061,66.0559999999823
312481.7767,-23.671434076756878,29.38101508360558,54.59976004066766,49.004555670461976,66.0569999999716
312481.7777,-10.275786782591485,42.88582726032174,72.80703140777618,62.11083573072078,66.05799999996088
312481.7787,3.4026576305666634,56.29006712373961,89.56414548767937,74.83723183035667,66.05900000000838
312481.7797,17.13551335101173,69.31578069521004,104.60380694272655,86.90742449941477,66.05999999999767
312481.7807,30.687670278433277,81.68061173237452,117.69814625345295,98.05297492676023,66.06099999998696
312481.7817,43.81691686362619,93.10004493183769,128.65726270343384,108.01488050203201,66.06199999997625
312481.7827,56.27380385910958,103.29008775592354,137.32667190186334,116.54495306088701,66.06299999996554
312481.7837,67.80233290198284,111.97080931180898,143.58432895472214,123.40753299404267,66.06400000001304
312481.7847,78.14201843145771,118.87109836625962,147.33790501894475,128.38202223884198,66.06500000000233
312481.7857,87.03176272892202,123.73488673119246,148.52292470103777,131.2666208639169,66.06599999999162
312481.7867,94.21581011132838,126.32891843204987,147.10223103380375,131.88349434370372,66.06699999998091
312481.7877,99.45182315843626,126.45194491351482,143.06704749468065,130.0853973250171,66.0679999999702
312481.7887,102.52087287818651,123.94501228777666,136.4396727932429,125.76355555244892,66.06899999995949
312481.7897,103.23888126738478,118.70230109194837,127.27759822885093,118.8563845818906,66.07000000000698
312481.7907,101.46882538397625,110.68180519804655,115.67860534245783,109.35842654855081,66.07099999999627
312481.7917,97.13283187603632,99.91501519222261,101.78620850642709,97.32873723248265,66.07199999998556
312481.7927,90.22318084518824,86.51471903346126,85.79467465999355,82.89787336419626,66.07299999997485
312481.7937,80.8112125457393,70.68005918212472,67.9527964727513,66.27262669373744,66.07399999996414
312481.7947,69.05319639408921,52.69809329224227,48.565624185196334,47.73773142639387,66.07500000001164
312481.7957,55.19237703550374,32.94128977512961,27.993475182853025,27.6539317280617,66.07600000000093
312481.7967,39.55664612456153,11.860637374251375,6.647730442998716,6.452024799930102,66.07699999999022
312481.7977,22.551582701395812,-10.025659710986256,-15.0168229430322,-15.377225629105295,66.07799999997951
312481.7987,4.648935314593521,-32.14761632856431,-36.51305637408736,-37.29710392932708,66.0789999999688
312481.7997,-13.629042601981604,-53.902437629659936,-57.33562596746782,-58.742376239961544,66.07999999995809
312481.8007,-31.72867517498032,-74.67615756156337,-76.97753291103994,-79.1393523121749,66.08100000000559
312481.8017,-49.08636637161336,-93.86685369079632,-94.9482516583083,-97.92755358949664,66.08199999999488
312481.8027,-65.15132669388868,-110.90820065934228,-110.79238676578353,-114.58180597315024,66.08299999998417
312481.8037,-79.40822012004695,-125.29206552865365,-124.1077287252478,-128.63350221587257,66.08399999997346
312481.8047,-91.39841638495712,-136.58888274074235,-134.5615801862859,-139.68979879062246,66.08499999996275
312481.8057,-100.73862177380045,-144.46467236496514,-141.90431709906403,-147.4496246801399,66.08600000001024
312481.8067,-107.13584083605923,-148.69377302352342,-145.97932671605193,-151.71557620572744,66.08699999999953
312481.8077,-110.39787641896154,-149.16663397883212,-146.72871062897335,-152.4010370166727,66.08799999998882
312481.8087,-110.43888451546684,-145.8923276183356,-144.1944345137982,-149.53217425455313,66.08899999997811
312481.8097,-107.27983768850416,-138.99577889584674,-138.51492137985198,-143.24479545964434,66.0899999999674
312481.8107,-101.04408840110388,-128.71003587551488,-129.91739460015353,-133.77637920912167,66.0909999999567
312481.8117,-91.94853413292724,-115.36420011305708,-118.7065544957282,-121.45388976649225,66.09200000000419
312481.8127,-80.29114534435756,-99.36787514194526,-105.25039480021773,-106.67822923083756,66.09299999999348
312481.8137,-66.43580589681343,-81.19315882667254,-89.96411549774551,-89.90635189137961,66.09399999998277
312481.8147,-50.795520919249576,-61.35529029995578,-73.29315595483261,-71.6321533605957,66.09499999997206
312481.8157,-33.8150645213309,-40.39306141071956,-55.6963545725953,-52.367247687798795,66.09599999996135
312481.8167,-15.954072377741683,-18.850020305114395,-37.63014402777244,-32.62266284123072,66.09700000000885
312481.8177,2.3285572817446982,2.742657940309594,-19.53452751485345,-12.892329677299417,66.09799999999814
312481.8187,20.58828938857739,23.88096499404712,-1.821370044273162,6.360971191819114,66.09899999998743
312481.8197,38.40617391113233,44.100087631837944,15.134697621609984,24.716785025965056,66.09999999997672
312481.8207,55.39747957466864,62.98349008616384,31.002702422494302,41.805116799269996,66.100999999966
312481.8217,71.21778942382255,80.16910584680406,45.49923572052056,57.311601270331174,66.1019999999553
312481.8227,85.56680908090425,95.35289737839982,58.39017373278594,70.97999525561089,66.1030000000028
312481.8237,98.19028868430385,108.29019575968404,69.49066114599414,82.61243463821233,66.10399999999208
312481.8247,108.88054746152294,118.79532553956528,78.66386311880015,92.06799250005946,66.10499999998137
312481.8257,117.4761110584861,126.74004875730027,85.8189826500797,99.26010137240803,66.10599999997066
312481.8267,123.86092855663759,132.05132834936924,90.90897428811068,104.15336445458873,66.10699999995995
312481.8277,127.963537690643,134.70882359256277,93.92827350491733,106.76018688491914,66.10800000000745
312481.8287,129.7564078781105,134.74240260905722,94.91072031973518,107.13752344121946,66.10899999999674
312481.8297,129.2555300262812,132.2298068365128,93.92770498728036,105.38388197952223,66.10999999998603
312481.8307,126.52016039406723,127.29444916115477,91.08642221227385,101.63656291599189,66.11099999997532
312481.8317,121.65248351475829,120.1031903345752,86.52800614277395,96.06897416842821,66.11199999996461
312481.8327,114.79685434469926,110.86383430930977,80.42524550833318,88.88775570585634,66.11300000001211
312481.8337,106.13822606366934,99.822025157857,72.97955591050479,80.32939129933969,66.1140000000014
312481.8347,95.89937517634124,87.25722381143973,64.41691781179487,70.65598452619857,66.11499999999069
312481.8357,84.33660097164423,73.47749331938952,54.98257148614798,60.149932324538426,66.11599999997998
312481.8367,71.73369642577048,58.812921740219174,44.934385645584314,49.10733662730712,66.11699999996927
312481.8377,58.39415050343161,43.60765142614331,34.53497139110855,37.8301411107238,66.11799999995856
312481.8387,44.63173072345688,28.210647031614965,24.042780854139355,26.617149503208786,66.11900000000605
312481.8397,30.759789711373045,12.965503740387376,13.702591925796908,15.754254928309148,66.11999999999534
312481.8407,17.079818917954135,-1.8002474351821156,3.7359183868522616,5.504366204905435,66.12099999998463
312481.8417,3.869916330557104,-15.78575731687819,-5.66801803349606,-3.902362096176235,66.12199999997392
312481.8427,-8.626074525363922,-28.726743898444866,-14.360073736247173,-12.277319556130736,66.12299999996321
312481.8437,-20.20797221596358,-40.40397352716886,-22.23706624746006,-19.48056636300083,66.12400000001071
312481.8447,-30.726476788485467,-50.64971354530591,-29.24517633196167,-25.425673037833207,66.125
312481.8457,-40.08758456587322,-59.351642237788504,-35.38043601622434,-30.081775735572617,66.12599999998929
312481.8467,-48.25376406667765,-66.45386729028922,-40.68606548497657,-33.472531952245774,66.12699999997858
312481.8477,-55.24169017025994,-71.95491095918865,-45.24665462355013,-35.67188638293153,66.12799999996787
312481.8487,-61.1165948918145,-75.90275067993431,-49.17943525812818,-36.7968046165164,66.12899999995716
312481.8497,-65.98356126555456,-78.38723685133372,-52.623136141301025,-36.99738093566705,66.13000000000466
312481.8507,-69.97633758027696,-79.53042309351513,-55.72513201847234,-36.444952415577106,66.13099999999395
312481.8517,-73.24445930438792,-79.47551773321241,-58.62776969917186,-35.31903285603232,66.13199999998324
312481.8527,-75.93961551218774,-78.37528136063959,-61.45486044506601,-33.79399850159746,66.13299999997253
312481.8537,-78.20227082222895,-76.38074197565884,-64.29935698229849,-32.026500180925304,66.13399999996182
312481.8547,-80.14954494368062,-73.63107097677798,-67.21317954057237,-30.144537530730137,66.13500000000931
312481.8557,-81.86525972321715,-70.24536172513898,-70.20002044297829,-28.239012124020398,66.1359999999986
312481.8567,-83.39289565543413,-66.31688644452417,-73.2117503123062,-26.358386971040314,66.13699999998789
312481.8577,-84.73197074895322,-61.9101919083172,-76.14878705247435,-24.506836161404735,66.13799999997718
312481.8587,-85.83808460597727,-57.06114963747644,-78.86449285228838,-22.645991764360463,66.13899999996647
312481.8597,-86.62658335822061,-51.77982492379472,-81.17335932370291,-20.70011005532818,66.13999999995576
312481.8607,-86.97952176755847,-46.05579415727157,-82.86245232261959,-18.56421099970476,66.14100000000326
312481.8617,-86.75535126677028,-39.86534312736194,-83.70534039304806,-16.114517297466627,66.14199999999255
312481.8627,-85.80056751322435,-33.179837711037415,-83.47754483154552,-13.220351791225506,66.14299999998184
312481.8637,-83.9624234294139,-25.974484561338866,-81.9724402229366,-9.756558454929852,66.14399999997113
312481.8647,-81.10176243019882,-18.23669825402076,-79.0165101815785,-5.61549922770171,66.14499999996042
312481.8657,-77.1050531394449,-9.973360901033788,-74.48292461777937,-0.7177457550930038,66.14600000000792
312481.8667,-71.89480586053298,-1.2163917640036204,-68.30254531771074,4.9792766082660584,66.1469999999972
312481.8677,-65.43771057751238,7.973776631560183,-60.47167242687118,11.475240086002032,66.1479999999865
312481.8687,-57.75003958296209,17.50701173155692,-51.0560966401092,18.72377628999279,66.14899999997579
312481.8697,-48.90008504921427,27.264564094913744,-40.1912980496849,26.63231672298814,66.14999999996508
312481.8707,-39.00763191119752,37.1021992325679,-28.078908754165845,35.064741495971376,66.15100000001257
312481.8717,-28.240679093558633,46.85498790016928,-14.979809277775992,43.846457152001385,66.15200000000186
312481.8727,-16.809799866520088,56.34324367701267,-1.2044381827453574,52.77136389092527,66.15299999999115
312481.8737,-4.960661621304456,65.37903397808135,12.89895585365284,61.61007271668953,66.15399999998044
312481.8747,7.0347014853066,73.77269020028123,26.95730969463272,70.11870055091714,66.15499999996973
312481.8757,18.887255121405808,81.33880212331869,40.586171380422506,78.0476058510953,66.15599999995902
312481.8767,30.300403645098317,87.90129259629543,53.40279901623372,85.14952181136103,66.15700000000652
312481.8777,40.97902213657032,93.29731751901863,65.03829622337422,91.18668608475954,66.15799999999581
312481.8787,50.637724668017064,97.37990611385302,75.14831132191192,95.93673797600674,66.1589999999851
312481.8797,59.00815302293356,100.01942852382084,83.42201620500369,99.19733634623155,66.15999999997439
312481.8807,65.84521360824728,101.10413290140734,89.58927394415419,100.78962347648232,66.16099999996368
312481.8817,70.93232008955304,100.54011526075962,93.42608117384088,100.56080262895941,66.16200000001118
312481.8827,74.08580118532262,98.25115886513647,94.75851418111351,98.38619405099732,66.16300000000047
312481.8837,75.15869630112938,94.1788970642402,93.46550236570376,94.17117456379918,66.16399999998976
312481.8847,74.04417987507641,88.28371123713121,89.48079074315979,87.85338453029895,66.16499999997905
312481.8857,70.67882704301257,80.54667682372211,82.79443207317111,79.40550432917848,66.16599999996834
312481.8867,65.04586226037843,70.97272414128855,73.45407309411131,68.83876841469532,66.16699999995762
312481.8877,57.17842738537625,59.5950006435325,61.56617837067374,56.207212404619085,66.16800000000512
312481.8887,47.16277899804388,46.48022519683888,47.29718461976631,41.61245582077374,66.16899999999441
312481.8897,35.14119179361262,31.734632797739657,30.87441686048705,25.208631441318992,66.1699999999837
312481.8907,21.314222486649907,15.509940367198583,12.58644585608081,7.206903948622515,66.17099999997299
312481.8917,5.941893231252329,-1.9913601845617126,-7.217555736636293,-12.12110335157329,66.17199999996228
312481.8927,-10.656700444242974,-20.512140808395213,-28.129975557795728,-32.44171690527649,66.17300000000978
312481.8937,-28.105853849592393,-39.738962720792166,-49.68897256058785,-53.36018716634402,66.17399999999907
312481.8947,-45.97822934419874,-59.30326371476259,-71.38521218938594,-74.42486715153755,66.17499999998836
312481.8957,-63.80266865326092,-78.78593062595283,-92.67147664498171,-95.13506322320438,66.17599999997765
312481.8967,-81.07499623824766,-97.72556404583635,-112.9753140720657,-114.95278699789763,66.17699999996694
312481.8977,-97.27175740503365,-115.63047724324177,-131.71465424077437,-133.31834644645937,66.17799999995623
312481.8987,-111.86659772479065,-131.99417743427557,-148.31605224978824,-149.66939426703996,66.17900000000373
312481.8997,-124.34874731494081,-146.31377888537244,-162.23494957724265,-163.46272919498332,66.17999999999302
312481.9007,-134.24284642752625,-158.11051926635852,-172.97708917211907,-174.19784955704583,66.1809999999823
312481.9017,-141.12915940619783,-166.95131796279043,-180.12001362721716,-181.44101582209316,66.1819999999716
312481.9027,-144.66309206488341,-172.47014961243536,-183.33343545047185,-184.84841458840955,66.18299999996088
312481.9037,-144.59286851614192,-174.38792495806345,-182.39721366228665,-184.1869492023906,66.18400000000838
312481.9047,-140.7742473564916,-172.52958468103455,-177.21571211018178,-179.35122334743573,66.18499999999767
312481.9057,-133.1812669882355,-166.8372230341797,-167.8274545813755,-170.3754360338241,66.18599999998696
312481.9067,-121.91220142634597,-157.3782615744925,-154.4092239108568,-157.43916273413313,66.18699999997625
312481.9077,-107.19016963550833,-144.3479760084905,-137.27406231962246,-140.8663422179112,66.18799999996554
312481.9087,-89.35815520665803,-128.06602110376826,-116.86299629813362,-121.11719829928674,66.18900000001304
312481.9097,-68.86853586461419,-108.96697444920531,-93.73070396740536,-98.77327046475521,66.19000000000233
312481.9107,-46.267567567838555,-87.58530095638466,-68.52573516967098,-74.5161737161778,66.19099999999162
312481.9117,-22.17558856315559,-64.53549691754823,-41.96625306957478,-49.101121526921325,66.19199999998091
312481.9127,2.73602107759483,-40.48847737486786,-14.812561444057717,-23.326594145887523,66.1929999999702
312481.9137,27.769891130975502,-16.145499823234857,12.162110392809202,1.9982099970710785,66.19399999995949
312481.9147,52.22838147281922,7.788946609770162,38.2009902821895,26.086359633211305,66.19500000000698
312481.9157,75.43861605718958,30.633824072813464,62.59174942421902,48.20481448415184,66.19599999999627
312481.9167,96.77556100879028,51.756409114049205,84.6916507960696,67.70299648634841,66.19699999998556
312481.9177,115.6820518195236,70.5941108204539,103.9486424609085,84.03684045269907,66.19799999997485
312481.9187,131.6849227963215,86.67226581730245,119.91748382998374,96.78717652337703,66.19899999996414
312481.9197,144.4066914953065,99.61723709803088,132.27035307344028,105.67168767672354,66.20000000001164
312481.9207,153.5725755400428,109.16448015737316,140.80176770818233,110.55011516514908,66.20100000000093
312481.9217,159.0129408536336,115.16157916406543,145.42802545045126,111.42281860447552,66.20199999999022
312481.9227,160.66157174709807,117.56657008849677,146.18170789626421,108.42320178749964,66.20299999997951
312481.9237,158.55039079929693,116.4421322910611,143.20205922967466,101.80485992101353,66.2039999999688
312481.9247,152.801422036596,111.94642611669705,136.72223666139445,91.92456489307469,66.20499999995809
312481.9257,143.61687389992642,104.32146972374832,127.05451800343002,79.22236649207859,66.20600000000559
312481.9267,131.26821640050636,93.87997991768471,114.57454343069541,64.20014261885862,66.20699999999488
312481.9277,116.08504548060367,80.99155344957973,99.70557103202695,47.39988335381551,66.20799999998417
312481.9287,98.44438012804615,66.06894867309335,82.90355528613034,29.38285398380804,66.20899999997346
312481.9297,78.7608433806396,49.55506007355701,64.64363639526421,10.71056982200503,66.20999999996275
312481.9307,57.47795997223147,31.910981275753958,45.40838247731675,-8.071744840227446,66.21100000001024
312481.9317,35.06058540650903,13.605348531922255,25.677882897724665,-26.448823023387416,66.21199999999953
312481.9327,11.988287017800747,-4.895031601369471,5.921574603275975,-43.9460318364012,66.21299999998882
312481.9337,-11.250652961980789,-23.133420651084514,-13.408485068927778,-60.13719042339637,66.21399999997811
312481.9347,-34.165034477137446,-40.67050831523753,-31.883291572323714,-74.64985482695758,66.2149999999674
312481.9357,-56.266784676066614,-57.09119842514739,-49.10194138724776,-87.16852652459936,66.2159999999567
312481.9367,-77.07765691911668,-72.01111496143994,-64.69645267452694,-97.43630190348576,66.21700000000419
312481.9377,-96.13688665211993,-85.08305854344808,-78.33666419583368,-105.25547094880524,66.21799999999348
312481.9387,-113.00995489366215,-96.00353679996553,-89.7353817726356,-110.48750290476882,66.21899999998277
312481.9397,-127.298426173482,-104.51935674741141,-98.65377908208457,-113.05273843203943,66.21999999997206
312481.9407,-138.65063235342836,-110.43412153887388,-104.90689260940447,-112.92995983330475,66.22099999996135
312481.9417,-146.77278813214198,-113.61433641120018,-108.36890035443281,-110.15585346003225,66.22200000000885
312481.9427,-151.4399683420228,-113.99471703995624,-108.9777593115351,-104.82423173842894,66.22299999999814
312481.9437,-152.5062684979776,-111.58222269995593,-106.73871239243233,-97.08476466459422,66.22399999998743
312481.9447,-149.9134208858867,-106.45831721242013,-101.7261701951895,-87.14089662250186,66.22499999997672
312481.9457,-143.69715540246878,-98.77899787746536,-94.08352914855573,-75.24660328669657,66.225999999966
312481.9467,-133.99067760113925,-88.77222579951771,-84.0206006973607,-61.70167845177411,66.2269999999553
312481.9477,-121.02477982316071,-76.73253372761461,-71.80848578993808,-46.84532885944833,66.2280000000028
312481.9487,-105.12429303365697,-63.01276802661317,-57.77191938278125,-31.047987534396718,66.22899999999208
312481.9497,-86.70081061139663,-48.013123813943075,-42.279311952185125,-14.701418898911067,66.22999999998137
312481.9507,-66.24185146541713,-32.167838171878536,-25.730908558987032,1.7926353926601504,66.23099999997066
312481.9517,-44.296857974771385,-15.930096379441695,-8.545650895648576,18.034851503188882,66.23199999995995
312481.9527,-21.460624736772267,0.24413794448508955,8.852553387244178,33.64119658654717,66.23300000000745
312481.9537,1.6450899299115473,15.91255142363558,26.04838987218594,48.25561471975933,66.23399999999674
312481.9547,24.39091889396529,30.662304856872634,42.64776712567908,61.5618120594721,66.23499999998603
312481.9557,46.159321900977396,44.12440901228909,58.28883207068489,73.29344127524762,66.23599999997532
312481.9567,66.3632465566247,55.98589387583448,72.65081973578349,83.24206174238567,66.23699999996461
312481.9577,84.46324887965264,65.99915638069865,85.46036819148141,91.26238589040808,66.23800000001211
312481.9587,99.9824462117181,73.98806108181361,96.49514253623332,97.27450214724075,66.2390000000014
312481.9597,112.51884730926257,79.85058703505581,105.58483512406796,101.26297485831951,66.23999999999069
312481.9607,121.75479209930498,83.55804300218219,112.60982083654261,103.27294193499043,66.24099999997998
312481.9617,127.4634182040587,85.15109203560624,117.49792507337487,103.40354114789503,66.24199999996927
312481.9627,129.5122355531421,84.73301681872586,120.21989041403272,101.79917627449645,66.24299999995856
312481.9637,127.86401998582436,82.460803351432,120.78419279999596,98.63926817050917,66.24400000000605
312481.9647,122.57532216008205,78.53471190171734,119.2318532939958,94.12721154992093,66.24499999999534
312481.9657,113.79292547741167,73.18703556789708,115.6318179156975,88.47927019963058,66.24599999998463
312481.9667,101.74857829562231,66.67071944712113,110.07734391947517,81.91409254112442,66.24699999997392
312481.9677,86.75227933484257,59.24843432414689,102.68365087487977,74.64342337287394,66.24799999996321
312481.9687,69.1843234668018,51.18258002289171,93.58688881277952,66.86443934741733,66.24900000001071
312481.9697,49.48623367510172,42.72655069664995,82.94426633823343,58.75396237335429,66.25
312481.9707,28.150630610422677,34.11744467197289,70.93499246046555,50.46462587739203,66.25099999998929
312481.9717,5.710039438758237,25.57026198570372,57.761538542742706,42.12290277641098,66.25199999997858
312481.9727,-17.275383034949495,17.273518152210933,43.65063855777109,33.82876784580887,66.25299999996787
312481.9737,-40.23119228790725,9.386123690287254,28.853427852118248,25.656673481725473,66.25399999995716
312481.9747,-62.58299297195165,2.035341112320045,13.644176455799105,17.65747362922491,66.25500000000466
312481.9757,-83.77158285154484,-4.68436564060545,-1.682801813414119,9.860936628570713,66.25599999999395
312481.9767,-103.26858288921983,-10.71173549342924,-16.81830066736828,2.278538499813833,66.25699999998324
312481.9777,-120.59208673754598,-16.018450207998246,-31.445447914132995,-5.093687006156665,66.25799999997253
312481.9787,-135.321725514253,-20.608215749357036,-45.2487848153257,-12.27236103756201,66.25899999996182
312481.9797,-147.11243498447206,-24.515117390604406,-57.92474765212052,-19.28404737053597,66.26000000000931
312481.9807,-155.70615076283354,-27.8011247787962,-69.19290651614024,-26.162534339892673,66.2609999999986
312481.9817,-160.94065765919345,-30.552596465028397,-78.80717718130889,-32.94596488473645,66.26199999998789
312481.9827,-162.75489087515152,-32.87564444464525,-86.56615425558735,-39.673642124757535,66.26299999997718
312481.9837,-161.19013140872514,-34.89027154964092,-92.32172697150476,-46.3823555458681,66.26399999996647
312481.9847,-156.3867500661672,-36.72328616180967,-95.9852343106625,-53.10213438682226,66.26499999995576
312481.9857,-148.5764207296846,-38.50012237278974,-97.53058683149601,-59.851434059634165,66.26600000000326
312481.9867,-138.07002423136663,-40.33583734214437,-96.99401408948803,-66.63188706464412,66.26699999999255
312481.9877,-125.24177464706514,-42.32570550293182,-94.47036804976679,-73.42288647604863,66.26799999998184
312481.9887,-110.51039264019694,-44.53596367509489,-90.10619911314697,-80.17639983860894,66.26899999997113
312481.9897,-94.31839812631559,-46.99536410423611,-84.09009502572181,-86.81251589159352,66.26999999996042
312481.9907,-77.11077209250462,-49.6882477635396,-76.64100742595345,-93.21628914394103,66.27100000000792
312481.9917,-59.31432522761995,-52.549845454776566,-67.99546289462147,-99.23645473421522,66.2719999999972
312481.9927,-41.31909687099523,-55.464442164898735,-58.394647709494926,-104.68653022728903,66.2729999999865
312481.9937,-23.46298839309485,-58.26690009882751,-48.07235834078897,-109.34870047084664,66.27399999997579
312481.9947,-6.020616807712523,-60.74783412043011,-37.24472210236562,-112.98070179093685,66.27499999996508
312481.9957,10.802927217373469,-62.66248305183006,-26.10242230481265,-115.3256948817532,66.27600000001257
312481.9967,26.87309414903588,-63.74304025443048,-14.805925942102663,-116.12485984703703,66.27700000000186
312481.9977,42.12173202482997,-63.71392015521496,-3.483932135569393,-115.13218435848654,66.27799999999115
312481.9987,56.538242753460274,-62.309168943683744,7.765036784052065,-112.13067135323188,66.27899999998044
312481.9997,70.15685095209056,-59.29100225262293,18.86826416745032,-106.948990402388,66.27999999996973
312482.0007,83.04108788437644,-54.46829219418261,29.77229624714508,-99.47745847262105,66.28099999995902
312482.0017,95.26679444325156,-47.71374766437118,40.435020198324594,-89.68217800342615,66.28200000000652
312482.0027,106.90504387165927,-38.97854572735304,50.8172619389944,-77.61619310605799,66.28299999999581
312482.0037,118.0063700734359,-28.30328080455511,60.874822470151045,-63.42665053900186,66.2839999999851
312482.0047,128.58756357378564,-15.824296923216147,70.55180503661492,-47.35716503710284,66.28499999997439
312482.0057,138.62207621533923,-1.774743375730629,79.77594062206086,-29.744874882119845,66.28599999996368
312482.0067,148.03477714424795,13.519973788521295,88.45641163407845,-11.012012930169188,66.28700000001118
312482.0077,156.70145208846662,29.65230742979555,96.48442387312492,8.347814685783739,66.28800000000047
312482.0087,164.4530644311858,46.1478452608242,103.73650904889139,27.78808343289371,66.28899999998976
312482.0097,171.08443016831998,62.48499173476969,110.08027911123534,46.731642585400884,66.28999999997905
312482.0107,176.36662796422567,78.11800241869571,115.38212293251252,64.59566653577818,66.29099999996834
312482.0117,180.06219478680154,92.50208857783247,119.51615530935591,80.81788274382673,66.29199999995762
312482.0127,181.94196592880633,105.11916757262397,122.37361258409624,94.88258340517102,66.29300000000512
312482.0137,181.80231756944758,115.50278880152135,123.8718469441294,106.34491984996792,66.29399999999441
312482.0147,179.48156476980188,123.26081744407693,123.96210450318624,114.85207349383062,66.2949999999837
312482.0157,174.8743547083186,128.09460388992068,122.6353759463569,120.16008733777798,66.29599999997299
312482.0167,167.94306384083737,129.81359338280575,119.92577233753683,122.14541277272181,66.29699999996228
312482.0177,158.72544243473922,128.3446202760826,115.91108742451918,120.81055709247399,66.29800000000978
312482.0187,147.33803015026706,123.73546244198732,110.71044291377825,116.28358284647378,66.29899999999907
312482.0197,133.97516903216683,116.15257951548486,104.47915451426096,108.81158411876476,66.29999999998836
312482.0207,118.90374178438734,105.87329909555177,97.40118383344544,98.74862028652532,66.30099999997765
312482.0217,102.45404110283394,93.27302459116171,89.67973579442236,86.53890029562022,66.30199999996694
312482.0227,85.0074106317291,78.80829713848182,81.52670748557834,72.69625955820334,66.30299999995623
312482.0237,66.98147460767353,62.99673662844797,73.15178079276214,57.78114230081657,66.30400000000373
312482.0247,48.8138816073773,46.39500370525388,64.75197135689884,42.376386101540206,66.30499999999302
312482.0257,30.94552402739806,29.57596210053462,56.502399381859334,27.063100839737917,66.3059999999823
312482.0267,13.804160910296119,13.1061814572432,48.54893813370749,12.39784642387881,66.3069999999716
312482.0277,-2.210725123145895,-2.475186902463247,41.00323329484843,-1.107846449191449,66.30799999996088
312482.0287,-16.741153773783555,-16.67529208514473,33.9403846756287,-13.004784650120307,66.30900000000838
312482.0297,-29.481455866187012,-29.063556948512147,27.399358355457192,-22.919675539569436,66.30999999999767
312482.0307,-40.186366302748496,-39.28429948866416,21.38597114042586,-30.564638980366375,66.31099999998696
312482.0317,-48.67630382434418,-47.065785056003335,15.878079537808508,-35.742626633163,66.31199999997625
312482.0327,-54.83992512541168,-52.22570309540982,10.832430149052948,-38.34894546782405,66.31299999996554
312482.0337,-58.634194986240644,-54.67324326674983,6.19250248293206,-38.369279818151526,66.31400000001304
312482.0347,-60.082326762981644,-54.40808612355838,1.8966095165915386,-35.87475028326394,66.31500000000233
312482.0357,-59.27001257576493,-51.516716449748344,-2.11447845866118,-31.01463145069635,66.31599999999162
312482.0367,-56.3403784551609,-46.16651120579988,-5.89105516732744,-24.00737253536831,66.31699999998091
312482.0377,-51.488069978425685,-38.598051987674815,-9.46968745616866,-15.130529966267975,66.3179999999702
312482.0387,-44.95280637970397,-29.11607148188982,-12.870480436659452,-4.710138206991698,66.31899999995949
312482.0397,-37.012647144590275,-18.079375609328988,-16.096560008960427,6.890071664793173,66.32000000000698
312482.0407,-27.977108478160076,-5.890001144564828,-19.135713718949003,19.279330395612064,66.32099999999627
312482.0417,-18.180162518591075,7.01821335447003,-21.963917615263316,32.050225016304715,66.32199999998556
312482.0427,-7.973063954143867,20.19153412213083,-24.550290801552144,44.78880554741697,66.32299999997485
312482.0437,2.2831110587127217,33.168651277987756,-26.86287863309614,57.08446592494256,66.32399999996414
312482.0447,12.225351289407453,45.49335749201405,-28.874583867272182,68.53970499143651,66.32500000001164
312482.0457,21.497140569151256,56.72750982867489,-30.568550990518553,78.77987018187999,66.32600000000093
312482.0467,29.757489684125673,66.46414091112123,-31.942364510635432,87.46293685479478,66.32699999999022
312482.0477,36.69053184071335,74.34050029028892,-33.010542655865514,94.28928651165786,66.32799999997951
312482.0487,42.01552150865227,80.05070426103714,-33.80498274314755,99.0113290095471,66.3289999999688
312482.0497,45.496942226857435,83.35756589005912,-34.373227126775724,101.44268285007747,66.32999999995809
312482.0507,46.95429842666914,84.10308201764589,-34.77464881392604,101.46650157226779,66.33100000000559
312482.0517,46.27105611964178,82.21698592418608,-35.07488113434817,99.04243144000048,66.33199999999488
312482.0527,43.40212306595953,77.7227471376814,-35.339013873793014,94.2116226869123,66.33299999998417
312482.0537,38.379233790877514,70.7404243055467,-35.624228761042225,87.09920685880554,66.33399999997346
312482.0547,31.313637426457348,61.48585949973839,-35.97263401508262,77.91370464548416,66.33499999996275
312482.0557,22.395580426849644,50.26584366465623,-36.40507050493839,66.9429443764967,66.33600000001024
312482.0567,11.890229382048307,37.46907811384487,-36.91659763493694,54.546246876043185,66.33699999999953
312482.0577,0.12988298852850413,23.552995120056767,-37.474229566017094,41.142856969888555,66.33799999998882
312482.0587,-12.497437358957546,9.026765570152133,-38.01729340570125,27.196859192120197,66.33899999997811
312482.0597,-25.56267058927255,-5.5689068318265775,-38.46053857276874,13.199084277716185,66.3399999999674
312482.0607,-38.613070339593705,-19.684349823958005,-38.69986351603728,-0.35322968099327184,66.3409999999567
312482.0617,-51.19140057322302,-32.784773794210395,-38.62026782987197,-12.978036027104398,66.34200000000419
312482.0627,-62.85596273791538,-44.37418207828385,-38.10541016585159,-24.230189416161735,66.34299999999348
312482.0637,-73.20033198752868,-54.01803363012069,-37.04797830037786,-33.722030695361575,66.34399999998277
312482.0647,-81.87164726111747,-61.3633615345881,-35.359975495765916,-41.141612031055104,66.34499999997206
312482.0657,-88.58635393164064,-66.15515449018191,-32.98200827309969,-46.26742231451311,66.34599999996135
312482.0667,-93.1424373092923,-68.24800204205637,-29.890728204269912,-48.97865788513996,66.34700000000885
312482.0677,-95.42740175815919,-67.61227656884354,-26.103729114633392,-49.260347463715235,66.34799999999814
312482.0687,-95.42152762046263,-64.33445716610001,-21.681417854641506,-47.20296412351209,66.34899999998743
312482.0697,-93.19625471340896,-58.611568172200585,-16.725641376652852,-42.99651649879245,66.34999999997672
312482.0707,-88.9078710653308,-50.74007993660314,-11.375140147149194,-36.91947781148857,66.350999999966
312482.0717,-82.78700135936865,-41.099972029713484,-5.798180366799248,-29.32325500018863,66.3519999999553
312482.0727,-75.12466476744048,-30.134961305873144,-0.18296774716108608,-20.613193018221477,66.3530000000028
312482.0737,-66.2558834795408,-18.33012490759868,5.273360619504444,-11.22732706463706,66.35399999999208
312482.0747,-56.54195398534207,-6.188283563881081,10.3762513201159,-1.6142203336948822,66.35499999998137
312482.0757,-46.35253320768279,5.79345648879125,14.944809981793078,7.788752872038341,66.35599999997066
312482.0767,-36.04863950796457,17.14567485022325,18.821548252895305,16.575399737559387,66.35699999995995
312482.0777,-25.967531536432972,27.445958685045838,21.88005510510717,24.387873850349376,66.35800000000745
312482.0787,-16.410220873504624,36.33465573923161,24.030055424989353,30.930162268263334,66.35899999999674
312482.0797,-7.632118678015309,43.52643874274528,25.21957654986786,35.97735180004627,66.35999999998603
312482.0807,0.16296250728574332,48.81738837097137,25.434222328591886,39.380464650034845,66.36099999997532
312482.0817,6.825506198801991,52.0876276805757,24.69382626554944,41.066982695121816,66.36199999996461
312482.0827,12.259989546369503,53.299837319964084,23.046993063046468,41.03747616762708,66.36300000001211
312482.0837,16.422077611131588,52.49422370914594,20.56421787343584,39.35899175939528,66.3640000000014
312482.0847,19.31394011829583,49.78068382825073,17.330377420202307,36.156018821063626,66.36499999999069
312482.0857,20.978370933005802,45.32900006144636,13.437407367993826,31.599930099652372,66.36599999997998
312482.0867,21.492370149625703,39.35790506916671,8.9779152648542,25.897783876351728,66.36699999996927
312482.0877,20.960761266577432,32.12378667103172,4.040336215373622,19.281284722891552,66.36799999995856
312482.0887,19.51027604071985,23.90967038405712,-1.2939647604815951,11.996545422402418,66.36900000000605
312482.0897,17.28436694346239,15.014942398570719,-6.9514817319436615,4.295093883125357,66.36999999999534
312482.0907,14.438824154008081,5.74608156641132,-12.865341013405642,-3.5736493360161723,66.37099999998463
312482.0917,11.138103513313053,-3.5915206332983187,-18.972391561255133,-11.368409552913874,66.37199999997392
312482.0927,7.552134443074325,-12.700736091393185,-25.209146094561877,-18.860782021153476,66.37299999996321
312482.0937,3.8532887414392647,-21.299074251677208,-31.507245754044874,-25.838945142547775,66.37400000001071
312482.0947,0.21316253704362448,-29.124518468572546,-37.78918470030158,-32.11073903127449,66.375
312482.0957,-3.2011424950337486,-35.94108907023327,-43.965012159838444,-37.5064912712003,66.37599999998929
312482.0967,-6.231460714152354,-41.54433981091098,-49.9306299246646,-41.881912991169266,66.37699999997858
312482.0977,-8.733810447562007,-45.76688807641228,-55.56813344044991,-45.12127535416204,66.37799999996787
312482.0987,-10.584363682119184,-48.483940189608205,-60.74842191568018,-47.140925490323205,66.37899999995716
312482.0997,-11.685875961336864,-49.618621245899384,-65.33605036846122,-47.89303240882064,66.38000000000466
312482.1007,-11.974151567948226,-49.146775653209126,-69.1960403475077,-47.36929011169508,66.38099999999395
312482.1017,-11.423990821854817,-47.10079085223104,-72.20213284589086,-45.60416910461966,66.38199999998324
312482.1027,-10.053991469734788,-43.571930422107854,-74.2457810852487,-42.67721789781154,66.38299999997253
312482.1037,-7.929567659997792,-38.71065674579815,-75.24506212490056,-38.713886974314555,66.38399999996182
312482.1047,-5.163614011827825,-32.72448385817552,-75.1526477129841,-33.88438645454768,66.38500000000931
312482.1057,-1.91437722023084,-25.873026869981295,-73.96202150420046,-28.400195113960727,66.3859999999986
312482.1067,1.619705869248737,-18.460096842412412,-71.71125822879348,-22.508004647309654,66.38699999998789
312482.1077,5.208203133913001,-10.822913856551585,-68.483878882404,-16.481094285960214,66.38799999997718
312482.1087,8.59964955614296,-3.3187557041961684,-64.4065457051398,-10.608366728921613,66.38899999996647
312482.1097,11.534748985889223,3.690398655751536,-59.64363761643854,-5.181513078120273,66.38999999995576
312482.1107,13.761052901354681,9.854457532314989,-54.38902407666558,-0.4809873442884736,66.39100000000326
312482.1117,15.048172435232791,14.852099584803282,-48.85560620072314,3.238362979441589,66.39199999999255
312482.1127,15.202471587551697,18.406919306199857,-43.26339415634354,5.761063792925893,66.39299999998184
312482.1137,14.080167783137995,20.301788987827756,-37.827020338190245,6.923211059909968,66.39399999997113
312482.1147,11.597836298461733,20.390463793464235,-32.74363640006985,6.622192614758027,66.39499999996042
312482.1157,7.739474396607636,18.60561210309226,-28.182104962061818,4.823174817990209,66.39600000000792
312482.1167,2.559517550564427,14.962680673317385,-24.2742781190418,1.5618088381748976,66.3969999999972
312482.1177,-3.81850529867129,9.559285413162694,-21.10896704299105,-3.057120466681998,66.3979999999865
312482.1187,-11.20766280010053,2.5701305408845267,-18.728968770733193,-8.865081507624257,66.39899999997579
312482.1197,-19.367311309634477,-5.76222455870564,-17.13125100200521,-15.638893971130104,66.39999999996508
312482.1207,-28.016128220938604,-15.140136992580748,-16.27012885036262,-23.11293155009763,66.40100000001257
312482.1217,-36.84757503134754,-25.226329160269774,-16.06302406256069,-30.993587765800257,66.40200000000186
312482.1227,-45.5466924511895,-35.66097328386014,-16.39819951014168,-38.97499465208974,66.40299999999115
312482.1237,-53.8070350372469,-46.07927251952822,-17.14372710287565,-46.75489685836283,66.40399999998044
312482.1247,-61.346555426880975,-56.128391663168905,-18.156886521139484,-54.049585468529834,66.40499999996973
312482.1257,-67.92134769045309,-65.4826723432618,-19.293208737029957,-60.60688638507822,66.40599999995902
312482.1267,-73.33634650616087,-73.85623134585359,-20.41446801152745,-66.21636966534325,66.40700000000652
312482.1277,-77.4523370350595,-81.01227156972641,-21.395077688583026,-70.7161839094017,66.40799999999581
312482.1287,-80.18893666814473,-86.76871271940685,-22.1265416100632,-73.99620317369741,66.4089999999851
312482.1297,-81.52353735041821,-91.00004910645113,-22.51983326210339,-75.9974784844095,66.40999999997439
312482.1307,-81.48651750988401,-93.63563911688092,-22.50579585911556,-76.70828560654694,66.41099999996368
312482.1317,-80.15331829468988,-94.65489992687462,-22.033855929254564,-76.15732953042414,66.41200000001118
312482.1327,-77.63420589629177,-94.08009966593102,-21.0695007225038,-74.40488116259742,66.41300000000047
312482.1337,-74.06269188158757,-91.96758998245195,-19.591070722762897,-71.53276475455944,66.41399999998976
312482.1347,-69.58364556922672,-88.39839370704138,-17.586453680278368,-67.63417391985445,66.41499999997905
312482.1357,-64.34210359856831,-83.46905111295234,-15.050233901035522,-62.80426545854193,66.41599999996834
312482.1367,-58.473667258232574,-77.28353771708481,-11.981755223226983,-57.132367340602265,66.41699999995762
312482.1377,-52.09719078634939,-69.9469072885741,-8.384409927736645,-50.69645142207773,66.41800000000512
312482.1387,-45.310222898270624,-61.56110235047386,-4.266285773781716,-43.56028068547157,66.41899999999441
312482.1397,-38.187392726887374,-52.22313192746791,0.3578901804752713,-35.77336784326142,66.4199999999837
312482.1407,-30.78165567649495,-42.025565879316616,5.463757737488697,-27.373602655661752,66.42099999997299
312482.1417,-23.128059471113673,-31.059060241138294,11.013683327662005,-18.39214532258316,66.42199999996228
312482.1427,-15.249478243765573,-19.416429861157077,16.95298814130675,-8.859966785619351,66.42300000000978
312482.1437,-7.163610419546073,-7.197640542092972,23.206612670754318,1.1847366454360877,66.42399999999907
312482.1447,1.1095443221345427,5.484985460542724,29.676775325063304,11.689103810462148,66.42499999998836
312482.1457,9.540518409896604,18.502064213067303,36.24210969995071,22.57898820753368,66.42599999997765
312482.1467,18.084241515106402,31.703597124817268,42.75863689274885,33.75391423764984,66.42699999996694
312482.1477,26.675528161293347,44.91709963432383,49.06275924556565,45.08421110323286,66.42799999995623
312482.1487,35.22660034414868,57.947771276935384,54.9762676099091,56.410714139397335,66.42900000000373
312482.1497,43.62685127270096,70.58086774339837,60.31315550835161,67.54717925857494,66.42999999999302
312482.1507,51.74484257812534,82.58622688215081,64.88785049216592,78.28530319711999,66.4309999999823
312482.1517,59.43232678482556,93.72470234256059,68.52432376238876,88.4020046909833,66.4319999999716
312482.1527,66.52991769290047,103.75608881058199,71.06543826110352,97.66842173319785,66.43299999996088
312482.1537,72.87390776892991,112.4479961587739,72.3818524366269,105.85993553690787,66.43400000000838
312482.1547,78.3036626991346,119.58505619525847,72.37981540451474,112.76645467936439,66.43499999999767
312482.1557,82.66901217156689,124.97782948949964,71.00726694360198,118.20218817425828,66.43599999998696
312482.1567,85.83710017914615,128.4708198197444,68.25778480229847,122.01420179792288,66.43699999997625
312482.1577,87.69824985929434,129.94909373881828,64.17208963681598,124.08917905684801,66.43799999996554
312482.1587,88.17052499825695,129.34313178896775,58.83700873039961,124.35798226970412,66.43900000001304
312482.1597,87.20281774481414,126.63169197270635,52.381995841714534,122.7978118189313,66.44000000000233
312482.1607,84.77644329060634,121.84262935172794,44.97348834713192,119.43197201563304,66.44099999999162
312482.1617,80.90536099550395,115.05177198110098,36.80753797349135,114.32744942723177,66.44199999998091
312482.1627,75.63525320766672,106.3800879522869,28.10126445582383,107.59067507719791,66.4429999999702
312482.1637,69.0417666545275,95.98947897186073,19.083743065079485,99.36196051663417,66.44399999995949
312482.1647,61.22824996798667,84.07759435500502,9.986942711573784,89.80915943942382,66.44500000000698
312482.1657,52.32330298117049,70.87207192931132,1.0372821433210655,79.12110741638521,66.44599999999627
312482.1667,42.478392562226034,56.62458048998885,-7.551726205885383,67.50133503302378,66.44699999998556
312482.1677,31.865694607106526,41.60496832744631,-15.585411021974995,55.162442908835345,66.44799999997485
312482.1687,20.676205197794037,26.095724337661963,-22.892281051834004,42.32138459654159,66.44899999996414
312482.1697,9.118041404633727,10.386845737370548,-29.326759324992096,29.195742731511398,66.45000000001164
312482.1707,-2.585259629527738,-5.228905600367742,-34.77045854800236,16.00092434813928,66.45100000000093
312482.1717,-14.196720097567269,-20.4604728858754,-39.132271244622096,2.948062029877538,66.45199999999022
312482.1727,-25.468502158772957,-35.02288338343281,-42.34763564681994,-9.757694837005912,66.45299999997951
312482.1737,-36.14541031402281,-48.64175040962429,-44.37737675170279,-21.918867557295822,66.4539999999688
312482.1747,-45.96958243818005,-61.05809997049716,-45.20650797280513,-33.34768028103031,66.45499999995809
312482.1757,-54.686534159608264,-72.03366884997205,-44.843314869911175,-43.8687433893215,66.45600000000559
312482.1767,-62.05257913024686,-81.35672905882062,-43.31893657837295,-53.32258514217099,66.45699999999488
312482.1777,-67.8434794521204,-88.8483748069844,-40.6875255838413,-61.570081009570806,66.45799999998417
312482.1787,-71.86400361727902,-94.36907648887312,-37.02691861340219,-68.49766121217303,66.45899999997346
312482.1797,-73.95790314695806,-97.82517761506548,-32.43960850736594,-74.0230064539738,66.45999999996275
312482.1807,-74.01768284697438,-99.17490157162118,-27.053686581101413,-78.10079001507054,66.46100000001024
312482.1817,-71.99345011662619,-98.43336044078858,-21.023342566386866,-80.72791021210448,66.46199999999953
312482.1827,-67.90009882216624,-95.67602961958265,-14.528476236713178,-81.94759616106305,66.46299999998882
312482.1837,-61.82212009867834,-91.0401768864214,-7.7729976156308185,-81.85177206604544,66.46399999997811
312482.1847,-53.91543691219847,-84.72381480926275,-0.9814716934485149,-80.58113488365616,66.4649999999674
312482.1857,-44.40582553478435,-76.98187722326433,5.6061067462995195,-78.32253433726328,66.4659999999567
312482.1867,-33.58370333550511,-68.11949478204694,11.741453417779356,-75.3034333698548,66.46700000000419
312482.1877,-21.795311418343005,-58.482447513979096,17.176902214869564,-71.78345582990767,66.46799999999348
312482.1887,-9.43058199085549,-48.44508668686237,21.67573461845743,-68.04327653703646,66.46899999998277
312482.1897,3.091768448698912,-38.39622504723795,25.023402309170613,-64.37135417844013,66.46999999997206
312482.1907,15.341159994919076,-28.7236745327986,27.038966068172368,-61.04922639481376,66.47099999996135
312482.1917,26.89315696882279,-19.79824650086837,27.585976819474244,-58.33625714085764,66.47200000000885
312482.1927,37.3475349590388,-11.958107494309695,26.58199091068691,-56.454830869606766,66.47299999999814
312482.1937,46.345356729563385,-5.494394607956161,24.005947986561285,-55.57701377103467,66.47399999998743
312482.1947,53.58406301351286,-0.6389355533841216,19.902746047166968,-55.81364361869831,66.47499999997672
312482.1957,58.82971643396368,2.4452071809405833,14.38451772118511,-57.20666886967562,66.475999999966
312482.1967,61.92573387155834,3.6698316716322052,7.6283314071342545,-59.72534437451237,66.4769999999553
312482.1977,62.7976879899175,3.024020462934852,-0.12970737023803125,-63.26662222506961,66.4780000000028
312482.1987,61.45403156440961,0.5728311337851757,-8.603716807398541,-67.65977427566321,66.47899999999208
312482.1997,57.98287565882289,-3.5475569232511814,-17.47017443849821,-72.67497359440279,66.47999999998137
312482.2007,52.545211302463464,-9.137817617545952,-26.382224728396107,-78.03527249082596,66.48099999997066
312482.2017,45.36518284718031,-15.945959788340524,-34.98529417666806,-83.43117027862745,66.48199999995995
312482.2027,36.71818225448021,-23.67956146989881,-42.93305588939306,-88.53678606247973,66.48300000000745
312482.2037,26.91762529106063,-32.018930387190764,-49.90276833074452,-93.02655601164986,66.48399999999674
312482.2047,16.301287654758177,-40.63036244047391,-55.609073309888196,-96.59136862363327,66.48499999998603
312482.2057,5.218023052452557,-49.17873683928156,-59.815470322112965,-98.95313480466183,66.48599999997532
312482.2067,-5.984435392746063,-57.338813714949964,-62.34287570031498,-99.87695322725085,66.48699999996461
312482.2077,-16.970060024199192,-64.80477331959747,-63.07490781146472,-99.18025885717994,66.48800000001211
312482.2087,-27.423172052367885,-71.29773686774324,-61.95979226707556,-96.73861134529932,66.4890000000014
312482.2097,-37.05502862108787,-76.57121682228963,-59.009030780402774,-92.4880640470425,66.48999999999069
312482.2107,-45.60844020689681,-80.41463779286687,-54.293201607694996,-86.42432661957558,66.49099999997998
312482.2117,-52.86067522204046,-82.65522890713085,-47.9354391131721,-78.59916903699919,66.49199999996927
312482.2127,-58.625031482361884,-83.15869913494656,-40.10326039492935,-69.11469136853005,66.49299999995856
312482.2137,-62.75151893298701,-81.82915870227384,-30.9994598137335,-58.11618716020835,66.49400000000605
312482.2147,-65.12710055370701,-78.60873907927775,-20.85277630863955,-45.784352029403536,66.49499999999534
312482.2157,-65.67588140609321,-73.47729458665509,-9.908959072152646,-32.32753488197887,66.49599999998463
312482.2167,-64.3595285237797,-66.45245039908916,1.5772738803994701,-17.974606871220796,66.49699999997392
312482.2177,-61.178061368965814,-57.59010991121874,13.349056122569591,-2.9688495886471338,66.49799999996321
312482.2187,-56.1709922078968,-46.985367950675304,25.152826627521023,12.436939331929882,66.49900000001071
312482.2197,-49.41863802918239,-34.773615572830074,36.7424500331593,27.984133900635623,66.5
312482.2207,-41.04329009393063,-21.131486839109428,47.88219240380352,43.410962020924345,66.50099999998929
312482.2217,-31.20983084040105,-6.277204920090888,58.34885928537102,58.454534696405275,66.50199999997858
312482.2227,-20.125343283184286,9.530153679328262,67.93347142049112,72.85267005133703,66.50299999996787
312482.2237,-8.037272216452342,25.992935626979538,76.44286747464598,86.34599009223284,66.50399999995716
312482.2247,4.7702299024776424,42.77910373515702,83.70158300887874,98.68073039384886,66.50500000000466
312482.2257,17.98201225401229,59.52858480322939,89.55426683036117,109.61260226743426,66.50599999999395
312482.2267,31.25976051030962,75.86183154399612,93.86877072118159,118.91189507460003,66.50699999998324
312482.2277,44.25183194079213,91.39045362338827,96.53990101009498,126.36982016917851,66.50799999997253
312482.2287,56.60476272711652,105.7295634410389,97.49366731593913,131.80589805228033,66.50899999996182
312482.2297,67.97592994068464,118.51128841664493,96.69172241039061,135.07599878883465,66.51000000000931
312482.2307,78.04669391934439,129.39874297171713,94.1355737771554,136.08048394962606,66.5109999999986
312482.2317,86.53523975677942,138.09964693360124,89.87007569811063,134.771784913713,66.51199999998789
312482.2327,93.20829187674963,144.37873498808372,83.98569023539059,131.1607012696932,66.51299999997718
312482.2337,97.89090019379151,148.06813050460534,76.61904104080661,125.32072224688238,66.51399999996647
312482.2347,100.47359078281832,149.07495648021873,67.95137478713404,117.38976470016821,66.51499999995576
312482.2357,100.91633237564447,147.38561983290418,58.20468494324127,107.56887726285831,66.51600000000326
312482.2367,99.24898037823891,143.06642012901943,47.63543031449097,96.11766946386594,66.51699999999255
312482.2377,95.56810543762982,136.26038247481148,36.525980834951376,83.34646910832883,66.51799999998184
312482.2387,90.03037337997449,127.18047589386119,25.17412736374383,69.60546956823494,66.51899999997113
312482.2397,82.84289549574372,116.09963087545145,13.881181436288253,55.271377654111305,66.51999999996042
312482.2407,74.25119101639224,103.33819145930356,2.9393464885598544,40.73228974908747,66.52100000000792
312482.2417,64.52557800313238,89.2496094563981,-7.380852060801366,26.371688778992798,66.5219999999972
312482.2427,53.94691974102061,74.20529681479856,-16.84224629611257,12.552551704014938,66.5229999999865
312482.2437,42.79269163137313,58.57958799378776,-25.25100740681337,-0.39742324483952923,66.52399999997579
312482.2447,31.32429539808976,42.73572515612745,-32.464214918205386,-12.198521441352899,66.52499999996508
312482.2457,19.776436659730873,27.01366918902126,-38.394455082644015,-22.628838431283754,66.52600000001257
312482.2467,8.349208285416474,11.720369250677892,-43.01109734075227,-31.530621493068228,66.52700000000186
312482.2477,-2.7966995349412715,-2.87709196384787,-46.33813985021506,-38.8127728335167,66.52799999999115
312482.2487,-13.541491987207614,-16.555301724508517,-48.44877173775734,-44.449443308460474,66.52899999998044
312482.2497,-23.804552785341336,-29.13534088834526,-49.45704913809991,-48.47493345902985,66.52999999996973
312482.2507,-33.539850030580396,-40.480929927272754,-49.50730274056259,-50.97538839273105,66.53099999995902
312482.2517,-42.729008070592464,-50.49439524817608,-48.762067274882476,-52.07800228241657,66.53200000000652
312482.2527,-51.37274957380022,-59.11109795436153,-47.38943302626667,-51.938618075860106,66.53299999999581
312482.2537,-59.481510894096175,-66.29304886933537,-45.55075645524821,-50.728704515465495,66.5339999999851
312482.2547,-67.06606425236339,-72.0224471655829,-43.38962805494386,-48.622708129005666,66.53499999997439
312482.2557,-74.12894197128931,-76.2958258779142,-41.02288409666679,-45.78671177195411,66.53599999996368
312482.2567,-80.65735652572128,-79.11937251815473,-38.53427459598114,-42.36918990079431,66.53700000001118
312482.2577,-86.61815631526866,-80.50582891782147,-35.97117778469034,-38.49444683944524,66.53800000000047
312482.2587,-91.95516578959574,-80.47317756452534,-33.34450074091103,-34.25907604986963,66.53899999998976
312482.2597,-96.5890475522891,-79.0451111296824,-30.63164806728711,-29.73150780526027,66.53999999997905
312482.2607,-100.41961213056842,-76.25307775531104,-27.782197497081256,-24.95444351917701,66.54099999996834
312482.2617,-103.33030643235736,-72.13951637896392,-24.72571344402326,-19.949730881697377,66.54199999995762
312482.2627,-105.19445053644678,-66.76176081910313,-21.38097394177805,-14.725036110333972,66.54300000000512
312482.2637,-105.88267682359528,-60.19601133869148,-17.665795573102535,-9.281534986094425,66.54399999999441
312482.2647,-105.27096339677826,-52.54075549335969,-13.506621522411294,-3.6217840489441926,66.5449999999837
312482.2657,-103.24864788353909,-43.919067770817115,-8.847090120120493,2.2430483323116674,66.54599999997299
312482.2667,-99.72585535537522,-34.47932513849406,-3.65491916284202,8.287317277798838,66.54699999996228
312482.2677,-94.63986758088626,-24.39403259592983,2.0733869190976812,14.466969607480559,66.54800000000978
312482.2687,-87.96008839689117,-13.856643739664612,8.310290839370811,20.71790199009812,66.54899999999907
312482.2697,-79.69140703061332,-3.076467288536602,14.997494208019337,26.956727526306995,66.54999999998836
312482.2707,-69.87591180227379,7.728049084862806,22.04856099022198,33.083824881305915,66.55099999997765
312482.2717,-58.59304516074939,18.337191657121576,29.35352706092468,38.98831754701301,66.55199999996694
312482.2727,-45.958403748547674,28.538413408256613,36.78497281196767,44.554443942721726,66.55299999995623
312482.2737,-32.12146375306528,38.134656265439666,44.20493396126561,49.6686496934656,66.55400000000373
312482.2747,-17.262546114752972,46.951884608081905,51.471987714455324,54.22667366179004,66.55499999999302
312482.2757,-1.5893270768344208,54.845211231301015,58.44787913062357,58.139914322426385,66.5559999999823
312482.2767,14.666849113394607,61.70311860822557,65.00314141334871,61.34045057510072,66.5569999999716
312482.2777,31.25467850097759,67.44945074279603,71.02130343128827,63.7842415624485,66.55799999996088
312482.2787,47.9065492542582,72.04305747810587,76.40145277511473,65.45222767198524,66.55900000000838
312482.2797,64.34216428483164,75.47519347201363,81.05911450200762,66.34927910451292,66.55999999999767
312482.2807,80.2722571660672,77.76498616494153,84.92559440991815,66.50116597320688,66.56099999998696
312482.2817,95.40259579564122,78.9534694809131,87.94610179995351,65.94993131787001,66.56199999997625
312482.2827,109.43850549574009,79.09681397901537,90.07709329971155,64.74821419327014,66.56299999996554
312482.2837,122.09013824768866,78.25945561953368,91.28335366714332,62.953176880573494,66.56400000001304
312482.2847,133.07866472638827,76.50782628187287,91.53534422109033,60.6207270585749,66.56500000000233
312482.2857,142.1434731993109,73.90531875705746,90.807303433759,57.800688435582785,66.56599999999162
312482.2867,149.0503318534639,70.50898344035782,89.07648231033717,54.533465511574434,66.56699999998091
312482.2877,153.6003209768893,66.36826634128701,86.32375027000299,50.848580764508256,66.5679999999702
312482.2887,155.63918438620803,61.52587670825965,82.53563082028879,46.76525282769588,66.56899999995949
312482.2897,155.06660322239213,56.02063954910823,77.7076390214711,42.294953852323694,66.57000000000698
312482.2907,151.84477750744986,49.89196704877982,71.84861448909615,37.445657243215635,66.57099999999627
312482.2917,146.00562765107605,43.18539583273569,64.98559367491194,32.2272871839229,66.57199999998556
312482.2927,137.65591184192522,35.9585034779958,57.16865992213583,26.657730104503592,66.57299999997485
312482.2937,126.9796033577182,28.286451755251164,48.475161473082586,20.768681987164612,66.57399999996414
312482.2947,114.23698568989457,20.26641333635393,39.01270275479221,14.610594158847375,66.57500000001164
312482.2957,99.76009801844596,12.020223319967878,28.920393080782645,8.256046448612095,66.57600000000093
312482.2967,83.944387846388,3.6947497335354975,18.36797314567257,1.801014905173899,66.57699999999022
312482.2977,67.23668504031163,-4.540315714044803,7.552621207532624,-4.636301082008876,66.57799999997951
312482.2987,50.11988168840535,-12.497303172423369,-3.3065492916943846,-10.919189355174318,66.5789999999688
312482.2997,33.0949624464814,-19.977848555608663,-13.976070866381448,-16.898515130328164,66.57999999995809
312482.3007,16.661257577135107,-26.782175270898936,-24.217347246707625,-22.420785508646755,66.58100000000559
312482.3017,1.2959647771882576,-32.7197256767111,-33.79691706221109,-27.337569084950776,66.58199999999488
312482.3027,-12.565910919647711,-37.62034175236877,-42.497030671830636,-31.515492240744013,66.58299999998417
312482.3037,-24.550028900437542,-41.345112166348954,-50.125759730227024,-34.84594627072681,66.58399999997346
312482.3047,-34.35849212630642,-43.79599923749169,-56.52587527521408,-37.25363362901613,66.58499999996275
312482.3057,-41.78197976774992,-44.923435312423074,-61.58181760291122,-38.70315920122378,66.58600000001024
312482.3067,-46.70750411584217,-44.73122743455898,-65.22423285707458,-39.20302726164675,66.58699999999953
312482.3077,-49.12134495800467,-43.27831850737102,-67.43175347468099,-38.80662259149452,66.58799999998882
312482.3087,-49.10703267684967,-40.6772033924807,-68.22993348818831,-37.61001464524377,66.58899999997811
312482.3097,-46.83857958689996,-37.08906655130731,-67.6874927732676,-35.74670177624542,66.5899999999674
312482.3107,-42.56947074983711,-32.71596924655854,-65.91025293519928,-33.37968153942052,66.5909999999567
312482.3117,-36.618195187489476,-27.79064496667381,-63.03333902778612,-30.691466896632498,66.59200000000419
312482.3127,-29.351304102701253,-22.564640673128327,-59.21235652033649,-27.872844080093053,66.59299999999348
312482.3137,-21.165108141491707,-17.295652873944558,-54.6143181938487,-25.111268975186775,66.59399999998277
312482.3147,-12.467161833606829,-12.23494226582317,-49.409084301673026,-22.579815707537914,66.59499999997206
312482.3157,-3.6586291832231064,-7.615667205380046,-43.76199254821259,-20.427522668038723,66.59599999996135
312482.3167,4.881512825613292,-3.6428606793821854,-37.82820121192331,-18.77183505072896,66.59700000000885
312482.3177,12.809681633863576,-0.48560081843242786,-31.749065012545426,-17.693634425718543,66.59799999999814
312482.3187,19.827809616274607,1.7282900566615564,-25.650630382270293,-17.235096356626123,66.59899999998743
312482.3197,25.690156557909418,2.9149162043547308,-19.644099067838116,-17.400351893557772,66.59999999997672
312482.3207,30.20686701098944,3.0344756482025113,-13.827891480311111,-18.158674445752826,66.600999999966
312482.3217,33.24457202670091,2.0892513510451467,-8.290766926964181,-19.44969508043843,66.6019999999553
312482.3227,34.7245324659958,0.11990883110184812,-3.1153454180293645,-21.189987709879723,66.6030000000028
312482.3237,34.61895392981519,-2.799322150891167,1.6186625588375292,-23.28027585751644,66.60399999999208
312482.3247,32.94616211381595,-6.565975920753454,5.832171339641197,-25.612502223547203,66.60499999998137
312482.3257,29.76531040071338,-11.05462211912878,9.445917438816755,-28.076070518025617,66.60599999997066
312482.3267,25.171204569395478,-16.121611904840208,12.381495522947546,-30.56270753280028,66.60699999995995
312482.3277,19.289685219033455,-21.608978037924302,14.564362699398403,-32.96958678713772,66.60800000000745
312482.3287,12.273824910630674,-27.347344730780936,15.928690409248485,-35.20058257097771,66.60899999999674
312482.3297,4.300995749842765,-33.15788988815364,16.4236950091476,-37.16576082555009,66.60999999998603
312482.3307,-4.429332756407973,-38.85357756212538,16.020858179328794,-38.77943613828378,66.61099999997532
312482.3317,-13.69737402263056,-44.24002211612032,14.72128040931851,-39.95730880011371,66.61199999996461
312482.3327,-23.264812861315693,-49.11644098863183,12.562314153659537,-40.61332278029688,66.61300000001211
312482.3337,-32.87709266613477,-53.2771883232531,9.622610367207512,-40.656940722187244,66.6140000000014
312482.3347,-42.26668373600482,-56.51433155631995,6.0247875972939795,-39.99150884467004,66.61499999999069
312482.3357,-51.15773785669007,-58.6216386575959,1.9350926244315307,-38.51428394581135,66.61599999997998
312482.3367,-59.27239460643507,-59.40019326841433,-2.4403465473638994,-36.118525335020706,66.61699999996927
312482.3377,-66.33881648977763,-58.665662772761216,-6.862790392764774,-32.697832282217796,66.61799999995856
312482.3387,-72.10081200876206,-56.257029473956266,-11.07148396163208,-28.15265386059608,66.61900000000605
312482.3397,-76.32868083699837,-52.046379616388435,-14.797072889338237,-22.39863783841399,66.61999999999534
312482.3407,-78.83070742198845,-45.94915189452168,-17.77705266627453,-15.376244699588625,66.62099999998463
312482.3417,-79.4645616312196,-37.93409778278651,-19.772240967006642,-7.0608567588938564,66.62199999997392
312482.3427,-78.1477571602755,-28.032118326769503,-20.583117779469795,2.527518267785433,66.62299999996321
312482.3437,-74.86628466401166,-16.34312830564622,-20.06482649952778,13.315899792892136,66.62400000001071
312482.3447,-69.68058441723913,-3.0401644243338284,-18.139677765247587,25.172255008727507,66.625
312482.3457,-62.72815249330682,11.629902608793042,-14.8061443252859,37.90247324158375,66.62599999998929
312482.3467,-54.222276836087424,27.349481196941586,-10.143568579789079,51.250974169564635,66.62699999997858
312482.3477,-44.446659801290544,43.73736371814502,-4.312105665258222,64.90526230376986,66.62799999996787
312482.3487,-33.74598040070471,60.359697565228146,2.452231022888358,78.50443294057077,66.62899999995716
312482.3497,-22.51275715634888,76.74440040749226,9.847197180638199,91.6513153086659,66.63000000000466
312482.3507,-11.171163934564031,92.39832358347485,17.518051875797667,103.92763572735363,66.63099999999395
312482.3517,-0.1586998951815747,106.82624079037075,25.074536969069193,114.91132513836638,66.63199999998324
312482.3527,10.09320247409358,119.55058120896672,32.11001422241371,124.19490556125571,66.63299999997253
312482.3537,19.17844806613992,130.1307522470778,38.22153557002745,131.4037869508046,66.63399999996182
312482.3547,26.73424023549992,138.18091496510297,43.0295838960861,136.21329975739957,66.63500000000931
312482.3557,32.4566345832215,143.38518424636192,46.19628381519989,138.3633803117846,66.6359999999986
312482.3567,36.11276745508607,145.50941663334817,47.44103664266067,137.67000781668904,66.63699999998789
312482.3577,37.54909458911472,144.40900447932623,46.55276494220154,134.03274653361277,66.63799999997718
312482.3587,36.6952803251072,140.0323925532621,43.398237045790395,127.4380510703512,66.63899999996647
312482.3597,33.56370720051204,132.42034550742642,37.92625364313898,117.9583182548839,66.63999999995576
312482.3607,28.244900131980025,121.70129348488776,30.167788111236934,105.74698586237115,66.64100000000326
312482.3617,20.899449718461824,108.08334199828502,20.232451984002655,91.0302575582126,66.64199999999255
312482.3627,11.747249768478923,91.84372863287595,8.30188293037822,74.09624998044731,66.64299999998184
312482.3637,1.0550149877846755,73.31662706086054,-5.379193057043306,55.282493524505824,66.64399999997113
312482.3647,-10.876896390125097,52.88023011802594,-20.513401085031603,34.962762948374866,66.64499999996042
312482.3657,-23.72736674140978,30.943988678881922,-36.761845364286856,13.534166348050459,66.64600000000792
312482.3667,-37.166247624925845,7.9367505734140815,-53.7552008902563,-8.594710575730662,66.6469999999972
312482.3677,-50.86427135099006,-15.703649966484946,-71.1041948136459,-31.014007500886333,66.6479999999865
312482.3687,-64.50073817666429,-39.53903493858689,-88.4090971083778,-53.32078690246437,66.64899999997579
312482.3697,-77.76885216288159,-63.137686942954545,-105.26805252156448,-75.1251361952404,66.64999999996508
312482.3707,-90.37885619170048,-86.07947968799832,-121.28429178799486,-96.0543383981094,66.65100000001257
312482.3717,-102.05936237682592,-107.95969685091791,-136.07243588973708,-115.75549247589377,66.65200000000186
312482.3727,-112.55746270817919,-128.39204200439667,-149.2642327192587,-133.89712332852972,66.65299999999115
312482.3737,-121.63831682951742,-147.0114111849771,-160.51412671402161,-150.170405666468,66.65399999998044
312482.3747,-129.08493792639072,-163.47699017629836,-169.50505207620105,-164.29062770486047,66.65499999996973
312482.3757,-134.69883158708663,-177.47615219145192,-175.95476036578322,-175.99944045097715,66.65599999995902
312482.3767,-138.30199349372816,-188.72947792414072,-179.62285285068174,-185.0682857301555,66.65700000000652
312482.3777,-139.7405560447666,-196.9970156127338,-180.31850338769203,-191.30318807086522,66.65799999999581
312482.3787,-138.8901148866669,-202.08566605569933,-177.90865058520197,-194.550855181953,66.6589999999851
312482.3797,-135.6624921056875,-203.857341984122,-172.32623351972248,-194.705785653007,66.65999999997439
312482.3807,-130.01343375555496,-202.23733916699038,-163.5778688450866,-191.71785823959337,66.66099999996368
312482.3817,-121.95052459712139,-197.22219255383254,-151.75024206775663,-185.599700284516,66.66200000001118
312482.3827,-111.54045736096303,-188.88619473145215,-137.014430659678,-176.4330245333039,66.66300000000047
312482.3837,-98.91473568097089,-177.385739603186,-119.62740330772714,-164.37309811805488,66.66399999998976
312482.3847,-84.27292851558354,-162.96072715763853,-99.93005146127308,-149.65057080000133,66.66499999997905
312482.3857,-67.8827290026936,-145.93242248966752,-78.34130108262032,-132.5700386683359,66.66599999996834
312482.3867,-50.076292050252626,-126.69739236942264,-55.34811022807554,-113.50494258982178,66.66699999995762
312482.3877,-31.242613393072503,-105.71742661206058,-31.491460547940708,-92.88867830281318,66.66800000000512
312482.3887,-11.816042126313073,-83.50566451047882,-7.3487713944938315,-71.20210186858228,66.66899999999441
312482.3897,7.738641860685903,-60.60946046953539,16.486525418462712,-48.957921641043555,66.6699999999837
312482.3907,26.943836778331747,-37.59080881307427,39.42724334680448,-26.6827469103507,66.67099999997299
312482.3917,45.32840062782421,-15.00537866218436,60.915322513329436,-4.897787197860725,66.67199999996228
312482.3927,62.44740587242933,6.618636440465062,80.44401153835827,15.900656925989301,66.67300000000978
312482.3937,77.90107821032875,26.8005883688314,97.57801278764298,35.25971537349325,66.67399999999907
312482.3947,91.35164857811962,45.125136772589606,111.97034498790207,52.786328970232425,66.67499999998836
312482.3957,102.53697262195465,61.25661424717091,123.37486764104051,68.16047327475813,66.67599999997765
312482.3967,111.27999432467301,74.94912988391945,131.65368754361086,81.14443216132761,66.67699999996694
312482.3977,117.49343166547666,86.05184195068264,136.77900728868124,91.58761449080275,66.67799999995623
312482.3987,121.1794164013398,94.50917122084134,138.8293516006929,99.4267345637912,66.67900000000373
312482.3997,122.42419685703368,100.35608452287822,137.98048931368731,104.68151668632079,66.67999999999302
312482.4007,121.38837961731991,103.70892366905973,134.49172592141642,107.44640699234124,66.6809999999823
312482.4017,118.2935118621847,104.7525594809916,128.68854537062833,107.87905425064201,66.6819999999716
312482.4027,113.40606324188137,103.72488932354645,120.94280635386303,106.18653245541044,66.68299999996088
312482.4037,107.02003341030195,100.89985044752551,111.65183074809269,102.61040446340816,66.68400000000838
312482.4047,99.43947552347583,96.57017911396429,101.21775111162282,97.41175836977678,66.68499999999767
312482.4057,90.96218329849569,91.03110398039713,90.0284101000457,90.85728573058219,66.68599999998696
312482.4067,81.8656452179958,84.56602724494368,78.44093568648121,83.20732061876038,66.68699999997625
312482.4077,72.39613859424148,77.43503224072114,66.76886826263609,74.7065360034029,66.68799999996554
312482.4087,62.76154032275004,69.86678188465608,55.2734113032725,65.5777204551454,66.68900000001304
312482.4097,53.128097432526324,62.054063680939116,44.159042659043884,56.01875928654708,66.69000000000233
312482.4107,43.62105893469592,54.152921335788584,33.57338681456733,46.202647324945964,66.69099999999162
312482.4117,34.328750952052175,46.285017820893785,23.610937005095455,36.28009224114311,66.69199999998091
312482.4127,25.309406923082367,38.54262470938959,14.319954245152324,26.384051192943407,66.6929999999702
312482.4137,16.599865890527333,30.995447807066423,5.711677294357251,16.635397653844475,66.69399999995949
312482.4147,8.225139493336329,23.698393038263795,-2.22913406031075,7.148850945118826,66.69500000000698
312482.4157,0.207828972523948,16.699355206665178,-9.533325242069214,-1.961678387182601,66.69599999999627
312482.4167,-7.4235547140391205,10.046173768593393,-16.237086904230118,-10.579073145437029,66.69699999998556
312482.4177,-14.628161901051671,3.7920348570460254,-22.373120413937315,-18.580900183130407,66.69799999997485
312482.4187,-21.348844198646017,-2.001208056082287,-27.96384962525446,-25.839563168193724,66.69899999996414
312482.4197,-27.510983471014267,-7.262091367807949,-33.01707062556314,-32.22482454274847,66.70000000001164
312482.4207,-33.024155634915815,-11.911026456283436,-37.524185946971734,-37.60855050867277,66.70100000000093
312482.4217,-37.78640994617525,-15.864023758408145,-41.46093084811687,-41.871298714247956,66.70199999999022
312482.4227,-41.69071170221087,-19.03825642876838,-44.790287138473055,-44.910174401615926,66.70299999997951
312482.4237,-44.63291521967385,-21.358899620097628,-47.46711141832952,-46.64724373443436,66.7039999999688
312482.4247,-46.520518089014196,-22.766574966742205,-49.443891323974896,-47.03772366794794,66.70499999995809
312482.4257,-47.28140390011525,-23.224687805603878,-50.67699137013084,-46.077170252834975,66.70600000000559
312482.4267,-46.87180869474151,-22.725967112654416,-51.132759198125626,-43.80695915025485,66.70699999999488
312482.4277,-45.282839494249956,-21.297599261733794,-50.792927699505256,-40.31748462229147,66.70799999998417
312482.4287,-42.545018858787756,-19.004475704885742,-49.6588579990106,-35.7486824337964,66.70899999997346
312482.4297,-38.73051085230988,-15.950236999083263,-47.7543085386947,-30.287690393022448,66.70999999996275
312482.4307,-33.95288196475504,-12.275974625340593,-45.12657047554897,-24.16367825031281,66.71100000001024
312482.4317,-28.364446085695988,-8.156630754732447,-41.84596305566767,-17.64008699811198,66.71199999999953
312482.4327,-22.151417760918548,-3.7952988257715985,-38.00381978723886,-11.00469878150354,66.71299999998882
312482.4337,-15.527238262132489,0.5842383755309448,-33.70920522624766,-4.558098599935281,66.71399999997811
312482.4347,-8.724534665109061,4.7463004619499545,-29.084675091984487,1.3988216487203968,66.7149999999674
312482.4357,-1.9862187537797857,8.452944607164687,-24.261425865585863,6.5776315660596705,66.7159999999567
312482.4367,4.443768743122371,11.473945907213869,-19.37417522526448,10.714736606972759,66.71700000000419
312482.4377,10.329606171208944,13.596650237223782,-14.556077041516229,13.582757734321762,66.71799999999348
312482.4387,15.452243521154893,14.635281654767043,-9.93391290059269,15.00041830080605,66.71899999998277
312482.4397,19.617265394582546,14.43936005770938,-5.623727057331468,14.840566309225693,66.71999999997206
312482.4407,22.66176887265046,12.900966145293609,-1.7269948828159745,13.036095741074515,66.72099999996135
312482.4417,24.460151578597202,9.960669088775932,1.672652855862717,9.583661543316277,66.72200000000885
312482.4427,24.928777379783295,5.611998865056236,4.512177231453056,4.545197044693063,66.72299999999814
312482.4437,24.029533392237155,-0.09560602739251876,6.75140291479906,-1.952668933621625,66.72399999998743
312482.4447,21.77230911551609,-7.055416249322798,8.374866719775557,-9.72114021004729,66.72499999997672
312482.4457,18.216417952993513,-15.103626049569316,9.3932695205185,-18.51354511186363,66.725999999966
312482.4467,13.470948528382248,-24.02120084950861,9.844512615904353,-28.03121191928214,66.7269999999553
312482.4477,7.693986953590706,-33.53740663629609,9.794242401962292,-37.93076964693114,66.7280000000028
312482.4487,1.0906026460375615,-43.33508029167201,9.335768485414642,-47.83274860618086,66.72899999999208
312482.4497,-6.090548612716216,-53.05769932044346,8.589171169817993,-57.33138749162639,66.72999999998137
312482.4507,-13.562168669739876,-62.31828922641255,7.699385115319732,-66.0055746795042,66.73099999997066
312482.4517,-21.004960285510183,-70.71016082483996,6.833045633757964,-73.43085167481826,66.73199999995995
312482.4527,-28.076074168874868,-77.81939518104528,6.173918248235822,-79.19237980016864,66.73300000000745
312482.4537,-34.419379346046874,-83.23889172334827,5.916802640809836,-82.89871482128461,66.73399999999674
312482.4547,-39.67745789433532,-86.58367074378498,6.2599063680036,-84.1961502825121,66.73499999998603
312482.4557,-43.50508093637539,-87.50698431490811,7.395814773839112,-82.78328544170179,66.73599999997532
312482.4567,-45.58376522216962,-85.71665219527534,9.501330488950392,-78.4253584382497,66.73699999996461
312482.4577,-45.636853703612324,-80.99091619162552,12.726604925586935,-70.96777330853995,66.73800000001211
312482.4587,-43.44442574435692,-73.19301284534508,17.184119794132354,-60.348155882335504,66.7390000000014
312482.4597,-38.85723924675919,-62.28361423755849,22.938183375609476,-46.606213560845475,66.73999999999069
312482.4607,-31.808852242642498,-48.33029142899617,29.99567021335135,-29.890660741677493,66.74099999997998
312482.4617,-22.325076020436942,-31.513221679652908,38.2987433406442,-10.46251496540164,66.74199999996927
312482.4627,-10.529981449165609,-12.12649106924599,47.72024888439899,11.305826367165496,66.74299999995856
312482.4637,3.3521850008133334,9.425465284365652,58.06236289369685,34.936153382172876,66.74400000000605
312482.4647,18.99962461108735,32.63650192750572,69.05890413629433,59.85486045558937,66.74499999999534
312482.4657,36.00035539036662,56.91241966455272,80.38151433597535,85.4081564763415,66.74599999998463
312482.4667,53.864257601902146,81.58928361708969,91.64966344050478,110.88172739897394,66.74699999997392
312482.4677,72.03943830158431,105.95575399832097,102.44417998418402,135.524220506555,66.74799999996321
312482.4687,89.93227692876083,129.27851332695687,112.32375532975932,158.57364884712453,66.74900000001071
312482.4697,106.93026296727751,150.8296518061192,120.84364566889771,179.28558374842223,66.75
312482.4707,122.42653475601087,169.91471411808175,127.57561577640726,196.96183304004708,66.75099999998929
312482.4717,135.84489207894146,185.90002966484226,132.12804920635662,210.9782085774576,66.75199999997858
312482.4727,146.66399591741896,198.23795257279582,134.165101974435,220.8099794162559,66.75299999996787
312482.4737,154.43949269226272,206.48872957385169,133.42380637958993,226.05369061187358,66.75399999995716
312482.4747,158.82290715018084,210.3378886211139,129.72813798275772,226.4441992114807,66.75500000000466
312482.4757,159.5763310744851,209.60828791943916,122.99923520695441,221.8660287166814,66.75599999999395
312482.4767,156.58218161902647,204.26626749592933,113.2611951237218,212.35845498707744,66.75699999998324
312482.4777,149.84759569531957,194.4216826770583,100.6421434874622,198.1140889772591,66.75799999997253
312482.4787,139.50334430118951,180.32194726400084,85.37057123858942,179.47109013614642,66.75899999996182
312482.4797,125.79746987021493,162.34054924442748,67.76722100028691,156.8995025247455,66.76000000000931
312482.4807,109.08414751699162,140.9607999889836,48.23307312400835,130.98252811859624,66.7609999999986
312482.4817,89.80852619527491,116.7558183972296,27.234201201079784,102.39381546229602,66.76199999998789
312482.4827,68.48850064632184,90.36591830976367,5.284425070361595,71.87202855415967,66.76299999997718
312482.4837,45.694487056339895,62.4746505208952,-17.073226063516472,40.19405840953471,66.76399999996647
312482.4847,22.02831814199598,33.78474646578805,-39.28522166211975,8.148243169388152,66.76499999995576
312482.4857,-1.897662882478002,4.9951226490639025,-60.80546073096816,-23.491125592314695,66.76600000000326
312482.4867,-25.480338663608464,-23.22005672161706,-81.111615636443,-53.9869027551105,66.76699999999255
312482.4877,-48.14358218062771,-50.229480804213175,-99.71927078548721,-82.65892382027623,66.76799999998184
312482.4887,-69.35345855622161,-75.45943587010673,-116.19346422363444,-108.89998167230267,66.76899999997113
312482.4897,-88.63050769301002,-98.40494298114605,-130.15747869830676,-132.1876548202596,66.76999999996042
312482.4907,-105.55898719027189,-118.63730541563771,-141.2989569135185,-152.09199184027418,66.77100000000792
312482.4917,-119.79317241226802,-135.8083172404735,-149.37361234277097,-168.2793240339567,66.7719999999972
312482.4927,-131.06099188402138,-149.65157319387788,-154.20695434299012,-180.51269663126385,66.7729999999865
312482.4937,-139.165408054078,-159.98144915262336,-155.6945319266554,-188.64956286361945,66.77399999997579
312482.4947,-143.98402789023913,-166.69038504004342,-153.8012183585502,-192.63746593322088,66.77499999996508
312482.4957,-145.46744266175673,-169.74509762580973,-148.56000975156223,-192.50843933248805,66.77600000001257
312482.4967,-143.6367553864444,-169.18228504176903,-140.07070298767286,-188.3727911460328,66.77700000000186
312482.4977,-138.5806668581937,-165.10426922322455,-128.49866567010696,-180.41281425321787,66.77799999999115
312482.4987,-130.4523702172928,-157.67487232399637,-114.07373221869803,-168.87679818382315,66.77899999998044
312482.4997,-119.46636574744326,-147.11565647319085,-97.08907725155193,-154.07352957668715,66.77999999996973
312482.5007,-105.89516912165617,-133.70249182522898,-77.8997522389869,-136.36727793581386,66.78099999995902
312482.5017,-90.06576413991553,-117.76227339155471,-56.920444556350326,-116.17309213381516,66.78200000000652
312482.5027,-72.35555924866539,-99.66949753580738,-34.6219461527601,-93.95209865204806,66.78299999999581
312482.5037,-53.18755625380652,-79.84234501179206,-11.525813154734873,-70.20640830092043,66.7839999999851
312482.5047,-33.02443541557308,-58.73790469804153,11.803237891226404,-45.47321204052521,66.78499999997439
312482.5057,-12.361304179966268,-36.846210941423294,34.76751980214096,-20.317680301204813,66.78599999996368
312482.5067,8.283057302177754,-14.682852568443439,56.74928448879607,4.675630453805103,66.78700000001118
312482.5077,28.376500978539475,7.219966563644541,77.12625699744343,28.913025137581656,66.78800000000047
312482.5087,47.385272052862376,28.323890350487684,95.28944878659742,51.80356616317748,66.78899999998976
312482.5097,64.78698478029415,48.096218044024916,110.66265937853719,72.77243231066362,66.78999999997905
312482.5107,80.08443205860436,66.02273241755611,122.72285728062904,91.27537776531166,66.79099999996834
312482.5117,92.81973180773495,81.62110079698854,131.02046227551014,106.81377397834173,66.79199999995762
312482.5127,102.58823185445192,94.45431221645325,135.19844964022928,118.94959940917238,66.79300000000512
312482.5137,109.05155699761787,104.1435676583998,135.00917454990733,127.3196733583885,66.79399999999441
312482.5147,111.9491910942855,110.38004066926953,130.3278768262185,131.6484167062901,66.7949999999837
312482.5157,111.10804265457178,112.93497173548327,121.16196977542813,131.7584657502323,66.79599999997299
312482.5167,106.44953931673507,111.66764627223095,107.65543230069599,127.57856140160354,66.79699999996228
312482.5177,97.99392555442233,106.53092369657192,90.08789454616226,119.1482758038771,66.79800000000978
312482.5187,85.8615870357939,97.57412183690333,68.86831290594282,106.61930913324044,66.79899999999907
312482.5197,70.27138061851171,84.9432034413045,44.52344621131415,90.25327558375254,66.79999999998836
312482.5207,51.53609727358947,68.87834635099072,17.681646425305026,70.416082997053,66.80099999997765
312482.5217,30.0553137711343,49.70909395779185,-10.947259169794902,47.56917959803859,66.80199999996694
312482.5227,6.305987694502681,27.84736843220828,-40.595011356030234,22.258080321485895,66.80299999995623
312482.5237,-19.1687873256338,3.778679992271795,-70.45977133644625,-4.901315848928895,66.80400000000373
312482.5247,-45.77242591946734,-21.948120628608677,-99.73161221294374,-33.238053051735534,66.80499999999302
312482.5257,-72.86846857482318,-48.732219951531704,-127.61750795995486,-62.04251957676773,66.8059999999823
312482.5267,-99.79479195072747,-75.93307191965002,-153.36478206740685,-90.58338900162512,66.8069999999716
312482.5277,-125.87809972655444,-102.88326985565868,-176.28214520579775,-118.12463949947846,66.80799999996088
312482.5287,-150.44846152916458,-128.90192347508554,-195.7576645983719,-143.9422844639687,66.80900000000838
312482.5297,-172.85374600333643,-153.30847189309551,-211.273246684197,-167.34055205004955,66.80999999999767
312482.5307,-192.47385910309205,-175.43691264010906,-222.4154571302641,-187.66735039806582,66.81099999998696
312482.5317,-208.7347395073133,-194.6504466927024,-228.8827269605319,-204.32893539122892,66.81199999997625
312482.5327,-221.12207195993304,-210.35652317139136,-230.48918180429087,-216.80374743417923,66.81299999996554
312482.5337,-229.19465254329452,-222.02221169803008,-227.16546866833923,-224.65539540536787,66.81400000001304
312482.5347,-232.59727830861073,-229.18973745988836,-218.95703251833075,-227.54473697208337,66.81500000000233
312482.5357,-231.07294305990072,-231.4918909631595,-206.02031107233532,-225.2409376302484,66.81599999999162
312482.5367,-224.47401169535814,-228.66688321659402,-188.61727493193897,-217.6312943080224,66.81699999998091
312482.5377,-212.7719313083613,-220.57207344809763,-167.10865199943552,-204.72949609213117,66.8179999999702
312482.5387,-196.0649345567854,-207.19586862231836,-141.94605558313776,-186.6818811123976,66.81899999995949
312482.5397,-174.58311663466804,-188.66700081296662,-113.66310361467117,-163.77115326824048,66.82000000000698
312482.5407,-148.69023736175166,-165.26034731953865,-82.86549232378371,-136.41696362323574,66.82099999999627
312482.5417,-118.88162722751098,-137.3984833303629,-50.21989103702844,-105.17275504080688,66.82199999998556
312482.5427,-85.77766872228615,-105.64825673370291,-16.44147193266241,-70.71832686307529,66.82299999997485
312482.5437,-50.11248393113614,-70.7118515629089,17.72010899596773,-33.84770509198121,66.82399999996414
312482.5447,-12.717681298805232,-33.41205530344798,51.49640098734313,4.5478985363846745,66.82500000001164
312482.5457,25.49871308313273,5.328246854236532,84.1175186972412,43.501996717232515,66.82600000000093
312482.5467,63.57770942895621,44.51198034196037,114.83100698986429,81.99926109601748,66.82699999999022
312482.5477,100.53844888760558,83.09845971637854,142.92184518570977,119.00581086182414,66.82799999997951
312482.5487,135.4098965148025,120.037556812485,167.73301766048664,153.50236388951242,66.8289999999688
312482.5497,167.2638356548817,154.30607292699435,188.68588472988938,184.51897030006276,66.82999999995809
312482.5507,195.24768003526563,184.94469471431998,205.29943418159604,211.16982011859778,66.83100000000559
312482.5517,218.61552119952242,211.09377210492093,217.20740130492587,232.6864732372198,66.83199999999488
312482.5527,236.75583201562873,232.0261247020309,224.1722302575244,248.4478194588209,66.83299999998417
312482.5537,249.21435750166825,247.17516855926684,226.0949213040713,258.0051493548045,66.83399999997346
312482.5547,255.71093883323425,256.1568564295418,223.01996761697865,261.1009041147537,66.83499999996275
312482.5557,256.1493230230569,258.7842305411948,215.13482392239592,257.6799659571626,66.83600000001024
312482.5567,250.61938934106337,255.07377813215,202.76365112347767,247.8927323429841,66.83699999999953
312482.5577,239.39164772089867,245.2432297684241,186.35542325328356,232.08966178681385,66.83799999998882
312482.5587,222.9043037503588,229.7009174866037,166.46683825857173,210.80745546311584,66.83899999997811
312482.5597,201.7436074511741,209.02728042879642,143.74081277470117,184.74751301314518,66.8399999999674
312482.5607,176.61857821078706,183.94953685869834,118.88163458808603,154.74773878853975,66.8409999999567
312482.5617,148.33149900659086,155.3109035019519,92.62806971420085,121.74914475874725,66.84200000000419
312482.5627,117.74577852420028,124.0360119217156,65.72585453511398,86.75897231766382,66.84299999999348
312482.5637,85.75287663883323,91.09433048433756,38.901035368651534,50.81221852704873,66.84399999998277
312482.5647,53.239972377335654,57.46344141753755,12.835544912408148,14.93349306536639,66.84499999997206
312482.5657,21.059928172199108,24.09394662957299,-11.853767168791029,-19.89895003895852,66.84599999996135
312482.5667,-9.995117410771197,-8.122406809282412,-34.6316896952303,-52.785357920709075,66.84700000000885
312482.5677,-39.21549447323339,-38.38006282524047,-55.05615331819009,-82.93144630456644,66.84799999999814
312482.5687,-65.99039976162717,-65.98147363820063,-72.78440324281908,-109.66919853542731,66.84899999998743
312482.5697,-89.81863639697767,-90.35279464464858,-87.57393127524675,-132.4709145997248,66.84999999997672
312482.5707,-110.31375131839856,-111.05324038454296,-99.27860501357965,-150.95635010091718,66.850999999966
312482.5717,-127.20396120618175,-127.77825459100191,-107.8407321170545,-164.89318929941007,66.8519999999553
312482.5727,-140.32753681873857,-140.35697480856348,-113.28002735887877,-174.19145564748538,66.8530000000028
312482.5737,-149.6245219039888,-148.74473806483263,-115.68059346686547,-178.8927553144455,66.85399999999208
312482.5747,-155.12578576579972,-153.0115653605584,-115.1770751751888,-179.15545808166198,66.85499999998137
312482.5757,-156.9404452843948,-153.3276729467212,-111.94109931926143,-175.23703717565377,66.85599999997066
312482.5767,-155.24264712231835,-149.94708798589144,-106.16898015144135,-167.47481422437696,66.85699999995995
312482.5777,-150.25858492541485,-143.19040200076896,-98.07146345242806,-156.26629391448648,66.85800000000745
312482.5787,-142.25445566627562,-133.42758939154086,-87.86602621584807,-142.05013767313426,66.85899999999674
312482.5797,-131.52585345941145,-121.06166583402397,-75.77196509699417,-125.28863416058728,66.85999999998603
312482.5807,-118.38887933204248,-106.51378015660636,-62.008222239845146,-106.45229693892588,66.86099999997532
312482.5817,-103.17303228804306,-90.21014127784746,-46.793636404787684,-86.00697791794903,66.86199999996461
312482.5827,-86.21575907850598,-72.57099568066867,-30.3490922976861,-64.4036498778716,66.86300000001211
312482.5837,-67.85839220629414,-54.00170486331649,-12.900888515022896,-42.07080089357194,66.8640000000014
312482.5847,-48.443107854629986,-34.88583686200479,5.315434819263751,-19.40921235343378,66.86499999999069
312482.5857,-28.310492227947677,-15.580087768547019,24.05157022525547,3.21122985742508,66.86599999997998
312482.5867,-7.797315277075028,3.5892096745821167,43.04390963105844,25.4531102726908,66.86699999996927
312482.5877,12.76583115333905,22.32825479173134,62.012560525604954,47.011880797700904,66.86799999995856
312482.5887,33.057278497185145,40.37687901573628,80.66228648873987,67.61548624125119,66.86900000000605
312482.5897,52.76753888264548,57.508797249740695,98.68553676653198,87.02355962824701,66.86999999999534
312482.5907,71.60307652812182,73.53118272701364,115.76751199018376,105.02644011560903,66.87099999998463
312482.5917,89.2904746237312,88.28368619154205,131.5930094904293,121.44416907831699,66.87199999997392
312482.5927,105.58077978441017,101.63697483139356,145.85462100121757,136.12552761676878,66.87299999996321
312482.5937,120.2537385502895,113.49083462549636,158.26173303857246,148.94710329143314,66.87400000001071
312482.5947,133.12161166054082,123.77186656704953,168.5497157355009,159.81232406286603,66.875
312482.5957,144.03226437969494,132.43081432513486,176.48868308410326,168.65037785659857,66.87599999998929
312482.5967,152.87128266700566,139.43958664440473,181.89126363310558,175.41494702645846,66.87699999997858
312482.5977,159.5629486586068,144.78807739017358,184.61892696656648,180.08272402417083,66.87799999996787
312482.5987,164.07001435218976,148.48093238021966,184.58655405182466,182.6517298517685,66.87899999995716
312482.5997,166.3923266797405,150.53445623985073,181.76510171082808,183.1395198232057,66.88000000000466
312482.6007,166.56446647328303,150.973885329013,176.18237448280294,181.58142004199658,66.88099999999395
312482.6017,164.65265487871665,149.83126600018025,167.92206302477538,178.02898140505425,66.88199999998324
312482.6027,160.75124229807068,147.14416468506784,157.12132149268487,172.54885629222596,66.88299999997253
312482.6037,154.979118978333,142.95539407981624,143.96722581553095,165.22228991533345,66.88399999996182
312482.6047,147.4763691528524,137.31386798902167,128.6924745709631,156.1453710990658,66.88500000000931
312482.6057,138.40143308321842,130.27659990476704,111.5706644388881,145.43010801540075,66.8859999999986
312482.6067,127.92894899474274,121.91174438891639,92.91139902527615,133.20628945065522,66.88699999998789
312482.6077,116.24832943093165,112.3024560183036,73.05538449939586,119.62397174262355,66.88799999997718
312482.6087,103.56299683645685,101.55122031283996,52.369543182273645,104.85630861479952,66.88899999996647
312482.6097,90.09007595616394,89.78420782264831,31.24205436045644,89.10233028303124,66.88999999995576
312482.6107,76.06023100417319,77.15512904596284,10.077127784939279,72.58919389653623,66.89100000000326
312482.6117,61.717257367671046,63.84803488991688,-10.71075464986197,55.57338243781118,66.89199999999255
312482.6127,47.3170019844612,50.078522703712764,-30.703417514942814,38.34033336238813,66.89299999998184
312482.6137,33.12520060598163,36.09287518177699,-49.486650130303325,21.20203689514793,66.89399999997113
312482.6147,19.41388619919794,22.16477763568673,-66.65912079348912,4.492257247210372,66.89499999996042
312482.6157,6.456137741533224,8.589422349164401,-81.84259143896473,-11.44080718696229,66.89600000000792
312482.6167,-5.480905582486728,-4.324993614043595,-94.69330814089216,-26.244406926819074,66.8969999999972
312482.6177,-16.144656080487252,-16.26815322169401,-104.91425291418203,-39.57342472845729,66.8979999999865
312482.6187,-25.30701119563206,-26.94044292472748,-112.26775132776521,-51.104385677250924,66.89899999997579
312482.6197,-32.77511687806924,-36.067067093170735,-116.58775998236275,-60.55060568550273,66.89999999996508
312482.6207,-38.40230621765726,-43.412637185901126,-117.7910287845115,-67.67761119120927,66.90100000001257
312482.6217,-42.09844036082653,-48.795302739382606,-115.88626324649239,-72.31783882915373,66.90200000000186
312482.6227,-43.83881863403734,-52.09943988434129,-110.98041505745375,-74.3835696729914,66.90299999999115
312482.6237,-43.67083315974643,-53.28593547339689,-103.28131182695286,-73.87707804361301,66.90399999998044
312482.6247,-41.717624312373026,-52.399203552410974,-93.0959987144626,-70.89708303548183,66.90499999996973
312482.6257,-38.17814482590856,-49.57024187610381,-80.82439740409183,-65.64077784255014,66.90599999995902
312482.6267,-33.32325329171311,-45.01526904675233,-66.94817602895185,-58.400966509049915,66.90700000000652
312482.6277,-27.487717121107234,-39.02976143444093,-52.01504552773134,-49.55814225232105,66.90799999999581
312482.6287,-21.05829078447261,-31.978012543761707,-36.619027565919396,-39.56767325381516,66.9089999999851
312482.6297,-14.458324015331591,-24.278642314613364,-21.37754865289231,-28.942594841747407,66.90999999997439
312482.6307,-8.129622261077609,-16.386765607443348,-6.906477153089988,-18.232814450483556,66.91099999996368
312482.6317,-2.512504665668463,-8.773764894774715,6.205589499262106,-8.00179236142853,66.91200000001118
312482.6327,1.9748366693228683,-1.905782605688352,17.422379326518925,1.1980543265348849,66.91300000000047
312482.6337,4.956493120404381,3.7778603020939903,26.28293407742538,8.8498801382955,66.91399999998976
312482.6347,6.117336404479185,7.885108345744217,32.421226410227895,14.495526234374791,66.91499999997905
312482.6357,5.218775613552082,10.089348552611513,35.58130076899958,17.75596976704195,66.91599999996834
312482.6367,2.110868952241787,10.144351257756297,35.62711366366124,18.348035541388423,66.91699999995762
312482.6377,-3.2598752951679684,7.8952299500626,32.54658906900313,16.096548818307763,66.91800000000512
312482.6387,-10.847389106745181,3.2849446490417096,26.449776379180165,10.94140797100258,66.91899999999441
312482.6397,-20.507701118884512,-3.643835917473864,17.561371819001003,2.93937918823138,66.9199999999837
312482.6407,-32.005132768727826,-12.751409922779668,6.20820957136669,-7.739264140767552,66.92099999997299
312482.6417,-45.02253625204202,-23.8078900484127,-7.197380885380623,-20.818842691051692,66.92199999996228
312482.6427,-59.1748556048426,-36.50364050883515,-22.177241382864473,-35.93045654660515,66.92300000000978
312482.6437,-74.02513848546977,-50.46256441956429,-38.20884387747065,-52.62742240782881,66.92399999999907
312482.6447,-89.10204894787286,-65.25741455683878,-54.74728552013054,-70.40303021092325,66.92499999998836
312482.6457,-103.91793252349837,-80.42628261669451,-71.24663486068661,-88.70966345374158,66.92599999997765
312482.6467,-117.9865585522179,-95.48946852128772,-87.17959895176261,-106.97837537441754,66.92699999996694
312482.6477,-130.8397983607815,-109.966030536081,-102.05470185482098,-124.63811968442256,66.92799999995623
312482.6487,-142.042673610332,-123.38945275635912,-115.43042811181347,-141.13398245031624,66.92900000000373
312482.6497,-151.20640553436945,-135.32202002970425,-126.92606362108764,-155.94393067084135,66.92999999999302
312482.6507,-157.99929039958374,-145.3676422548921,-136.2292341735204,-168.5937622420195,66.9309999999823
312482.6517,-162.15539824863936,-153.18300262187853,-143.10037405634003,-178.67009223273027,66.9319999999716
312482.6527,-163.48122339490385,-158.48700384532836,-147.37453366273547,-185.8313264676416,66.93299999996088
312482.6537,-161.86049435750402,-161.06854418790914,-148.96104256474047,-189.81664561401706,66.93400000000838
312482.6547,-157.25737290349014,-160.79266866374087,-147.84157742974537,-190.45304809178663,66.93499999999767
312482.6557,-149.71823889396734,-157.60511423434195,-144.0671451436042,-187.660481715073,66.93599999998696
312482.6567,-139.37217902292315,-151.53521083077206,-137.75439102228793,-181.45504174379548,66.93699999997625
312482.6577,-126.43018849644804,-142.6970269287367,-129.0814971036739,-171.9501415578309,66.93799999996554
312482.6587,-111.18297452256961,-131.2885760949105,-118.28376790571832,-159.3554890230084,66.93900000001304
312482.6597,-93.99714027324096,-117.58884681623081,-105.64883462518488,-143.97364508844444,66.94000000000233
312482.6607,-75.30944815274262,-101.95239765267976,-91.51126700233192,-126.19391791956464,66.94099999999162
312482.6617,-55.61882904385446,-84.80128513208838,-76.24628543252709,-106.48336884070568,66.94199999998091
312482.6627,-35.475831757824004,-66.61416921567826,-60.26222952429914,-85.3747829372255,66.9429999999702
312482.6637,-15.469299475005585,-47.91257056432551,-43.99147137750378,-63.45158812212349,66.94399999995949
312482.6647,3.7897847554062194,-29.24442849374439,-27.87956266243517,-41.329885563276754,66.94500000000698
312482.6657,21.687133252476805,-11.165315470593514,-12.37256635115212,-19.637968720112795,66.94599999999627
312482.6667,37.62627514435889,5.782114736159672,2.0972684451693557,1.0060605433568524,66.94699999998556
312482.6677,51.051310918426694,21.089653916709526,15.12709771081176,20.017744417680728,66.94799999997485
312482.6687,61.47039940633846,34.305065370498085,26.35971685156741,36.86975912179316,66.94899999996414
312482.6697,68.47886599525334,45.05249960226264,35.49960963099452,51.114266912043796,66.95000000001164
312482.6707,71.78067175384672,53.050626474603746,42.32782968598134,62.40288248880632,66.95100000000093
312482.6717,71.20691577861959,58.127329142031556,46.714652552071676,70.50302096224563,66.95199999999022
312482.6727,66.73007149993987,60.229912637946754,48.628945128696266,75.30950397598862,66.95299999997951
312482.6737,58.472788274896004,59.429975197912476,48.1433052452638,76.85050420938926,66.9539999999688
312482.6747,46.7103200058815,55.92236414024404,45.4342251832814,75.28719730451107,66.95499999995809
312482.6757,31.86596161491695,50.01797385672278,40.776819118007914,70.90684717350081,66.95600000000559
312482.6767,14.49926264652189,42.13051843545489,34.5340061814856,64.10945153982311,66.95699999999488
312482.6777,-4.712781068557435,32.75779842493502,27.140431599503117,55.388490228566525,66.95799999998417
312482.6787,-25.00091281026548,22.458350782730978,19.081806328028485,45.306717176991086,66.95899999997346
312482.6797,-45.53410955318077,11.824693887053282,10.870716595437615,34.46828638410114,66.95999999996275
312482.6807,-65.45394861217083,1.4546291245684897,3.0202652028527552,23.488772823769448,66.96100000001024
312482.6817,-83.91112328141546,-8.077784402271597,-3.9828733642094325,12.964817883273874,66.96199999999953
312482.6827,-100.10220553810069,-16.249919430145916,-9.704294960225065,3.445178969354734,66.96299999998882
312482.6837,-113.30469797305689,-22.615340518068667,-13.784935900801035,-4.595112391220301,66.96399999997811
312482.6847,-122.90849064888818,-26.824221046030093,-15.959852225017709,-10.775977193847176,66.9649999999674
312482.6857,-128.44203801625503,-28.63828362947104,-16.071460958204227,-14.827700198912982,66.9659999999567
312482.6867,-129.59188291567898,-27.939489186312766,-14.076370462498707,-16.599718997982336,66.96700000000419
312482.6877,-126.21455679635724,-24.732110885098137,-10.045374782712944,-16.06243455634052,66.96799999999348
312482.6887,-118.34034830698958,-19.1382612033005,-4.156672403459941,-13.302159772406567,66.96899999998277
312482.6897,-106.16892245722602,-11.387360526665965,3.3171467965369668,-8.509781314996976,66.96999999997206
312482.6907,-90.05725391656912,-1.800412437912455,12.02736151828912,-1.9641190428457052,66.97099999996135
312482.6917,-70.50077617757798,9.229743799080786,21.571279015329004,5.988704658234219,66.97200000000885
312482.6927,-48.10901272487202,21.260820777860022,31.51669504777941,14.95835072564169,66.97299999999814
312482.6937,-23.57722292816673,33.824622331118476,41.426929988404396,24.53416797381928,66.97399999998743
312482.6947,2.344251686306586,46.45025288244085,50.88473153345698,34.30830452382256,66.97499999997672
312482.6957,28.881222263182483,58.685628541969805,59.51348342133976,43.89655990326708,66.975999999966
312482.6967,55.26583402124805,70.11612974948093,66.99442795580269,52.9557629920403,66.9769999999553
312482.6977,80.76424832848703,80.37951745898043,73.07897251509186,61.19679448704196,66.9780000000028
312482.6987,104.70065280153932,89.17656563672082,77.59557343593474,68.3927583037703,66.97899999999208
312482.6997,126.47675888525599,96.27721358048899,80.45113698461871,74.38221091384061,66.97999999998137
312482.7007,145.58630805527494,101.52238304999388,81.62730783382517,79.06774701075825,66.98099999997066
312482.7017,161.62446888583983,104.8219100709657,81.17239430022153,82.41058236690502,66.98199999995995
312482.7027,174.2923392232772,106.14928626148922,79.1899759672022,84.4220434944803,66.98300000000745
312482.7037,183.39704611914752,105.53407226657521,75.82543085067417,85.15304906736644,66.98399999999674
312482.7047,188.8481425294508,103.05292625395485,71.25169358039655,84.68273896631884,66.98499999998603
312482.7057,190.65112302235283,98.82018124596486,65.6555115825729,83.10737167192843,66.98599999997532
312482.7067,188.8989179486377,92.978812144548,59.225312007182794,80.53047732642878,66.98699999996461
312482.7077,183.76218192215197,85.6924697795629,52.14154670632197,77.05503841177105,66.98800000001211
312482.7087,175.47908055986863,77.13904433346313,44.570072080990755,72.77819584934245,66.9890000000014
312482.7097,164.34511761793144,67.50597741708548,36.6587762434982,67.78867331035761,66.98999999999069
312482.7107,150.70335513794103,56.98729621048773,28.537320947428125,62.16680660050707,66.99099999997998
312482.7117,134.9351856696582,45.78211932269128,20.31955240162459,55.98678739356355,66.99199999996927
312482.7127,117.45164076119289,34.09420444692544,12.107881815783434,49.32050715829013,66.99299999995856
312482.7137,98.68508310538499,22.131989675772818,3.9987653501028233,42.24223788351339,66.99400000000605
312482.7147,79.08104516736543,10.108534151538805,-3.911662175542729,34.8333235965072,66.99499999999534
312482.7157,59.08995236970463,-1.7592072889356758,-11.522720517015546,27.186084466780652,66.99599999998463
312482.7167,39.158504327326966,-13.252241256782867,-18.725884885941497,19.406248376299196,66.99699999997392
312482.7177,19.720576468429595,-24.152832200002532,-25.403654230373007,11.613409842489192,66.99799999996321
312482.7187,1.187633727900514,-34.2493461805083,-31.430926353615902,3.9392528913043843,66.99900000001071
312482.7197,-16.061199701363908,-43.34253174696236,-36.67892645382553,-3.4764620770468126,67.0
312482.7207,-31.68911549477245,-51.252913796840744,-41.021439748120635,-10.491884427379766,67.00099999998929
312482.7217,-45.411204785205165,-57.82879030670737,-44.34282912026937,-16.97053373269339,67.00199999997858
312482.7227,-57.00311276254665,-62.9541838850962,-46.547101463459185,-22.789551108014237,67.00299999996787
312482.7237,-66.30817674791673,-66.55602565515768,-47.56714240312891,-27.847942711328223,67.00399999995716
312482.7247,-73.2424702179903,-68.60984699251786,-47.37318188587958,-32.073982179261044,67.00500000000466
312482.7257,-77.79724804364943,-69.14332687414405,-45.97958775218764,-35.430988446874885,67.00599999999395
312482.7267,-80.03841973220221,-68.23718341981277,-43.44920712736173,-37.920824438970314,67.00699999998324
312482.7277,-80.10285737762405,-66.0230952427682,-39.894674235834636,-39.58465802992693,67.00799999997253
312482.7287,-78.19155772679353,-62.678573549025785,-35.476359015508876,-40.50077059908783,67.00899999996182
312482.7297,-74.55990396059288,-58.41895782454371,-30.39691949660621,-40.7794671021128,67.01000000000931
312482.7307,-69.50549137320262,-53.48695300900946,-24.892715327974823,-40.555409228458785,67.0109999999986
312482.7317,-63.35417129376466,-48.14034137381637,-19.22261285032191,-39.97793449901566,67.01199999998789
312482.7327,-56.44511082898517,-42.63866767153465,-13.654938788268643,-39.20011622680673,67.01299999997718
312482.7337,-49.11574794174929,-37.22979583936072,-8.453499600448005,-38.36744396367131,67.01399999996647
312482.7347,-41.68753320909899,-32.13725997400518,-3.8636628443231715,-37.60704959421823,67.01499999995576
312482.7357,-34.45328898542607,-27.54927871913851,-0.09948926866960454,-37.01836624802538,67.01600000000326
312482.7367,-27.666888076921502,-23.610175058013517,2.667188440654623,-36.665989115483086,67.01699999999255
312482.7377,-21.535768306351848,-20.41475398800291,4.315012583862946,-36.57531996321452,67.01799999998184
312482.7387,-16.216572911900897,-18.00595561022283,4.778172514314009,-36.73133797421091,67.01899999997113
312482.7397,-11.813959987895627,-16.375841901500348,4.048065584494843,-37.080570617921516,67.01999999996042
312482.7407,-8.382379637690844,-15.469715146712215,2.171587153205118,-37.53606445255513,67.02100000000792
312482.7417,-5.930397589301922,-15.19292799179898,-0.7536471558965464,-37.984902328560246,67.0219999999972
312482.7427,-4.426968846133977,-15.419750404171328,-4.586618036752603,-38.29760363483569,67.0229999999865
312482.7437,-3.8089503006398497,-16.003524327888183,-9.15206035882413,-38.33859699754078,67.02399999997579
312482.7447,-3.9890969568320336,-16.787273468502555,-14.25066693024729,-37.97688311645806,67.02499999996508
312482.7457,-4.863815314170801,-17.61394751512927,-19.669522381915932,-37.09601479487391,67.02600000001257
312482.7467,-6.320045064748747,-18.335564045390022,-25.192007115720422,-35.60260943587302,67.02700000000186
312482.7477,-8.240795180136727,-18.820657354279714,-30.606534371236837,-33.43276652106315,67.02799999999115
312482.7487,-10.509055649003313,-18.95963572508898,-35.71365874128169,-30.555972499654363,67.02899999998044
312482.7497,-13.010020583393624,-18.667867330161826,-40.33130192749422,-26.976316888500794,67.02999999996973
312482.7507,-15.631769406374433,-17.886538055174185,-44.29805858531604,-22.73109232242105,67.03099999995902
312482.7517,-18.26473823367568,-16.5815302791355,-47.47474894337468,-17.887083630253613,67.03200000000652
312482.7527,-20.800454102400934,-14.740740523406712,-49.74455478042101,-12.535044713777195,67.03299999999581
312482.7537,-23.130085938963084,-12.370370613109547,-51.0121947543775,-6.782999339294725,67.0339999999851
312482.7547,-25.143379923253804,-9.49078189703561,-51.20265319979826,-0.7490711716392081,67.03499999997439
312482.7557,-26.728492092601233,-6.132491916396765,-50.25996924236118,5.445455203820812,67.03599999996368
312482.7567,-27.773113684588033,-2.332821080878514,-48.14652328459694,11.682214219970533,67.03700000001118
312482.7577,-28.167117407089652,1.8664270917097587,-44.843134981361835,17.850486316560687,67.03800000000047
312482.7587,-27.806753348484037,6.420030241988123,-40.35012558123302,23.85025712574327,67.03899999998976
312482.7597,-26.600212840780692,11.279115229540006,-34.68931665767375,29.593498259871893,67.03999999997905
312482.7607,-24.474179802099215,16.389770431991327,-27.90675741011991,35.00376672165935,67.04099999996834
312482.7617,-21.38082347646416,21.690804536333154,-20.075814314939223,40.01440919979982,67.04199999995762
312482.7627,-17.30457246039296,27.111079534755582,-11.300138127412188,44.565808965957125,67.04300000000512
312482.7637,-12.26796081083019,32.56692168907963,-1.71595815442441,48.602211574171434,67.04399999999441
312482.7647,-6.335859775277391,37.96013301622274,8.506849131856978,52.068701625421106,67.0449999999837
312482.7657,0.38249702873154273,43.17708544037976,19.165408583304085,54.908873651350916,67.04599999997299
312482.7667,7.734128884100628,48.089284281473844,30.026582167905637,57.06364966391286,67.04699999996228
312482.7677,15.525789444942866,52.555646916897544,40.83199209366783,58.47155441811317,67.04800000000978
312482.7687,23.530301438282432,56.42657054226969,51.30532822424258,59.07058245790273,67.04899999999907
312482.7697,31.495484926966878,59.54967733923013,61.16172041247468,58.80159763459886,67.04999999998836
312482.7707,39.155188404274504,61.77694473400388,70.11874805871314,57.613016636990146,67.05099999997765
312482.7717,46.24173885486944,62.97277094254275,77.90847968680231,55.46636320428205,67.05199999996694
312482.7727,52.49899041494414,63.02240742250101,84.28980283745166,52.34215651487447,67.05299999995623
312482.7737,57.69508466483146,61.84012204474001,89.06023291492951,48.2455287480791,67.05400000000373
312482.7747,61.63404540863331,59.37644655011396,92.06638680265893,43.21096027885542,67.05499999999302
312482.7757,64.16541619087116,55.62391027921271,93.21237449965626,37.305577245676986,67.0559999999823
312482.7767,65.19130169105921,50.62076463343507,92.46549439339854,30.630569730171892,67.0569999999716
312482.7777,64.67038007090144,44.4523494278688,89.85880353870799,23.32044807304079,67.05799999996088
312482.7787,62.61869298472795,37.24992926168555,85.49035686984382,15.540043879257222,67.05900000000838
312482.7797,59.10727102488167,29.187018591719937,79.51914865745312,7.479362065319767,67.05999999999767
312482.7807,54.25689186090227,20.473400685016973,72.15802435490421,-0.6534190462131948,67.06099999998696
312482.7817,48.23047477206333,11.347211166006916,63.6640405874554,-8.640339874443649,67.06199999997625
312482.7827,41.22377077989413,2.065587039749528,54.32691746356781,-16.26286524768339,67.06299999996554
312482.7837,33.45509952611173,-7.105533711346219,44.45633708499206,-23.31126064174284,67.06400000001304
312482.7847,25.154906148498064,-15.901844353167494,34.36888719440415,-29.593491941097774,67.06500000000233
312482.7857,16.555864261166725,-24.070735541165288,24.375427694416544,-34.94305682173133,67.06599999999162
312482.7867,7.884141956104671,-31.38046471453926,14.769574939748598,-39.22526333021446,67.06699999998091
312482.7877,-0.6477105065683424,-37.628003711602624,5.817864532837029,-42.34161891925269,67.0679999999702
312482.7887,-8.845982610802903,-42.645271038874355,-2.2480173892513347,-44.232165146043634,67.06899999995949
312482.7897,-16.539068147182096,-46.30359801259972,-9.236734031178157,-44.87577142342447,67.07000000000698
312482.7907,-23.578898578383047,-48.516417230472854,-15.000518425996272,-44.288567481408265,67.07099999999627
312482.7917,-29.840836856930203,-49.240283884031804,-19.43627597442503,-42.52083217877269,67.07199999998556
312482.7927,-35.22244561919833,-48.47443428276983,-22.484869287048173,-39.65275309639232,67.07299999997485
312482.7937,-39.64161194230371,-46.2591443342266,-24.12897982543034,-35.78951878156536,67.07399999996414
312482.7947,-43.03452011936666,-42.67317067263417,-24.389984186324252,-31.056200918268665,67.07500000001164
312482.7957,-45.35391540349644,-37.83054023561277,-23.324274526607276,-25.592830039256704,67.07600000000093
312482.7967,-46.56800258827737,-31.876906135315096,-21.019397255238864,-19.549973853139825,67.07699999999022
312482.7977,-46.66018598985679,-24.985617872348193,-17.590291232548115,-13.085004267245862,67.07799999997951
312482.7987,-45.629698069891134,-17.35357382940536,-13.175789553296234,-6.359103050015263,67.0789999999688
312482.7997,-43.493000934599436,-9.196846056850125,-7.935423030623527,0.465076689559638,67.07999999995809
312482.8007,-40.285696865810884,-0.746003657238123,-2.046444781752699,7.2252894650538035,67.08100000000559
312482.8017,-36.06456784733484,7.758978216582151,4.299101280353919,13.761393482486351,67.08199999999488
312482.8027,-30.909293347617464,16.074344425876056,10.897507575332599,19.91717786183657,67.08299999998417
312482.8037,-24.923379280238073,23.958814394811245,17.53698503435333,25.5426242037054,67.08399999997346
312482.8047,-18.233872330347765,31.180497302113984,24.001933898993677,30.496846766801635,67.08499999996275
312482.8057,-10.989529971013742,37.52441000469958,30.07806689366262,34.651854072249364,67.08600000001024
312482.8067,-3.357259004491822,42.80042992674873,35.558441537738794,37.89714122275132,67.08699999999953
312482.8077,4.48318913581077,46.851397498878804,40.25032529624192,40.14497094802178,67.08799999998882
312482.8087,12.346087036104567,49.56097110106208,43.98267244974079,41.336049179962856,67.08899999997811
312482.8097,20.047797311619195,50.8607461158922,46.61385118222633,41.44516546543478,67.0899999999674
312482.8107,27.41550553501973,50.73609190687139,48.03913991844686,40.48626644120377,67.0909999999567
312482.8117,34.29596740156892,49.23014716595685,48.197428539790124,38.516375966544814,67.09200000000419
312482.8127,40.56355155783209,46.44545234428426,47.07652505398789,35.63777821761398,67.09299999999348
312482.8137,46.126859778334996,42.542790402570155,44.71648968457832,31.99794467629299,67.09399999998277
312482.8147,50.93327627424139,37.73695132752093,41.21049910604692,27.786811102503894,67.09499999997206
312482.8157,54.97093483662631,32.289323900268315,36.702880890711945,23.231188767847094,67.09599999996135
312482.8167,58.267786526990164,26.497437307790054,31.38414361806577,18.586312296707202,67.09700000000885
312482.8177,60.887685968815745,20.6818085644944,25.483047752746806,14.124766594778068,67.09799999999814
312482.8187,62.92367046936711,15.170679855862954,19.255998344898764,10.123276547782172,67.09899999998743
312482.8197,64.488859800565,10.283432284030248,12.974272154078747,6.848063107471129,67.09999999997672
312482.8207,65.70563135794309,6.313619373777094,6.909797374773788,4.539646418187384,67.100999999966
312482.8217,66.6939030888609,3.512658122901898,1.3203633238061343,3.398091928107323,67.1019999999553
312482.8227,67.5594664273084,2.07523491304955,-3.5647670125843303,3.5697348174642225,67.1030000000028
312482.8237,68.38334075213974,2.1274217696537483,-7.557849023576261,5.136373649005253,67.10399999999208
312482.8247,69.21306417145473,3.718355744123041,-10.52332258583092,8.107795275616477,67.10499999998137
312482.8257,70.0566953744835,6.816118346460123,-12.385363856354505,12.41828678424799,67.10599999997066
312482.8267,70.8800885751974,11.3081776893565,-13.131747491306188,17.927521049306783,67.10699999995995
312482.8277,71.6077360961465,17.006443934380396,-12.813712005816418,24.425891098352743,67.10800000000745
312482.8287,72.12717441984239,23.656663615450984,-11.54182187025776,31.644040408061862,67.10899999999674
312482.8297,72.29664649974629,30.951567379004803,-9.478127934804302,39.26601934581019,67.10999999998603
312482.8307,71.95543353055565,38.54691514061549,-6.8252156124425944,46.945220040625706,67.11099999997532
312482.8317,70.93603908669182,46.07937619247274,-3.8129718136450306,54.32202803725713,67.11199999996461
312482.8327,69.07724894112529,53.18505772558296,-0.6840745640470685,61.04199895685473,67.11300000001211
312482.8337,66.23701576580463,59.51746476517749,2.3207027357272447,66.77333459292764,67.1140000000014
312482.8347,62.30413601376407,64.76374058312695,4.976285833285965,71.22249933123354,67.11499999999069
312482.8357,57.20779460426934,68.65819352779506,7.08520492939339,74.14697928471561,67.11599999997998
312482.8367,50.92424112076072,70.99235003276098,8.486805524581799,75.36442912670074,67.11699999996927
312482.8377,43.48011125064841,71.62106361517904,9.063209576635018,74.75775385694419,67.11799999995856
312482.8387,34.9521957276012,70.4645303427445,8.741765753088671,72.27600774026423,67.11900000000605
312482.8397,25.46375938723188,67.50638443546616,7.494038294144243,67.93133056846727,67.11999999999534
312482.8407,15.177797721464403,62.788345389370136,5.3316827486509,61.79245222687627,67.12099999998463
312482.8417,4.287862006674075,56.40213494599395,2.299816250193628,53.975552971164014,67.12199999997392
312482.8427,-6.992734579371648,48.479557998207476,-1.5313133572335837,44.63344669662437,67.12299999996321
312482.8437,-18.44241355207095,39.18173244118109,-6.075438637745448,33.94414286672624,67.12400000001071
312482.8447,-29.842595334003754,28.688453212536952,-11.239216031583053,22.099833236241448,67.125
312482.8457,-40.98786187509758,17.188587733562454,-16.930117408432697,9.297244665295716,67.12599999998929
312482.8467,-51.69429070848917,4.872233983870612,-23.062532144143898,-4.269889512896855,67.12699999997858
312482.8477,-61.805436794534174,-8.074854314518026,-29.56155663408394,-18.4157410490484,67.12799999996787
312482.8487,-71.19568219565471,-21.474336093662792,-36.36420887915999,-32.9644771360616,67.12899999995716
312482.8497,-79.77093357371754,-35.15588371019362,-43.418087085598955,-47.749632196828124,67.13000000000466
312482.8507,-87.4668985238403,-48.955619682429116,-50.67776574217567,-62.61115387031573,67.13099999999395
312482.8517,-94.2453899765904,-62.712919837342234,-58.099463881605615,-77.39076229873639,67.13199999998324
312482.8527,-100.0892729777958,-76.26628135895551,-65.6347050298192,-91.92644136263576,67.13299999997253
312482.8537,-104.99676517596217,-89.44904824874995,-73.2237990078254,-106.0469765389766,67.13399999996182
312482.8547,-108.97582318056715,-102.08579842645793,-80.79000170720789,-119.567457586195,67.13500000000931
312482.8557,-112.03929098172047,-113.99012551397908,-88.23514776480847,-132.2865748527732,67.1359999999986
312482.8567,-114.20136076281187,-124.96440136396043,-95.43740864960009,-143.98636382862568,67.13699999998789
312482.8577,-115.47571446859907,-134.80189679424905,-102.25161884579292,-154.43480968077372,67.13799999997718
