TimeStamp,ECR,FCR,ECU,FCU,time_index
311886.6537,-206.2224237111723,-169.50869993453222,-201.94705370847927,-110.4454993029758,62.77400000003399
311886.6547,-160.2751046607747,-117.88927670146656,-159.0795688579863,-56.91627319462637,62.77500000002328
311886.6557,-113.85572826843004,-66.71825490820473,-115.70732146881977,-5.266889597431089,62.77600000001257
311886.6567,-68.13427750632046,-17.232829007879932,-72.97366794183266,43.37753758819043,62.77700000000186
311886.6577,-24.200937137659142,29.44134044803985,-31.940533142560117,88.03452327221558,62.77799999999115
311886.6587,16.966827375705464,72.32267080825689,6.443701873289309,127.8893007139021,62.77900000003865
311886.6597,54.53138230646142,110.59932031058186,41.37037332739222,162.3126681504961,62.78000000002794
311886.6607,87.81541495394738,143.64727395143558,72.19001845051189,190.8712609114382,62.78100000001723
311886.6617,116.31529698890388,171.04049496368683,98.42473318542159,213.33023315313645,62.78200000000652
311886.6627,139.70714092360174,192.55312545025998,119.77328742759067,229.64863506474953,62.78299999999581
311886.6637,157.84568767063234,208.1540497319296,136.1091935193771,239.9680491067171,62.7839999999851
311886.6647,170.756466015618,217.994440798036,147.47221575545103,244.5952936188504,62.785000000032596
311886.6657,178.62193905726002,222.38918209159903,154.05406895847102,243.98020602415818,62.786000000021886
311886.6667,181.7625864823735,221.79328275781344,156.17927218089017,238.68967394446875,62.787000000011176
311886.6677,180.6140544949696,216.77457476780282,154.2822901882106,229.37918515710146,62.788000000000466
311886.6687,175.70162878709775,207.98408718776025,148.88220343923197,216.76321235631517,62.788999999989755
311886.6697,167.61334416995123,196.12553099083084,140.55619212510575,201.58573404308356,62.79000000003725
311886.6707,156.97303458535208,181.92529503483686,129.91309974005296,184.59211891282595,62.79100000002654
311886.6717,144.41455003900086,166.1042516404438,117.56825824601988,166.503471044389,62.79200000001583
311886.6727,130.55822729700927,149.3525040608091,104.12061531140262,147.99435328544322,62.79300000000512
311886.6737,115.99050763087942,132.3079874923308,90.13301299670108,129.674585819207,62.79399999999441
311886.6747,101.24735972965901,115.53957327750523,76.11623844912512,112.07556811492637,62.7949999999837
311886.6757,86.80190429680248,99.53503874953358,62.51721503849749,95.64130965601129,62.7960000000312
311886.6767,73.05636596235303,84.69397093420557,49.71144298731245,80.72409371945672,62.79700000002049
311886.6777,60.33821589704683,71.32538998456063,37.999548582810284,67.5844550653534,62.79800000000978
311886.6787,48.90013228385895,59.64962604494915,27.607576553931768,56.39494181243724,62.79899999999907
311886.6797,38.92321103112972,49.803777383989676,18.690475344206966,47.24696704948034,62.79999999998836
311886.6807,30.52271806004733,41.84993081698078,11.338091015883169,40.1599466782067,62.801000000035856
311886.6817,23.75559520483955,35.7852458364869,5.582909663287155,35.09187232041422,62.802000000025146
311886.6827,18.628917337247138,31.55299439392902,1.4087732310905934,31.950482907305982,62.803000000014435
311886.6837,15.108546662279824,29.053706276400884,-1.240162533253072,30.604272024757446,62.804000000003725
311886.6847,13.127334071814875,28.155687495048493,-2.4508633068523578,30.89269185399841,62.804999999993015
311886.6857,12.592365389513079,28.70434336087627,-2.333742588580465,32.635076349771246,62.805999999982305
311886.6867,13.390927276652702,30.529932719573196,-1.0162124490267153,35.63799098654426,62.8070000000298
311886.6877,15.395056387715755,33.45358676946074,1.3623846844039338,39.70090726041055,62.80800000001909
311886.6887,18.464718402827483,37.29162612773877,4.654478421079452,44.620280344336166,62.80900000000838
311886.6897,22.4498241855183,41.85838566982237,8.706774128569327,50.19226243259661,62.80999999999767
311886.6907,27.191414405307192,46.96789324897678,13.361844053661098,56.21439971095737,62.81099999998696
311886.6917,32.522421195951665,52.43483490342745,18.459168229252306,62.48672876337152,62.81200000003446
311886.6927,38.268440155325024,58.075269792490744,23.836015951202146,68.8127044196602,62.81300000002375
311886.6937,44.248917756478086,63.70753256964592,29.328538497720913,75.00035636885893,62.81400000001304
311886.6947,50.27908270001767,69.15368431986823,34.77337925384501,80.86399193949093,62.81500000000233
311886.6957,56.172834205120374,74.24175553816364,40.01000685456522,86.22664714378242,62.81599999999162
311886.6967,61.74665872051436,78.80887971703264,44.88385212699238,90.92335050838946,62.81699999998091
311886.6977,66.82449445934274,82.70526020744457,49.250194472586074,94.80511944136627,62.818000000028405
311886.6987,71.24331684152686,85.79876323414516,52.97861270733667,97.74347248115664,62.819000000017695
311886.6997,74.85909298372462,87.97980256512929,55.95770348286279,99.63512729545539,62.820000000006985
311886.7007,77.55266320689148,89.16609021910008,58.09968945442981,100.40647589002035,62.820999999996275
311886.7017,79.23506200232549,89.3067828327004,59.344498355226655,100.0173937142481,62.821999999985565
311886.7027,79.85179538507975,88.38556023400761,59.66289801180503,98.4639523761352,62.82300000003306
311886.7037,79.38564642881505,86.4222314380256,59.05832146094668,95.77966587432762,62.82400000002235
311886.7047,77.85768132702489,83.4725684732575,57.56710646997358,92.03500226385677,62.82500000001164
311886.7057,75.32626527742399,79.62621018112807,55.25699650229037,87.33502693968886,62.82600000000093
311886.7067,71.88405787014295,75.00264263549809,52.22389373364244,81.81519742638872,62.82699999999022
311886.7077,67.65312609431578,69.74543391613196,48.58700514427903,75.63548786446013,62.82800000003772
311886.7087,62.77847327712147,64.01506162012505,44.48266520705648,68.97316887598606,62.82900000002701
311886.7097,57.42041864826389,57.98080555069902,40.05723913137872,62.01469069939541,62.8300000000163
311886.7107,51.74636142822025,51.81227179061383,35.45959693030435,54.94720227849464,62.83100000000559
311886.7117,45.92251556706835,45.671157988827254,30.833691929681045,47.950277782132765,62.83199999999488
311886.7127,40.10620122745186,39.703858134366584,26.311773045906495,41.18841060563967,62.83299999998417
311886.7137,34.43922656892358,34.035438683681534,22.008708145162732,34.804773851483624,62.834000000031665
311886.7147,29.042793183637833,28.765402321328438,18.017800615082614,28.916640948090773,62.835000000020955
311886.7157,24.014220093052945,23.965501367560247,14.408351679612558,23.612720036293666,62.836000000010245
311886.7167,19.425617667137733,19.679684222461738,11.22506906903835,18.952493959352793,62.836999999999534
311886.7177,15.324469705642821,15.926072022019929,8.489262694640525,14.967489155267154,62.837999999988824
311886.7187,11.735915656062524,12.700686468702237,6.201615034530051,11.664237140760005,62.83900000003632
311886.7197,8.666381264734834,9.982500298551232,4.346182402983122,9.028556412620105,62.84000000002561
311886.7207,6.108098367886948,7.739273264510214,2.8951854698102895,7.03068301509078,62.8410000000149
311886.7217,4.043992994494713,5.933579168295784,1.8140923775902444,5.630723792970185,62.84200000000419
311886.7227,2.452410941416498,4.5284287769897515,1.066490497353748,4.783902182415107,62.84299999999348
311886.7237,1.3111919415441888,3.4919493926352914,0.6182835868912456,4.445112201115008,62.84399999998277
311886.7247,0.6006928698511638,2.8006889264634056,0.44083556046058403,4.572387216837388,62.84500000003027
311886.7257,0.3054879115161248,2.4412601450321683,0.5128017286418839,5.129016914780498,62.84600000001956
311886.7267,0.41462634225530187,2.4102149338778327,0.8205313299579308,6.084196039144423,62.84700000000885
311886.7277,0.9204911952384381,2.712222021503946,1.3570773366512443,7.4122471328896244,62.84799999999814
311886.7287,1.816458321109134,3.3567967364069733,2.1199959067245184,9.09061104500364,62.84899999998743
311886.7297,3.0936895472667714,4.353980934367741,3.1082441018352136,11.09692855408569,62.850000000034925
311886.7307,4.737492352296316,5.70948058621136,4.318578218356413,13.405631386702439,62.851000000024214
311886.7317,6.72373174252674,7.4198268977304345,5.741907108758441,15.984511921848803,62.852000000013504
311886.7327,9.015782398558706,9.468128434177162,7.360060122509707,18.79174302997082,62.853000000002794
311886.7337,11.56246024831922,11.82092627042324,9.143387291531585,21.773772677559453,62.853999999992084
311886.7347,14.297277126799628,14.42655700078391,11.049524304632309,24.86442686010306,62.85499999998137
311886.7357,17.1392294733092,17.21527992575519,13.023535097955724,27.985428220720326,62.85600000002887
311886.7367,19.99517522542745,20.10124938317833,14.999502416862326,31.048388985704516,62.85700000001816
311886.7377,22.76368780059043,22.98622818957215,16.903485646121588,33.95818048582148,62.85800000000745
311886.7387,25.340118857361293,25.764761692042445,18.65762062453977,36.61743322167569,62.85899999999674
311886.7397,27.622468249579782,28.330381415115717,20.185012537901148,38.9317961160058,62.85999999998603
311886.7407,29.517563808899485,30.582297643414414,21.414982787093326,40.815493992716604,62.86100000003353
311886.7417,30.947005269959632,32.431982469694205,22.288183171769557,42.196677656787685,62.86200000002282
311886.7427,31.852331113896664,33.80904476565856,22.761090855703063,43.022066027801024,62.86300000001211
311886.7437,32.19892449832674,34.66585646257828,22.809445742656422,43.26043449939638,62.8640000000014
311886.7447,31.978279696271358,34.980500040624975,22.430283705264124,42.90460303617532,62.86499999999069
311886.7457,31.208393772459736,34.75775964213341,21.642345862742474,41.97171201824168,62.866000000038184
311886.7467,29.932215977260505,34.02805804141204,20.484793603101828,40.50173052303311,62.867000000027474
311886.7477,28.214263458207135,32.84443143380287,19.01431680782383,38.5543053690074,62.868000000016764
311886.7487,26.135679397452535,31.277815281217503,17.300873407375096,36.204213861817216,62.869000000006054
311886.7497,23.78815236393888,29.41106972368739,15.42242726072621,33.53581363309225,62.86999999999534
311886.7507,21.267219660373417,27.332287330897792,13.459145789098287,30.636976420382346,62.87099999998463
311886.7517,18.665532605378505,25.12798822743751,11.487569520073217,27.593039872235547,62.87200000003213
311886.7527,16.0666625981621,22.876811964752715,9.575267687461364,24.48130775091324,62.87300000002142
311886.7537,13.539973301599906,20.644261668184566,7.776447016957249,21.366574502166777,62.87400000001071
311886.7547,11.136981463418865,18.47894936403252,6.128889327785877,18.298050281336373,62.875
311886.7557,8.889486670576904,16.410642522883965,4.652466463120815,15.307926832884135,62.87599999998929
311886.7567,6.809582413134005,14.450235362344003,3.349330671186838,12.411666285312867,62.87700000003679
311886.7577,4.891483414637104,12.591581603735028,2.205719504768328,9.609929327124105,62.87800000002608
311886.7587,3.11493435953352,10.814946395223162,1.19516203194097,6.891902459121883,62.87900000001537
311886.7597,1.4498192404739407,9.091681388682415,0.2827424159253684,4.239651290487919,62.88000000000466
311886.7607,-0.13851747146202237,7.3896133499454155,-0.5700196405294609,1.6330310177263396,62.880999999993946
311886.7617,-1.6837865085552577,5.678574075710018,-1.4001652128873554,-0.9453644613193072,62.881999999983236
311886.7627,-3.2136612054421367,3.935493638499785,-2.2386675441912423,-3.505732164789588,62.883000000030734
311886.7637,-4.7455836774776134,2.148530347487421,-3.106632814367505,-6.047533936711096,62.88400000002002
311886.7647,-6.28387999881734,0.3198139614323932,-4.0126964392637845,-8.557282966591975,62.88500000000931
311886.7657,-7.818458440807804,-1.5334767785195698,-4.951857580646974,-11.007878163805232,62.8859999999986
311886.7667,-9.325202882454576,-3.379809744292923,-5.905848062918301,-13.35956582324814,62.88699999998789
311886.7677,-10.76800177507155,-5.175694194377685,-6.844976916676897,-15.562444760805844,62.88800000003539
311886.7687,-12.102188450988361,-6.869527433267111,-7.7312436331613155,-17.560276376367216,62.88900000002468
311886.7697,-13.279027283262868,-8.40649791800288,-8.52238654102092,-19.295230042024194,62.89000000001397
311886.7707,-14.250776072910192,-9.734041047876454,-9.176439987545697,-20.71309959857781,62.89100000000326
311886.7717,-14.975798223154687,-10.807286051780595,-9.656324328365,-21.768477776195496,62.89199999999255
311886.7727,-15.423194242396987,-11.593930762333684,-9.933990942881582,-22.429376760273236,62.89299999998184
311886.7737,-15.576471174391672,-12.078035784564937,-9.99369069329358,-22.680834695381044,62.89400000002934
311886.7747,-15.43586572579031,-12.262335220635265,-9.834023775011502,-22.527144548750027,62.89500000001863
311886.7757,-15.019072441149687,-12.168807267207615,-9.468552812336524,-21.992473931943525,62.896000000007916
311886.7767,-14.360288764919574,-11.837420225362871,-8.924906969592827,-21.11979923308901,62.896999999997206
311886.7777,-13.507658265910042,-11.323150738783799,-8.242458216979868,-19.968239578020594,62.897999999986496
311886.7787,-12.519354827765033,-10.691543478305196,-7.468796402547832,-18.609029845161707,62.89900000003399
311886.7797,-11.458688145879105,-10.013227946509447,-6.655352891540317,-17.12050218011508,62.90000000002328
311886.7807,-10.388710695402018,-9.35791404566029,-5.852610904305365,-15.582539482108334,62.90100000001257
311886.7817,-9.366858446748383,-8.788442965596797,-5.1053854111493955,-14.071013016168937,62.90200000000186
311886.7827,-8.440156721553167,-8.355468249957449,-4.448651946420687,-12.652714948463894,62.90299999999115
311886.7837,-7.6414686673894305,-8.093283602712129,-3.9043521859772086,-11.381245429168768,62.90400000003865
311886.7847,-6.987162105693437,-8.01720469028387,-3.4795095591175116,-10.294217971882956,62.90500000002794
311886.7857,-6.476430943382995,-8.122762495873195,-3.1658597812697953,-9.41201580539796,62.90600000001723
311886.7867,-6.092343669115415,-8.386790300384003,-2.941051602085556,-8.738178562631266,62.90700000000652
311886.7877,-5.8045198242235045,-8.77030226272436,-2.7713169844231467,-8.261338263875217,62.90799999999581
311886.7887,-5.573172705827313,-9.222886884405613,-2.6153627428562096,-7.958471879565352,62.9089999999851
311886.7897,-5.354119026774965,-9.68819049934025,-2.4291119007893305,-7.799109786760384,62.910000000032596
311886.7907,-5.104257479158772,-10.109958873625475,-2.1708349170243153,-7.750047787617763,62.911000000021886
311886.7917,-4.786967989370988,-10.438049562148171,-1.8061672516261609,-7.780064076119409,62.912000000011176
311886.7927,-4.376887015473831,-10.633829332592766,-1.312514922554929,-7.864146182078554,62.913000000000466
311886.7937,-3.86357136057918,-10.674429632591044,-0.6824034263799691,-7.9867861194718115,62.913999999989755
311886.7947,-3.253668247726847,-10.555443068863191,0.07457738482479077,-8.143999451318766,62.91500000003725
311886.7957,-2.5713526895362433,-10.291794498253145,0.9314484322087486,-8.343856103090472,62.91600000002654
311886.7967,-1.856960624674377,-9.916696940382042,1.8451994264318743,-8.605464419880535,62.91700000001583
311886.7977,-1.1639216393316223,-9.47878791686521,2.7597326357885543,-8.95650992520788,62.91800000000512
311886.7987,-0.5542613080977665,-9.037717956780595,3.6101436915641734,-9.429600603055317,62.91899999999441
311886.7997,-0.0930841049892045,-8.65861274759086,4.327962148248247,-10.05779630210503,62.9199999999837
311886.8007,0.15745027526145564,-8.405939204633555,4.846881322733163,-10.86978845276631,62.9210000000312
311886.8017,0.14409143153296222,-8.337363034226538,5.108458081172323,-11.885238726865117,62.92200000002049
311886.8027,-0.17216088405684715,-8.498185660712494,5.067263427495026,-13.110777112518985,62.92300000000978
311886.8037,-0.8118486578938499,-8.916891729097474,4.695013964827797,-14.537101648299242,62.92399999999907
311886.8047,-1.7743851230262848,-9.602230393791498,3.9833078334532317,-16.137519217700287,62.92499999998836
311886.8057,-3.037183698409911,-10.542104878179167,2.944717609302459,-17.868129212415763,62.926000000035856
311886.8067,-4.5566800754007435,-11.704369920974331,1.612144525614685,-19.669692850095352,62.927000000025146
311886.8077,-6.271164202725224,-13.039452827789885,0.036498719557079076,-21.471065956954142,62.928000000014435
311886.8087,-8.105170108665568,-14.484538887166496,-1.7170763145369732,-23.193918224795993,62.929000000003725
311886.8097,-9.97502704104815,-15.96891294597118,-3.574084883768531,-24.758332525113726,62.929999999993015
311886.8107,-11.795069113955526,-17.4199404421518,-5.456217674699876,-26.088786592216543,62.930999999982305
311886.8117,-13.48394260934296,-18.769113633616175,-7.287044727580936,-27.119975381468123,62.9320000000298
311886.8127,-14.970445676186632,-19.95758758538807,-8.997353123149628,-27.80194020289456,62.93300000001909
311886.8137,-16.198384571110832,-20.94068557554879,-10.52966152485418,-28.104029831872772,62.93400000000838
311886.8147,-17.130028748883227,-21.690959314238,-11.841529657220176,-28.01732372261538,62.93499999999767
311886.8157,-17.747884285499584,-22.199535133274633,-12.907402221279135,-27.55528824372181,62.93599999998696
311886.8167,-18.05466780227739,-22.475648578596697,-13.7188716191122,-26.75260005758751,62.93700000003446
311886.8177,-18.071535339638192,-22.54444963091908,-14.283397928788311,-25.662240713163044,62.93800000002375
311886.8187,-17.834785728250353,-22.443331303256592,-14.621672758926882,-24.35112686842364,62.93900000001304
311886.8197,-17.391399926719533,-22.217178787268466,-14.763941486092165,-22.89467586607675,62.94000000000233
311886.8207,-16.793882880530806,-21.913040429100906,-14.745693560234947,-21.37080362444833,62.94099999999162
311886.8217,-16.09493271154406,-21.574775406874814,-14.603183936077006,-19.85390162517525,62.94199999998091
311886.8227,-15.342468104986418,-21.238230865341194,-14.369255281362104,-18.4093374211314,62.943000000028405
311886.8237,-14.575498395846463,-20.927443765139557,-14.069890083286417,-17.088968848446214,62.944000000017695
311886.8247,-13.821226991878666,-20.6522556314029,-13.721838433431257,-15.928061329945002,62.945000000006985
311886.8257,-13.093646982858166,-20.407582450459714,-13.331549655007395,-14.943860138076117,62.945999999996275
311886.8267,-12.393731355816794,-20.17441172240194,-12.895495959897545,-14.135908629415498,62.946999999985565
311886.8277,-11.711154835719535,-19.92242110129179,-12.401828104950566,-13.488034903531734,62.94800000003306
311886.8287,-11.027326517598956,-19.61394585267934,-11.833161482758246,-12.971769433703653,62.94900000002235
311886.8297,-10.31937788334327,-19.20888223142458,-11.17017048906753,-12.550820453665152,62.95000000001164
311886.8307,-9.564652903466166,-18.67001487698441,-10.39558153488715,-12.186135374137656,62.95100000000093
311886.8317,-8.74519545520509,-17.968208438441888,-9.498109606374205,-11.8410247045602,62.95199999999022
311886.8327,-7.851729370898583,-17.08691183943283,-8.475884536122532,-11.485824758920497,62.95300000003772
311886.8337,-6.886678070121916,-16.02548729850274,-7.338961201967456,-11.101626679042091,62.95400000002701
311886.8347,-5.865868806846327,-14.800989365878566,-6.110598111702026,-10.682696843128344,62.9550000000163
311886.8357,-4.818701339218842,-13.448170848279986,-4.827112435135978,-10.237347860761139,62.95600000000559
311886.8367,-3.7867189017880474,-12.017667754647421,-3.536264312717042,-9.787176846080134,62.95699999999488
311886.8377,-2.8206849817333404,-10.572497100103837,-2.294274834062127,-9.364753001717373,62.95799999998417
311886.8387,-1.9764260326433545,-9.183171637683172,-1.1617253120305993,-9.009993481259878,62.959000000031665
311886.8397,-1.3098322000480394,-7.921877482298825,-0.19870598275802712,-8.765599610468378,62.960000000020955
311886.8407,-0.8715020685243934,-6.856259994082247,0.5403321985182054,-8.672021764363935,62.961000000010245
311886.8417,-0.7015637626251556,-6.043410151588435,1.011527284421666,-8.762471065864988,62.961999999999534
311886.8427,-0.8251984962004713,-5.5246330287569965,1.1858689174724784,-9.058494680960486,62.962999999988824
311886.8437,-1.2493340806826438,-5.321512558251962,1.052340097859093,-9.566578943815273,62.96400000003632
311886.8447,-1.9608703410127073,-5.433668740203017,0.6196028627816131,-10.276145967225501,62.96500000002561
311886.8457,-2.9266558597036365,-5.838446025150096,-0.08397478336324288,-11.159174397642973,62.9660000000149
311886.8467,-4.095269662605639,-6.492589831843742,-1.0119991076431498,-12.171516739118594,62.96700000000419
311886.8477,-5.400488409029463,-7.33577954469884,-2.1033253947671358,-13.2558196483737,62.96799999999348
311886.8487,-6.766156175341133,-8.29570908456428,-3.2866621696190785,-14.345796006808714,62.96899999998277
311886.8497,-8.112035992657063,-9.294257423737655,-4.486111009077266,-15.37146379635018,62.97000000003027
311886.8507,-9.360123470171509,-10.254185667180757,-5.627155325406683,-16.264869914433415,62.97100000001956
311886.8517,-10.440852920022447,-11.105744868201144,-6.642564084977147,-16.965766534954646,62.97200000000885
311886.8527,-11.298630506731945,-11.792584781260482,-7.47767917888647,-17.426708418722896,62.97299999999814
311886.8537,-11.896186970463914,-12.276417834070216,-8.09460813279162,-17.617091668112124,62.97399999998743
311886.8547,-12.217349099692182,-12.540008686285718,-8.474942245713992,-17.525752790410678,62.975000000034925
311886.8557,-12.267974325042763,-12.588216778152631,-8.620754910219855,-17.161882073869172,62.976000000024214
311886.8567,-12.074962791673094,-12.447002255501857,-8.553793103985111,-16.55416411560715,62.977000000013504
311886.8577,-11.683439838100844,-12.160497082224154,-8.312941869394743,-15.748225505398423,62.978000000002794
311886.8587,-11.152371899126212,-11.786424700336948,-7.950201164826769,-14.802629001012976,62.978999999992084
311886.8597,-10.549024181175707,-11.390305909148324,-7.525551592541779,-13.783789641279006,62.97999999998137
311886.8607,-9.942775114848184,-11.039000978172686,-7.101187125992147,-12.760288015794234,62.98100000002887
311886.8617,-9.39886036888453,-10.794197705376005,-6.7356494090047905,-11.797109775896718,62.98200000001816
311886.8627,-8.972622613503386,-10.706456587464269,-6.4784041477689565,-10.95034333850762,62.98300000000745
311886.8637,-8.704791991001647,-10.810367507051785,-6.3653550839454995,-10.262819482982005,62.98399999999674
311886.8647,-8.61822139829444,-11.121263001097667,-6.415699446522676,-9.761082031380356,62.98499999998603
311886.8657,-8.716360004111289,-11.633781956725745,-6.630399529256702,-9.453947395420975,62.98600000003353
311886.8667,-8.983581539763874,-12.322399204276463,-6.992390637012142,-9.332755409104598,62.98700000002282
311886.8677,-9.387306950162325,-13.143848247942111,-7.468480985685536,-9.373249791557036,62.98800000001211
311886.8687,-9.881691039989827,-14.04118449569962,-8.012740061670124,-9.538869854054942,62.9890000000014
311886.8697,-10.412496141046368,-14.949082153420983,-8.571033677223195,-9.785100961538799,62.98999999999069
311886.8707,-10.92266658704318,-15.79984420504053,-9.086259640258898,-10.064432793811617,62.991000000038184
311886.8717,-11.358056260986949,-16.529542390947864,-9.503777374889852,-10.331421091077303,62.992000000027474
311886.8727,-11.672753351828742,-17.083698566396894,-9.776513469141197,-10.547345310742088,62.993000000016764
311886.8737,-11.833492181292021,-17.421970437201825,-9.869263664547546,-10.684001518461072,62.994000000006054
311886.8747,-11.822736757265524,-17.52140801997695,-9.761796063887537,-10.726261999248216,62.99499999999534
311886.8757,-11.640155038818742,-17.377991817665865,-9.450481727345652,-10.673161174756233,62.99599999998463
311886.8767,-11.302363413316773,-17.006335207302573,-8.948325212085962,-10.537418610501142,62.99700000003213
311886.8777,-10.84099175057106,-16.43761491358969,-8.283424500188248,-10.343469115317381,62.99800000002142
311886.8787,-10.299283839998987,-15.71596681099737,-7.496041756375304,-10.12422135226325,62.99900000001071
311886.8797,-9.727589970460881,-14.893732653242283,-6.634598659585155,-9.916894987092299,63.0
311886.8807,-9.178214092989588,-14.026052207334736,-5.751009904240528,-9.758379478649948,63.00099999998929
311886.8817,-8.70013724906925,-13.165354159925174,-4.895826391621579,-9.68060598387969,63.00200000003679
311886.8827,-8.334146192452879,-12.356302533661104,-4.113670342406676,-9.706422762090913,63.00300000002608
311886.8837,-8.108850959263105,-11.63170317558918,-3.4394074550750444,-9.846414067492983,63.00400000001537
311886.8847,-8.037982291828065,-11.009772628279913,-2.895420423574502,-10.097007838645654,63.00500000000466
311886.8857,-8.119228722030629,-10.493029778567411,-2.49023200730267,-10.440087925871273,63.005999999993946
311886.8867,-8.334716937966611,-10.068903411188607,-2.21858624599189,-10.844174986046161,63.006999999983236
311886.8877,-8.653073395953745,-9.711972965802948,-2.0629474088056874,-11.26708154087219,63.008000000030734
311886.8887,-9.032846489154652,-9.387593008218884,-1.9962327850709893,-11.65979676096063,63.00900000002002
311886.8897,-9.426932691282799,-9.05651084934622,-1.9854717554116212,-11.971230175574377,63.01000000000931
311886.8907,-9.78755040605497,-8.6799854633731,-1.9959919748002253,-12.153353274541049,63.0109999999986
311886.8917,-10.071251590761158,-8.224864476442374,-1.9956829536594172,-12.166232872456405,63.01199999998789
311886.8927,-10.2434588142703,-7.668079647369119,-1.9588827135880411,-11.982454717176365,63.01300000003539
311886.8937,-10.28206438406626,-7.000079587684479,-1.8694748001880712,-11.590489830164438,63.01400000002468
311886.8947,-10.179723558215272,-6.226825668052022,-1.7228664295853537,-10.996654296306613,63.01500000001397
311886.8957,-9.944606070215384,-5.370122460149308,-1.526635435565287,-10.22544615979536,63.01600000000326
311886.8967,-9.599526016579757,-4.466223182908834,-1.299772165244286,-9.31819780346156,63.01699999999255
311886.8977,-9.179534037781446,-3.5628265960111256,-1.0705885989796915,-8.33014362143279,63.01799999998184
311886.8987,-8.728211323674964,-2.7147470373697176,-0.8735060454060343,-7.3261552041483515,63.01900000002934
311886.8997,-8.293036784198431,-1.9786772880882708,-0.7450507849824864,-6.375524782559284,63.02000000001863
311886.9007,-7.920293595874031,-1.4075607855987182,-0.7194720890418168,-5.546269799038721,63.021000000007916
311886.9017,-7.650029774876403,-1.0451355509837348,-0.824440473363135,-4.899478218560474,63.021999999997206
311886.9027,-7.511584545646185,-0.9212022263231436,-1.0772813265039463,-4.484211032412851,63.022999999986496
311886.9037,-7.520138259241055,-1.0481035141554147,-1.4821502339753445,-4.333425682029827,63.02400000003399
311886.9047,-7.674643723466253,-1.4187882073350087,-2.028466037318405,-4.46128702622039,63.02500000002328
311886.9057,-7.957360845864909,-2.0066808896536092,-2.690794702942532,-4.862100503001386,63.02600000001257
311886.9067,-8.33505785980741,-2.7674030662290905,-3.4302334994926325,-5.510948200468693,63.02700000000186
311886.9077,-8.761776774721934,-3.6422100905991353,-4.197194972500536,-6.3659476741245475,63.02799999999115
311886.9087,-9.182904463964912,-4.562838610635121,-4.935348651340237,-7.3719011989057615,63.02900000003865
311886.9097,-9.540159487811303,-5.457318103601268,-5.586359456251809,-8.464974495015666,63.03000000002794
311886.9107,-9.77701143087548,-6.256201438869259,-6.094977359517377,-9.57795124472096,63.03100000001723
311886.9117,-9.844003579216746,-6.898623218692873,-6.41399160459604,-10.645561789037181,63.03200000000652
311886.9127,-9.703455887340557,-7.337605737637748,-6.5085690871714945,-11.609385701776553,63.03299999999581
311886.9137,-9.333082978898553,-7.544100024937328,-6.3595500669098275,-12.421878077581294,63.0339999999851
311886.9147,-8.728165881890618,-7.509367321267208,-5.9653702610853685,-13.049163136517388,63.035000000032596
311886.9157,-7.902056251615947,-7.245463291613752,-5.342407434672662,-13.472366661984537,63.036000000021886
311886.9167,-6.884954333703512,-6.783768235511506,-4.5237004073325755,-13.687408039445598,63.037000000011176
311886.9177,-5.721070971262471,-6.171694075016911,-3.5561444195907974,-13.703328373618495,63.038000000000466
311886.9187,-4.464442983742834,-5.46787482706501,-2.4964138468959267,-13.53937785745726,63.038999999989755
311886.9197,-3.1738046009845515,-4.736294511872143,-1.4059869544758465,-13.221208702770898,63.04000000003725
311886.9207,-1.9070121631869523,-4.039910654027758,-0.3457356165430686,-12.77660733690447,63.04100000002654
311886.9217,-0.7155656083529276,-3.4343824708835027,0.6294130243355645,-12.231242600368157,63.04200000001583
311886.9227,0.3602363272404773,-2.9625054194608955,1.4752405310964787,-11.604901131722869,63.04300000000512
311886.9237,1.2950293028590025,-2.6498885282036437,2.1619772100728727,-10.908627602262417,63.04399999999441
311886.9247,2.0806329511819066,-2.5022940011059287,2.6766648270814177,-10.143091323461539,63.0449999999837
311886.9257,2.726587400786445,-2.504901075525018,3.0239189389758585,-9.298371579271315,63.0460000000312
311886.9267,3.2589128163291323,-2.6235730938935893,3.2250197442680038,-8.355204698649052,63.04700000002049
311886.9277,3.717200487391737,-2.808015740941161,3.3154193718346274,-7.287581263827783,63.04800000000978
311886.9287,4.1503067055812375,-2.9965337154460947,3.3409043125035667,-6.066437386887634,63.04899999999907
311886.9297,4.611057852567529,-3.1219400856524384,3.352779766793565,-4.66406416565886,63.04999999998836
311886.9307,5.150473447386028,-3.1180619117868225,3.4025357330374835,-3.058776358297064,63.051000000035856
311886.9317,5.81206377115171,-2.926228039661179,3.5365037642068704,-1.2393435356475435,63.052000000025146
311886.9327,6.626755165903538,-2.5011258238275493,3.791013778554983,0.7913013898638066,63.053000000014435
311886.9337,7.608939399962258,-1.815472853216201,4.188512098320566,3.013501005519904,63.054000000003725
311886.9347,8.754038942938818,-0.8630618339917419,4.735009673159947,5.389780777151752,63.054999999993015
311886.9357,10.03783755860202,0.3401091335138153,5.4191021142425715,7.865409090883761,63.055999999982305
311886.9367,11.417658928648411,1.7567273707927002,6.212652990716876,10.370636681462601,63.0570000000298
311886.9377,12.835301045878154,3.330992965013,7.073073285644539,12.82447959271128,63.05800000001909
311886.9387,14.221467656553026,4.993115594729265,7.9469782341418105,15.139757854757265,63.05900000000838
311886.9397,15.50129607531717,6.665057382462236,8.774872555211125,17.228975586420805,63.05999999999767
311886.9407,16.60047687206782,8.266982941925622,9.496418833309976,19.01053972622628,63.06099999998696
311886.9417,17.45140519017985,9.723814412291624,10.05579069632047,20.414772938623596,63.06200000003446
311886.9427,17.998801105710736,10.971283817890239,10.406607467340407,21.38918581715951,63.06300000002375
311886.9437,18.204287621748726,11.96092785907345,10.515990450065063,21.902533756946692,63.06400000001304
311886.9447,18.049514578085855,12.663575887361288,10.367368540238926,21.947289330792323,63.06500000000233
311886.9457,17.53755522369625,13.071029890771982,9.961783755946316,21.54030181808667,63.06599999999162
311886.9467,16.692465987629305,13.195811271131307,9.317593434523733,20.72157839384524,63.06699999998091
311886.9477,15.557073204988132,13.069035827666147,8.468620899846723,19.551290911754375,63.068000000028405
311886.9487,14.189216443784114,12.736657481847871,7.460955176306783,18.105272067471784,63.069000000017695
311886.9497,12.656820630312918,12.254475493550904,6.348728292609036,16.4693997657547,63.070000000006985
311886.9507,11.032274701647664,11.682414326741954,5.189293446826075,14.733365880432633,63.070999999996275
311886.9517,9.386652996254892,11.078648967331159,4.038279672079398,12.984376069728455,63.071999999985565
311886.9527,7.784321631149375,10.494155429064362,2.945003733047644,11.301326206358452,63.07300000003306
311886.9537,6.278425461034305,9.968216040217897,1.9486775641341958,9.749948609461095,63.07400000002235
311886.9547,4.907656790479292,9.525307126313665,1.075764096532128,8.37932289145244,63.07500000001164
311886.9557,3.6945744028247387,9.173653215714472,0.3387145292327805,7.22001156891849,63.07600000000093
311886.9567,2.6455839828933376,8.905561276814671,-0.2638219263240259,6.283922836049848,63.07699999999022
311886.9577,1.752524344218225,8.69946776352832,-0.7453747858693249,5.565837462990673,63.07800000003772
311886.9587,0.9956445661108039,8.523458369602139,-1.128817397281982,5.046379748876231,63.07900000002701
311886.9597,0.3476209477462743,8.339872521042745,-1.4426438625037519,4.696079030467856,63.0800000000163
311886.9607,-0.2218370078282661,8.110496405201092,-1.7167693164682118,4.480071244820954,63.08100000000559
311886.9617,-0.7412958307978963,7.801790422400479,-1.9783109448589846,4.36293865987765,63.08199999999488
311886.9627,-1.2333289264355505,7.3895950180547345,-2.2478061881927824,4.313184786009548,63.08299999998417
311886.9637,-1.7111262268549086,6.862813008454962,-2.5362770251804077,4.306890356908106,63.084000000031665
311886.9647,-2.1763444974394637,6.2256712761731094,-2.843459878431543,4.33018988305516,63.085000000020955
311886.9657,-2.6184283203655334,5.498309577845878,-3.157398554064363,4.380336999584767,63.086000000010245
311886.9667,-3.0154768313963363,4.71561469104083,-3.4554550196173874,4.465277582054817,63.086999999999534
311886.9677,-3.3365688426392754,3.924397196809848,-3.706644115807443,4.601807184958431,63.087999999988824
311886.9687,-3.5453054032845266,3.179177966273006,-3.8750584985003993,4.81253794314436,63.08900000003632
311886.9697,-3.604199599513007,2.536994931593026,-3.9240333712057236,5.12202478812235,63.09000000002561
311886.9707,-3.4794515109798536,2.051743618615164,-3.8206187791915034,5.552489213768361,63.0910000000149
311886.9717,-3.145601036754519,1.7686168755623652,-3.539888819740461,6.11962207699263,63.09200000000419
311886.9727,-2.5895574400016614,1.719204979503668,-3.068626200452354,6.8289407576099785,63.09299999999348
311886.9737,-1.813561484535421,1.9177571466037895,-2.4079765450060244,7.673121086907941,63.09399999998277
311886.9747,-0.8367384210088668,2.3589952654128443,-1.5747644216441372,8.630626313394147,63.09500000003027
311886.9757,0.3049622297395524,3.0177212305169743,-0.6012928049715156,9.665823848332794,63.09600000001956
311886.9767,1.5604847458223927,3.8502852833702366,0.46640311505306925,10.730628797862336,63.09700000000885
311886.9777,2.866922445087143,4.797801407718153,1.571722878895448,11.767556541021415,63.09799999999814
311886.9787,4.154034576469445,5.790824954002518,2.6518200307392434,12.71392056595956,63.09899999998743
311886.9797,5.349620416300847,6.755064123115504,3.6426864983843887,13.506791096078388,63.100000000034925
311886.9807,6.385256020118315,7.617594871002606,4.48453271393283,14.088246888496107,63.101000000024214
311886.9817,7.201856901778584,8.312998257232682,5.126956978071523,14.410415424989143,63.102000000013504
311886.9827,7.754540056461771,8.788845229946988,5.533409436545535,14.43980944789839,63.103000000002794
311886.9837,8.016320463858397,9.010015731964824,5.684516100293909,14.160529389831957,63.103999999992084
311886.9847,7.98028467342769,8.961450748049863,5.57993108405897,13.576005836284398,63.10499999998137
311886.9857,7.660026942755689,8.649086523012349,5.238520958317644,12.709093610931514,63.10600000002887
311886.9867,7.088297828318039,8.09889489447204,4.696840854421923,11.600485982988378,63.10700000001816
311886.9877,6.313985124169905,7.354135388453078,4.006022789626743,10.305578512324471,63.10800000000745
311886.9887,5.397706036285818,6.471095645491724,3.2273471030425664,8.890061375871253,63.10899999999674
311886.9897,4.406421938993936,5.51374018822248,2.426893393801452,7.424641971729288,63.10999999998603
311886.9907,3.4075800200756023,4.5477895353727105,1.6697557799130918,5.9793840405218734,63.11100000003353
311886.9917,2.463330453820747,3.6348023226546524,1.014350054446333,4.61818708786816,63.11200000002282
311886.9927,1.6253590522251373,2.8268275673799486,0.5073331979426956,3.3939167223868685,63.11300000001211
311886.9937,0.9308144102083129,2.1621331877657197,0.17959930574258498,2.344633781701433,63.1140000000014
311886.9947,0.3997012613025951,1.6624064845232336,0.04371564629310734,1.491263800589885,63.11499999999069
311886.9957,0.033968513518883345,1.3316734809463364,0.09302785525987511,0.8369087558231011,63.116000000038184
311886.9967,-0.1816448130296684,1.157011536110535,0.30250707457659265,0.3678436608427052,63.117000000027474
311886.9977,-0.27711365667839777,1.1109505541618863,0.631249115758273,0.05607700653717091,63.118000000016764
311886.9987,-0.2932491990676991,1.155290119303672,1.0263820340494003,-0.1367977677986565,63.119000000006054
311886.9997,-0.27684134591128445,1.2459196075557821,1.428008529900463,-0.25485776380697817,63.11999999999534
311887.0007,-0.2753175252083848,1.3381296523334065,1.774715725578364,-0.34269729303555296,63.12099999998463
311887.0017,-0.3314591744679864,1.3918560638677853,2.009135971224981,-0.4403886953887894,63.12200000003213
311887.0027,-0.4787091701079409,1.3763061474642708,2.0830429276094535,-0.5790676371859735,63.12300000002142
311887.0037,-0.7375427123227698,1.2734815157985409,1.9615169674951671,-0.7775902929986734,63.12400000001071
311887.0047,-1.1132667284549587,1.0802246569682155,1.6258078871145196,-1.0406026291553303,63.125
311887.0057,-1.5954692043491778,0.8085675496663215,1.0746517125570494,-1.3582209320798777,63.12599999998929
311887.0067,-2.1591740790716387,0.48433457999617163,0.32394936107415867,-1.707361477094122,63.12700000003679
311887.0077,-2.7675857284879943,0.14413166707576391,-0.5951266979226064,-2.054591540722099,63.12800000002608
311887.0087,-3.376146511257893,-0.16897901812514046,-1.6393812800902983,-2.3602200305113303,63.12900000001537
311887.0097,-3.93749720313164,-0.4106807805767773,-2.7578565817002723,-2.583218948912691,63.13000000000466
311887.0107,-4.406836643644459,-0.5409468769771512,-3.896666496194026,-2.686479252205422,63.130999999993946
311887.0117,-4.747132895586498,-0.5293509026237048,-5.003919105087976,-2.641865137010568,63.131999999983236
311887.0127,-4.933648171397672,-0.359580330055435,-6.034240589040844,-2.4345434482048103,63.133000000030734
311887.0137,-4.957302928159018,-0.032660731535660834,-6.952461145309242,-2.066128750306876,63.13400000002002
311887.0147,-4.826514874874847,0.43148181569560984,-7.73611390025281,-1.556293663461293,63.13500000000931
311887.0157,-4.567295537119598,0.9943344481401962,-8.376522053962056,-0.9426379628596671,63.1359999999986
311887.0167,-4.221556248893273,1.6010204908029215,-8.878395061150904,-0.27877491524740217,63.13699999998789
311887.0177,-3.843750541952189,2.184278225664784,-9.258006944951388,0.36923643653440863,63.13800000003539
311887.0187,-3.4961438261353694,2.669868136856816,-9.540173647926956,0.9278251629125233,63.13900000002468
311887.0197,-3.2431380088905852,2.9829371841001455,-9.754367329192352,1.3217878038675772,63.14000000001397
311887.0207,-3.1451749209527544,3.054768395184052,-9.930391710816744,1.4805987220820758,63.14100000000326
311887.0217,-3.2527886598939104,2.8292976067229185,-10.094085452726933,1.3445912483440852,63.14199999999255
311887.0227,-3.601368645335063,2.2687912605185945,-10.263515923083254,0.8704560511666537,63.14299999998184
311887.0237,-4.207133004600407,1.35814887034137,-10.446074204604436,0.03556148869041604,63.14400000002934
311887.0247,-5.064701802648,0.10741463898539316,-10.636788988559879,-1.1592949051408756,63.14500000001863
311887.0257,-6.146512161546417,-1.4477566754723474,-10.818051556429117,-2.688954187029771,63.146000000007916
311887.0267,-7.404146654303837,-3.247749399389051,-10.960798939942912,-4.50487027992748,63.146999999997206
311887.0277,-8.771468899515137,-5.21262974579466,-11.02705213759038,-6.5379077051496575,63.147999999986496
311887.0287,-10.16929304683021,-7.247478604214203,-10.97356600485251,-8.702718313185054,63.14900000003399
311887.0297,-11.511172820424045,-9.248958685144691,-10.756231187742948,-10.903315179687004,63.15000000002328
311887.0307,-12.709794392809624,-11.112550647905703,-10.334787908580097,-13.039361206375625,63.15100000001257
311887.0317,-13.683405137215495,-12.739836033519008,-9.67737467065123,-15.012635194032447,63.15200000000186
311887.0327,-14.361712011182771,-14.04520605629481,-8.764445810547207,-16.73313387622887,63.15299999999115
311887.0337,-14.690738485655809,-14.9614341112126,-7.591649361812588,-18.1243143783974,63.15400000003865
311887.0347,-14.63623191874922,-15.443660255759761,-6.17135534599356,-19.12707274012992,63.15500000002794
311887.0357,-14.185353854505019,-15.471487048427012,-4.5326547483291195,-19.70218116245879,63.15600000001723
311887.0367,-13.346550098603336,-15.04906326664163,-2.719798312890196,-19.831056820656745,63.15700000000652
311887.0377,-12.1476695595757,-14.203218090478561,-0.7891972859125395,-19.514893630854388,63.15799999999581
311887.0387,-10.63256406894515,-12.979885505303965,1.194749704184885,-18.77233985179359,63.1589999999851
311887.0397,-8.856540004025028,-11.439210126319528,3.1646223201481796,-17.63603428346373,63.160000000032596
311887.0407,-6.881133326069465,-9.649837179319613,5.055274834669833,-16.148409808783995,63.161000000021886
311887.0417,-4.768733175439,-7.682950759337327,6.808965144205529,-14.357226281299065,63.162000000011176
311887.0427,-2.577580663283282,-5.606630447473953,8.379830733271078,-12.311300744919443,63.163000000000466
311887.0437,-0.3576193033956001,-3.481047032758959,9.737285289981028,-10.056861831770112,63.163999999989755
311887.0447,1.8524229735471824,-1.354918970671302,10.868010743834361,-7.634871720547879,63.16500000003725
311887.0457,4.026473198652315,0.7364873725547708,11.776352515765097,-5.079542197749472,63.16600000002654
311887.0467,6.1509830394639415,2.771694605434076,12.483077939235816,-2.41813334047775,63.16700000001583
311887.0477,8.223301013522438,4.741742128847158,13.022614449266326,0.3280216451699577,63.16800000000512
311887.0487,10.248773977742719,6.647523281775652,13.439030105055688,3.141458999749059,63.16899999999441
311887.0497,12.23693495330748,8.496090229163366,13.781140180541165,6.00580319871817,63.1699999999837
311887.0507,14.197227601891765,10.296386687639977,14.097208170751417,8.902652344973518,63.1710000000312
311887.0517,16.134764650802474,12.054922030797597,14.42974937828648,11.808560151486045,63.17200000002049
311887.0527,18.046613649478758,13.771900446690658,14.810936333773101,14.69253796373028,63.17300000000978
311887.0537,19.919049040961443,15.438265865081267,15.259048432424239,17.51444812554225,63.17399999999907
311887.0547,21.726110058648768,17.034022837224448,15.776308729146102,20.22456737084263,63.17499999998836
311887.0557,23.429669289310386,18.528055675399283,16.348318333851147,22.764475083122953,63.176000000035856
311887.0567,24.981060261236582,19.879506905144247,16.94514599572479,25.069278677234372,63.177000000025146
311887.0577,26.32414970035331,21.04060776070234,17.523971948752656,27.071041483803242,63.178000000014435
311887.0587,27.399587393088645,21.960695112908745,18.033036162541357,28.703142367857602,63.179000000003725
311887.0597,28.14983921708401,22.591016959657477,18.416516143057834,29.905184954760006,63.179999999993015
311887.0607,28.524519719572023,22.889835984432,18.619870398214257,30.627999469790993,63.180999999982305
311887.0617,28.485498786629034,22.827297346261055,18.595139195842037,30.838249971490736,63.1820000000298
311887.0627,28.01126696524497,22.389537573332962,18.3056985672201,30.52217792673513,63.18300000001909
311887.0637,27.100105285032804,21.581575584483467,17.730016199635838,29.688078586951104,63.18400000000838
311887.0647,25.771712326462193,20.428638507457062,16.86405379000249,28.367213693228333,63.18499999999767
311887.0657,24.067083621553646,18.97572337120343,15.722090289309097,26.61300268142799,63.18599999998696
311887.0667,22.046602533388832,17.285366454602794,14.335891665845148,24.498491561396577,63.18700000003446
311887.0677,19.78647161939814,15.433768287796495,12.752310707994209,22.112258847421334,63.18800000002375
311887.0687,17.373772569229413,13.505586569189195,11.029549696608772,19.553065705480222,63.18900000001304
311887.0697,14.900575529551064,11.587845186073741,9.232445078914838,16.923678329166734,63.19000000000233
311887.0707,12.457611909679189,9.763501405683119,7.427224406411788,14.324372461741364,63.19099999999162
311887.0717,10.128069337048561,8.105255494411754,5.676233038185564,11.846664673957802,63.19199999998091
311887.0727,7.982058765063384,6.670172920407118,4.033127029669561,9.567798772367942,63.193000000028405
311887.0737,6.0722424815848,5.495619808553618,2.5389795143725347,7.546449780333537,63.194000000017695
311887.0747,4.431003714493206,4.596893807153134,1.2196557134393413,5.819998374050584,63.195000000006985
311887.0757,3.0693940494255183,3.966776198339527,0.08468563286556466,4.4035857983909485,63.195999999996275
311887.0767,1.977927899686277,3.5770519064515933,-0.8722840292688637,3.2909967207044595,63.196999999985565
311887.0777,1.1291199410971107,3.381859299385671,-1.6715317452236222,2.4572507291664767,63.19800000003306
311887.0787,0.48149851331217786,3.3225592194883258,-2.344016103822254,1.8626281924097767,63.19900000002235
311887.0797,-0.015308752703705793,3.333669264985805,-2.9271870377911005,1.4577277829337634,63.20000000001164
311887.0807,-0.41491819657676005,3.349308928624252,-3.4602859229229237,1.1890633655656584,63.20100000000093
311887.0817,-0.7685120532556247,3.309553589162622,-3.979613424404669,1.0046656341580722,63.20199999999022
311887.0827,-1.1196841626030745,3.166105223772063,-4.5142427790929744,0.8591627259320261,63.20300000003772
311887.0837,-1.5002972369323566,2.8867541602143483,-5.082607857263016,0.7178729733571134,63.20400000002701
311887.0847,-1.927735163224093,2.458222811508981,-5.690304789819997,0.5595460396675414,63.2050000000163
311887.0857,-2.4037928924524836,1.8871378515361361,-6.3293222617215426,0.37752573518997784,63.20600000000559
311887.0867,-2.915282788842783,1.1990566435472987,-6.9787710805743775,0.17926537593599134,63.20699999999488
311887.0877,-3.4362659399236337,0.4356595697895381,-7.607032670345877,-0.01571077088073499,63.20799999998417
311887.0887,-3.931656541587379,-0.3496057304098769,-8.175103656062817,-0.17915443908557344,63.209000000031665
311887.0897,-4.361812730054189,-1.0969961357345497,-8.640793768764079,-0.27837666398922006,63.210000000020955
311887.0907,-4.6876312442931285,-1.7465249936997678,-8.963348728970745,-0.28100646706248417,63.211000000010245
311887.0917,-4.875615350262981,-2.2440068364847483,-9.108026965001574,-0.1597211284033685,63.211999999999534
311887.0927,-4.90239009658405,-2.546512833756473,-9.050163156604375,0.10354857264816357,63.212999999988824
311887.0937,-4.75819559111644,-2.626716507401795,-8.778302192278655,0.5143785577865951,63.21400000003632
311887.0947,-4.4489918890011335,-2.4757207070778278,-8.296079133405295,1.0639180212680655,63.21500000002561
311887.0957,-3.996948042899496,-2.104107154331985,-7.622645053945532,1.728470532371797,63.2160000000149
311887.0967,-3.4392491524834052,-1.541124180876314,-6.791582861538124,2.470644963116987,63.21700000000419
311887.0977,-2.825322970529218,-0.8321095073922808,-5.848407136523041,3.241973693825558,63.21799999999348
311887.0987,-2.212745285278499,-0.03441532456968774,-4.8468828288716574,3.9867482867463777,63.21899999998277
311887.0997,-1.662215425628273,0.7877540311861322,-3.8445154125391285,4.646700606052969,63.22000000003027
311887.1007,-1.232086876274348,1.5690797021086444,-2.8976481668815586,5.16607217528126,63.22100000001956
311887.1017,-0.9729839821681239,2.248878276556998,-2.056642404471491,5.496574712392404,63.22200000000885
311887.1027,-0.9230295830146005,2.7763059640085648,-1.3616096855678121,5.601754111461493,63.22299999999814
311887.1037,-1.1041507782919389,3.1145185685961443,-0.8391119604772584,5.460327655130231,63.22399999998743
311887.1047,-1.5198265551424381,3.2433973258076385,-0.5001513303887886,5.068164217928425,63.225000000034925
311887.1057,-2.1545018737529653,3.160596953727671,-0.33964493860669565,4.438709766704252,63.226000000024214
311887.1067,-2.974731642826259,2.880841743205793,-0.33743477500344116,3.6018124986370483,63.227000000013504
311887.1077,-3.931950626260254,2.433571293140317,-0.46073121760643376,2.601058491595024,63.228000000002794
311887.1087,-4.966608098590093,1.8592021221285062,-0.6677478080750873,1.4898743534778227,63.228999999992084
311887.1097,-6.013274405719295,1.204408522133435,-0.9121670079666023,0.32677370363756675,63.22999999998137
311887.1107,-7.006233373681227,0.5169220701607654,-1.1479941701420462,-0.8297924549074577,63.23100000002887
311887.1117,-7.885028854612973,-0.1596053321112121,-1.3343179104180352,-1.9264835121979054,63.23200000001816
311887.1127,-8.599440053761548,-0.7901396539807387,-1.4395034555452135,-2.919528383438316,63.23300000000745
311887.1137,-9.113417989800656,-1.3517326715730567,-1.44440070121005,-3.778168353141881,63.23399999999674
311887.1147,-9.407618808037741,-1.8355596409952648,-1.3442453662982585,-4.48675731153868,63.23499999998603
311887.1157,-9.480308512110916,-2.247314831166073,-1.1490604097254413,-5.045326592015911,63.23600000003353
311887.1167,-9.34657433490099,-2.6059230108770857,-0.8825132256582009,-5.468574201000955,63.23700000002282
311887.1177,-9.0359446137586,-2.940699804170081,-0.5793375238432301,-5.783394823904125,63.23800000001211
311887.1187,-8.588675250933967,-3.2872559599832223,-0.2815721541346931,-6.025212130305567,63.2390000000014
311887.1197,-8.051091224872264,-3.682573691814851,-0.03398829399948906,-6.233494227176291,63.23999999999069
311887.1207,-7.470463300952587,-4.159773820071175,0.12084045133435349,-6.446914772436267,63.241000000038184
311887.1217,-6.889944001785971,-4.7431311560679275,0.14733173229865554,-6.69865809533057,63.242000000027474
311887.1227,-6.344078667293825,-5.443878179423059,0.021068268337887892,-7.012352997312531,63.243000000016764
311887.1237,-5.8553478305638835,-6.257264911376276,-0.268074512594682,-7.399057909919202,63.244000000006054
311887.1247,-5.432091994756601,-7.161222754003829,-0.7141736484854231,-7.855615703366584,63.24499999999534
311887.1257,-5.068029562846843,-8.116823529162383,-1.29507085150703,-8.364559797851783,63.24599999998463
311887.1267,-4.743416986663563,-9.070547269890838,-1.9737936015240836,-8.895597664619398,63.24700000003213
311887.1277,-4.42773314804537,-9.958190938281792,-2.7014694768955922,-9.408538566722278,63.24800000002142
311887.1287,-4.083614120566677,-10.710083091465897,-3.421470826404679,-9.85738516166551,63.24900000001071
311887.1297,-3.6716352878855436,-11.257133225627314,-4.074404332327035,-10.195187950400397,63.25
311887.1307,-3.1554482323669872,-11.537152795265705,-4.603474241987088,-10.379179559378732,63.25099999998929
311887.1317,-2.506738909024629,-11.500847130564644,-4.959707593053929,-10.375670815489293,63.25200000003679
311887.1327,-1.7094856717286817,-11.116897815766139,-5.106538771656541,-10.164206299408376,63.25300000002608
311887.1337,-0.7630598049194133,-10.375632028150935,-5.02330855535735,-9.74054238441589,63.25400000001537
311887.1347,0.3161787088123526,-9.290901806366678,-4.707333978894381,-9.118119681044764,63.25500000000466
311887.1357,1.4949919775185527,-7.899960281586807,-4.174340253012521,-8.32784402664431,63.255999999993946
311887.1367,2.725116568181268,-6.261307910621542,-3.4572015944957704,-7.416152098962103,63.256999999983236
311887.1377,3.9467206667582393,-4.45067184626248,-2.603099172599926,-6.441503821821383,63.258000000030734
311887.1387,5.093169192483868,-2.55545746041094,-1.6693558432814275,-5.469597915097395,63.25900000002002
311887.1397,6.096667451595035,-0.6681557232569304,-0.7183342623675588,-4.567734242758847,63.26000000000931
311887.1407,6.89426189204726,1.1207103535712055,0.188124960572249,-3.7988345865320117,63.2609999999986
311887.1417,7.433634219880791,2.7294723201773885,0.9942039258079011,-3.2156734195295473,63.26199999998789
311887.1427,7.678136915641681,4.0914225391013765,1.6550312213716414,-2.855858072867127,63.26300000003539
311887.1437,7.610583157268531,5.159598985982024,2.140567962923292,-2.73803428334784,63.26400000002468
311887.1447,7.23541626157185,5.909830674923122,2.4380942130021235,-2.859684314061984,63.26500000001397
311887.1457,6.579032367146935,6.341787990214134,2.553067423012175,-3.196740856206044,63.26600000000326
311887.1467,5.688201015253555,6.477967869913402,2.5082797220709656,-3.7050743439406046,63.26699999999255
311887.1477,4.626705187452869,6.360735107723184,2.341402730398863,-4.323739818470682,63.26799999998184
311887.1487,3.4704882909071317,6.047719727606097,2.1011614969982153,-4.979708303215934,63.26900000002934
311887.1497,2.3017346648825936,5.606019435898497,1.8425084428205614,-5.593672039593639,63.27000000001863
311887.1507,1.20240913346801,5.105761493066706,1.6212614442010889,-6.086415656301137,63.271000000007916
311887.1517,0.24783054849610084,4.613630179386882,1.4887185486149375,-6.385195486191405,63.271999999997206
311887.1527,-0.4991504653348304,4.1869597771325315,1.486760776882634,-6.429571330645893,63.272999999986496
311887.1537,-0.9928576340376688,3.868929711002158,1.6439043264151632,-6.176188552704861,63.27400000003399
311887.1547,-1.2079731844563266,3.6852847360182515,1.9726692910402432,-5.60210809374728,63.27500000002328
311887.1557,-1.1409377461569834,3.6428502334210067,2.4685030406823465,-4.70641811170541,63.27600000001257
311887.1567,-0.8094708889267301,3.729935871622063,3.1103452756329313,-3.5100202651668844,63.27700000000186
311887.1577,-0.2502918277917181,3.9185374319820454,3.862763200248738,-2.053650908633137,63.27799999999115
311887.1587,0.4847147857438033,4.168074333316589,4.6794346306063375,-0.39435665346539084,63.27900000003865
311887.1597,1.3335027188362738,4.430255946224776,5.507628714202041,1.3992201927448926,63.28000000002794
311887.1607,2.2295503578679954,4.654566974328737,6.2932406150812294,3.252290605640429,63.28100000001723
311887.1617,3.107687731232653,4.793810643931085,6.985886895270007,5.089591386946364,63.28200000000652
311887.1627,3.909521223282214,4.809152759647173,7.54356700900461,6.840765024182827,63.28299999999581
311887.1637,4.587963511298761,4.674168925864875,7.936443201626955,8.444974829743915,63.2839999999851
311887.1647,5.110473750761079,4.377505093922971,8.149381348473815,9.854372122355906,63.285000000032596
311887.1657,5.460747371175926,3.923907021640242,8.183019836498216,11.036156266538853,63.286000000021886
311887.1667,5.638752488740833,3.333542533950208,8.05328011052742,11.973114963720304,63.287000000011176
311887.1677,5.659175152583092,2.6397147751331165,7.7893864974385805,12.662686455448009,63.288000000000466
311887.1687,5.548492035279463,1.8852275512970524,7.430609225154475,13.114731791896379,63.288999999989755
311887.1697,5.3410213521644,1.1177991809419623,7.022068820910922,13.348329490167691,63.29000000003725
311887.1707,5.074397844125253,0.3850155995255422,6.6100301775159025,13.38799456984456,63.29100000002654
311887.1717,4.784966450561013,-0.2706424886058733,6.237161798597113,13.25977048555443,63.29200000001583
311887.1727,4.503587358204825,-0.8161741143551463,5.938235612224797,12.987641663818627,63.29300000000512
311887.1737,4.252293048592536,-1.2313737688483022,5.736695498083732,12.590666788149196,63.29399999999441
311887.1747,4.042141398765446,-1.51073863696829,5.642433174709095,12.081143982266466,63.2949999999837
311887.1757,3.872477861894392,-1.6637640317631741,5.650987361390244,11.463998108224944,63.2960000000312
311887.1767,3.731667726362881,-1.713591060147127,5.744238437175109,10.737440217673187,63.29700000002049
311887.1777,3.5992019449922052,-1.6941419685112713,5.892520473008749,9.894804377676557,63.29800000000978
311887.1787,3.4489330700957623,-1.6460368292633571,6.057930435902176,8.92733268154738,63.29899999999907
311887.1797,3.253076360528846,-1.6117142355263527,6.198494624242314,7.827569212653452,63.29999999998836
311887.1807,2.9865274946098284,-1.63026534987477,6.2727668182470575,6.59294952878382,63.301000000035856
311887.1817,2.631011061648681,-1.7325260731120196,6.24438964365302,5.229141703837272,63.302000000025146
311887.1827,2.178586981000595,-1.9369524191559977,6.086154446631649,3.7527114929971344,63.303000000014435
311887.1837,1.6341040239025435,-2.246731046779348,5.783145124845818,2.1927463850211444,63.304000000003725
311887.1847,1.016294567126558,-2.648457293196782,5.334642828682195,0.5911751291595774,63.304999999993015
311887.1857,0.35734213960007205,-3.1125586278963016,4.7545921284887935,-0.9983493176074167,63.305999999982305
311887.1867,-0.29909050200676285,-3.595467372018272,4.070572847308209,-2.51298772249038,63.3070000000298
311887.1877,-0.9012257702161457,-4.043370015554848,3.321371028629814,-3.8845084084137342,63.30800000001909
311887.1887,-1.3936347837904637,-4.397199052187501,2.553382634621502,-5.044036323849914,63.30900000000838
311887.1897,-1.72238809014335,-4.598403078047219,1.8162006505011095,-5.927348463066668,63.30999999999767
311887.1907,-1.840402784901545,-4.5949451004071085,1.157818685763316,-6.480237182809654,63.31099999998696
311887.1917,-1.7124643635772878,-4.346946397321521,0.6199237232169271,-6.663439482460111,63.31200000003446
311887.1927,-1.3194221618888098,-3.8314174846732256,0.2337434207311297,-6.456655818688509,63.31300000002375
311887.1937,-0.661127528287846,-3.0455968385173535,0.016859994914519616,-5.861254574808764,63.31400000001304
311887.1947,0.2422026306874419,-2.0085446498121655,-0.02869155101905495,-4.901371303478752,63.31500000000233
311887.1957,1.3503684254756039,-0.7608010303822837,0.08315103288904033,-3.6232546904381286,63.31599999999162
311887.1967,2.60532300605743,0.6378998017836116,0.32357475836011274,-2.092870236986655,63.31699999998091
311887.1977,3.9349028168663716,2.1126833058121774,0.6514088602421739,-0.3919326548764062,63.318000000028405
311887.1987,5.257840174999481,3.579011231193699,1.0168191242725193,1.3873165420315405,63.319000000017695
311887.1997,6.489622358014963,4.949098687565211,1.3658198546340885,3.1481528997965635,63.320000000006985
311887.2007,7.548678468937998,6.1386972931896215,1.6451634702271711,4.795724160671633,63.320999999996275
311887.2017,8.36234167025779,7.073632290493349,1.807130365349226,6.243177281003317,63.321999999985565
311887.2027,8.872053446694572,7.695501872579874,1.8137515468027356,7.417039345760405,63.32300000003306
311887.2037,9.037346756964066,7.9660236290640425,1.64005280804629,8.261404542697539,63.32400000002235
311887.2047,8.838259682084718,7.869638776821879,1.2760063804228725,8.74059164795161,63.32500000001164
311887.2057,8.275979533351778,7.414147729133059,0.7270046082404209,8.840080208962966,63.32600000000093
311887.2067,7.371685101182536,6.629335015798471,0.01281758598813868,8.565695021505915,63.32699999999022
311887.2077,6.163725624668505,5.563729938280521,-0.8348516747516299,7.941172068826676,63.32800000003772
311887.2087,4.703432587117625,4.2798235715759745,-1.7759601395885412,7.004389057943001,63.32900000002701
311887.2097,3.049989276379333,2.8482060970943577,-2.7664952700788477,5.802665568447681,63.3300000000163
311887.2107,1.2648705997948424,1.3411872156615672,-3.7631731587421355,4.387619833009144,63.33100000000559
311887.2117,-0.5935967157826395,-0.17349291762589059,-4.727979259534833,2.810103353956956,63.33199999999488
311887.2127,-2.47501948911462,-1.6382684345934626,-5.632079990058782,1.1157176167820961,63.33299999998417
311887.2137,-4.340603369868139,-3.0101449816297223,-6.458694098323206,-0.6586492516578468,63.334000000031665
311887.2147,-6.165346635483323,-4.263486977963257,-7.204614965030552,-2.4869374308021843,63.335000000020955
311887.2157,-7.938560177711935,-5.390951616917211,-7.880209156649798,-4.354495198929799,63.336000000010245
311887.2167,-9.662680867716965,-6.402508526561196,-8.507869558186204,-6.257096906921058,63.336999999999534
311887.2177,-11.35051893450387,-7.32267161889307,-9.119058352350617,-8.198535247289827,63.337999999988824
311887.2187,-13.021240408683255,-8.186244521084488,-9.750220529123519,-10.187073338274246,63.33900000003632
311887.2197,-14.695517275728285,-9.03302616414749,-10.437968067609168,-12.231163361863207,63.34000000002561
311887.2207,-16.390367658662534,-9.90202452887155,-11.214016413112072,-14.334919398499983,63.3410000000149
311887.2217,-18.114247007799392,-10.82577436426264,-12.100389968750736,-16.493864441818896,63.34200000000419
311887.2227,-19.862934708553436,-11.825344229347976,-13.105398078793042,-18.6914518101086,63.34299999999348
311887.2237,-21.616689854264482,-12.906550435217312,-14.220818316576851,-20.896790827979405,63.34399999998277
311887.2247,-23.33903155341912,-14.05777690705316,-15.42061553514681,-23.063892217186236,63.34500000003027
311887.2257,-24.97734410612542,-15.249642106904076,-16.661383117650885,-25.132600947389662,63.34600000001956
311887.2267,-26.46533038233896,-16.436572252727142,-17.884530549909872,-27.031217517805107,63.34700000000885
311887.2277,-27.727154688977524,-17.56015179356914,-19.020074276371318,-28.680638898800083,63.34799999999814
311887.2287,-28.68294686426376,-18.553945763655747,-19.991732830350717,-29.999694200297206,63.34899999998743
311887.2297,-29.255198750266434,-19.349341426364795,-20.722897528324687,-30.91122290071562,63.350000000034925
311887.2307,-29.375486363893547,-19.881852924970303,-21.14295923985706,-31.348357825140216,63.351000000024214
311887.2317,-28.990905792503636,-20.09728267271884,-21.193428881056228,-31.260439727758033,63.352000000013504
311887.2327,-28.069622883117653,-19.95714193024247,-20.83329877141212,-30.618009229190363,63.353000000002794
311887.2337,-26.60500550689733,-19.442799723731998,-20.043153282223972,-29.41639368955016,63.353999999992084
311887.2347,-24.617926468072657,-18.55794760043038,-18.82764476460717,-27.677524954255123,63.35499999998137
311887.2357,-22.15698403100266,-17.32912631335717,-17.21609460341566,-25.449777866700018,63.35600000002887
311887.2367,-19.29657077842777,-15.804244059457853,-15.26114593209729,-22.80579459895812,63.35700000001816
311887.2377,-16.132912894473925,-14.049206610289366,-13.03556839380561,-19.8384397162324,63.35800000000745
311887.2387,-12.778383032333375,-12.142959110756257,-10.627479987968888,-16.65519847147175,63.35899999999674
311887.2397,-9.354543688926483,-10.171390114368347,-8.134391030800787,-13.371470278442677,63.35999999998603
311887.2407,-5.984490077738622,-8.220656000182373,-5.656577496872909,-10.10330747136059,63.36100000003353
311887.2417,-2.7851214599374563,-6.37053791742081,-3.290346051503447,-6.960197119074859,63.36200000002282
311887.2427,0.1400276657844408,-4.68843868850218,-1.1217560272945712,-4.03847645540213,63.36300000001211
311887.2437,2.7068201432383088,-3.224564241731992,0.7786854611676377,-1.4159113012582254,63.3640000000014
311887.2447,4.854943112882251,-2.008719357433296,2.3599350684353073,0.8521422735523296,63.36499999999069
311887.2457,6.550408434689931,-1.048992037068984,3.592644657717698,2.734719285840997,63.366000000038184
311887.2467,7.785981367148569,-0.33241980211313443,4.469583663293076,4.225266162329393,63.367000000027474
311887.2477,8.57957839275552,0.1724577129530575,5.004290359918486,5.339772850543799,63.368000000016764
311887.2487,8.970853955184602,0.5114340890301615,5.2281501168287035,6.113256621727664,63.369000000006054
311887.2497,9.016350742328047,0.7392845709183425,5.186236772638181,6.594979182657518,63.36999999999534
311887.2507,8.783704708901752,0.9137617261361675,4.932356392785884,6.8428819253411115,63.37099999998463
311887.2517,8.345463815001287,1.089528847095097,4.523791478629019,6.917779572541947,63.37200000003213
311887.2527,7.77309281334378,1.3126203989487404,4.016253201102861,6.877855532990325,63.37300000002142
311887.2537,7.1316950221858715,1.6159603101553905,3.459509295446837,6.773953472844641,63.37400000001071
311887.2547,6.475890855990512,2.0163590920616214,2.894070564625911,6.64606445917301,63.375
311887.2557,5.847161711572323,2.5132606029581672,2.3491985147335153,6.521277491649647,63.37599999998929
311887.2567,5.272810166659647,3.0893335878526567,1.8423529176193798,6.413306698578693,63.37700000003679
311887.2577,4.766519310790837,3.712819224650591,1.3800456685329656,6.323546425706325,63.37800000002608
311887.2587,4.330332208174797,4.34137185042917,0.9599215089738863,6.243451962347249,63.37900000001537
311887.2597,3.957732986577648,4.926982890175987,0.573761560200725,6.157913803574003,63.38000000000466
311887.2607,3.63740746928477,5.421472165180616,0.21101448971967432,6.049199745964008,63.380999999993946
311887.2617,3.35720352058592,5.781976551694609,-0.137588580408531,5.900990671411139,63.381999999983236
311887.2627,3.1078045916920316,5.975868645392331,-0.476780999299972,5.70203695093485,63.383000000030734
311887.2637,2.8856744036170072,5.984597319232911,-0.8042696942195178,5.449012399057153,63.38400000002002
311887.2647,2.6949212125352937,5.806051928653063,-1.1093194934938617,5.1482361480896675,63.38500000000931
311887.2657,2.5478569823267554,5.4552015116293715,-1.372605361760606,4.816059888623876,63.3859999999986
311887.2667,2.4641767202432754,4.9629348174458325,-1.5673842622643983,4.477865502273485,63.38699999998789
311887.2677,2.468840613745597,4.373209070848792,-1.6618912074131371,4.165771043159673,63.38800000003539
311887.2687,2.588890127744303,3.738786963960638,-1.6227258486390788,3.915285652688369,63.38900000002468
311887.2697,2.8495535008778297,3.115985410221554,-1.4188809351625298,3.7612717285007635,63.39000000001397
311887.2707,3.270083214227633,2.558961742020769,-1.0259840835346348,3.7336534455174295,63.39100000000326
311887.2717,3.8598088687485137,2.114113066794425,-0.43028798589897294,3.8533462050877003,63.39199999999255
311887.2727,4.614879065052396,1.8151573449244118,0.36804447698428333,4.12886798946027,63.39299999998184
311887.2737,5.516106037555067,1.6794010053167474,1.3527554672471491,4.55403208504024,63.39400000002934
311887.2747,6.528222731600828,1.7055837663901854,2.490703216717551,5.107017195791332,63.39500000001863
311887.2757,7.600723997035058,1.873537973938751,3.732632617001869,5.750975812143903,63.396000000007916
311887.2767,8.670305339971515,2.1457222856900495,5.015518449097291,6.4361882548300695,63.396999999997206
311887.2777,9.664750052886994,2.470505403741511,6.266339471959245,7.10361337282549,63.397999999986496
311887.2787,10.507964868299668,2.786902921734018,7.406997905080269,7.689543084069758,63.39900000003399
311887.2797,11.125740768588027,3.0303262204370074,8.35998063455983,8.130951242686969,63.40000000002328
311887.2807,11.451731810270632,3.138800903409736,9.054277598110827,8.371049489820694,63.40100000001257
311887.2817,11.433109468436625,3.0590634876536793,9.431037483159733,8.364531776130361,63.40200000000186
311887.2827,11.035366999890007,2.751953733669598,9.448454876629631,8.0820085073834,63.40299999999115
311887.2837,10.245816433173621,2.196585243688451,9.085445284723919,7.513199197429701,63.40400000003865
311887.2847,9.075433755282694,1.392892354149282,8.343769224314471,6.66856276902984,63.40500000002794
311887.2857,7.558854991702579,0.36230557622275034,7.248403948834649,5.579186719056101,63.40600000001723
311887.2867,5.75249310797309,-0.8535141964056892,5.846118206698091,4.294916632731289,63.40700000000652
311887.2877,3.730916942142239,-2.1957681567081533,4.202366741723992,2.8808705765913603,63.40799999999581
311887.2887,1.5817922310534382,-3.5931513945052007,2.3967716102445547,1.4126330271979877,63.4089999999851
311887.2897,-0.6001840681088766,-4.96759221718393,0.5175824671856083,-0.02945424054991243,63.410000000032596
311887.2907,-2.7198341415382696,-6.240564839195447,-1.3444040997437188,-1.3664032621856503,63.411000000021886
311887.2917,-4.68797054638518,-7.339390889584001,-3.10194356697915,-2.526555463942849,63.412000000011176
311887.2927,-6.427235638271597,-8.2029512892938,-4.676944839323272,-3.4508982692755157,63.413000000000466
311887.2937,-7.876819465915311,-8.786291737649154,-6.005112908117432,-4.09726246946211,63.413999999989755
311887.2947,-8.995674914780963,-9.063715976403131,-7.039269221730998,-4.443046192126839,63.41500000003725
311887.2957,-9.763992398591293,-9.030110056288263,-7.7511165474506765,-4.486250004887085,63.41600000002654
311887.2967,-10.182860982785394,-8.700413241914685,-8.131365467830607,-4.244765592478353,63.41700000001583
311887.2977,-10.27221255441255,-8.107329986550774,-8.188295292255894,-3.7540223403450175,63.41800000000512
311887.2987,-10.067304169121714,-7.297545093343443,-7.94496793036943,-3.0632465259142347,63.41899999999441
311887.2997,-9.614125803800436,-6.326844446713489,-7.435435090341893,-2.230712329668695,63.4199999999837
311887.3007,-8.964213849078803,-5.254643018177174,-6.700365395667054,-1.3184507738123432,63.4210000000312
311887.3017,-8.169396060203699,-4.138470785637614,-5.782560594586109,-0.38692392140011467,63.42200000002049
311887.3027,-7.276987300597239,-3.0289613109972553,-4.722825248303109,0.5098363635906799,63.42300000000978
311887.3037,-6.32589827411772,-1.9658279644982255,-3.5566031019082627,1.3281818736302216,63.42399999999907
311887.3047,-5.344017511713773,-0.9752054263771686,-2.3117013150359065,2.037548765057795,63.42499999998836
311887.3057,-4.347090470915775,-0.06859005973493504,-1.007300417377517,2.621691036548448,63.426000000035856
311887.3067,-3.3391623737861047,0.7565534687960841,0.345694130830003,3.0783819944095985,63.427000000025146
311887.3077,-2.3144889983372705,1.5146237005329168,1.7430491416190526,3.417672988154357,63.428000000014435
311887.3087,-1.2606681615840583,2.2284165587430045,3.184575765575076,3.658941954086595,63.429000000003725
311887.3097,-0.1626190877163231,2.9247592971383676,4.670814047423595,3.827082690852821,63.429999999993015
311887.3107,0.9930503406481821,3.6297331371995187,6.199443667137426,3.9482677573663905,63.430999999982305
311887.3117,2.2137886778131697,4.364015373956793,7.761867478287168,4.0457555071467945,63.4320000000298
311887.3127,3.4974478727001563,5.138859456903097,9.340400825256754,4.136201530236061,63.43300000001909
311887.3137,4.829661013998149,5.953166316253256,10.906440699461251,4.226877880817879,63.43400000000838
311887.3147,6.182575324677989,6.791988447883468,12.419890360908793,4.31410575912494,63.43499999999767
311887.3157,7.5151268913451865,7.626661078879115,13.829986844109005,4.383078665974572,63.43599999998696
311887.3167,8.774885825092648,8.416586754124868,15.07753352905999,4.4091064027129265,63.43700000003446
311887.3177,9.901338646270009,9.112527677054366,16.09839218147161,4.3601603873267685,63.43800000002375
311887.3187,10.830324812635123,9.661101335407505,16.827953364789252,4.200462675670607,63.43900000001304
311887.3197,11.499221470003684,10.010045337525943,17.20619456952208,3.8947487370388547,63.44000000000233
311887.3207,11.852387066309896,10.11373014000439,17.182862963878407,3.4127588203862835,63.44099999999162
311887.3217,11.846338941927481,9.938362483939786,16.722291905258288,2.733482373830757,63.44199999998091
311887.3227,11.454156186918368,9.466341843064637,15.807380459569636,1.8486977113967566,63.443000000028405
311887.3237,10.668665636327985,8.699305527501119,14.442331654361158,0.765413440046613,63.444000000017695
311887.3247,9.504079571415675,7.659518450309088,12.653851979639743,-0.49307709698653684,63.445000000006985
311887.3257,7.99589784588928,6.389419437612593,10.490651702023005,-1.8876821519011104,63.445999999996275
311887.3267,6.199050763844411,4.94931227076686,8.021239817556205,-3.365540574174522,63.446999999985565
311887.3277,4.184426135996564,3.4133692230532366,5.330164135985819,-4.86344155299289,63.44800000003306
311887.3287,2.0340781685453155,1.8642801153557758,2.5129909596957662,-6.3123427020373235,63.44900000002235
311887.3297,-0.16445796108663774,0.38701460134652677,-0.3295638440816702,-7.642581018288805,63.45000000001164
311887.3307,-2.3242362685228932,-0.9377438461243394,-3.097861289391235,-8.789296981680758,63.45100000000093
311887.3317,-4.3648085745939635,-2.039896055744418,-5.699398670075493,-9.697564235105109,63.45199999999022
311887.3327,-6.217441290526506,-2.8653804928362865,-8.054193038024852,-10.326738981971053,63.45300000003772
311887.3337,-7.8291774285120805,-3.3802796692444432,-10.099043366564542,-10.65361267956807,63.45400000002701
311887.3347,-9.165393064296401,-3.573200726241639,-11.790331260416886,-10.674062295004711,63.4550000000163
311887.3357,-10.210643621497143,-3.4557113039318583,-13.105157052818205,-10.403033737043277,63.45600000000559
311887.3367,-10.9677612219301,-3.0607932893823566,-14.04076369678472,-9.872852425524247,63.45699999999488
311887.3377,-11.45533374519043,-2.439462542480944,-14.612360062719548,-9.130014920194322,63.45799999998417
311887.3387,-11.703852573515457,-1.655874370389006,-14.84960278485278,-8.230761487025612,63.459000000031665
311887.3397,-11.750943918844587,-0.7813758061490691,-14.792117462168306,-7.23584712676929,63.460000000020955
311887.3407,-11.636185547590548,0.1119369850166528,-14.484524126077767,-6.2050063421553645,63.461000000010245
311887.3417,-11.39604804344592,0.9575539748555539,-13.97147039179377,-5.191637057818302,63.461999999999534
311887.3427,-11.059483740584442,1.700190752103692,-13.293165000714295,-4.238208545335893,63.462999999988824
311887.3437,-10.644618610900334,2.3002137184518756,-12.481845715900281,-3.372828804949385,63.46400000003632
311887.3447,-10.156889287339991,2.7364518968043017,-11.559514612824303,-2.607295246424903,63.46500000002561
311887.3457,-9.58882009791948,3.0071534607688473,-10.53714068901732,-1.9368094505224895,63.4660000000149
311887.3467,-8.921467901179534,3.129024873155653,-9.415377519266672,-1.3413761103005437,63.46700000000419
311887.3477,-8.127392054478236,3.1344754425823447,-8.18668739152754,-0.7887434996259991,63.46799999999348
311887.3487,-7.174849777154647,3.0673622758111647,-6.838618355419555,-0.23859374664652375,63.46899999998277
311887.3497,-6.032788977434808,2.977673394509401,-5.357861176290451,0.3524297827087079,63.47000000003027
311887.3507,-4.676123983196067,2.915686461294907,-3.734631085449664,1.02535188666008,63.47100000001956
311887.3517,-3.090743198721681,2.9261876039993386,-1.966882567138039,1.813679232663462,63.47200000000885
311887.3527,-1.277715260225238,3.0433248613337236,-0.0638778910790329,2.7389087382503723,63.47299999999814
311887.3537,0.7437697154461165,3.286604975502227,1.9513094552620411,3.8071748109358996,63.47399999998743
311887.3547,2.9350713076173736,3.658427234560934,4.040672693859952,5.0073708498813225,63.475000000034925
311887.3557,5.238579228494326,4.143395198689298,6.151712532032806,6.310939582604548,63.476000000024214
311887.3567,7.580028823077963,4.709471460747181,8.219468431228439,7.673367532054564,63.477000000013504
311887.3577,9.872502484821062,5.310859299447323,10.170010070997908,9.037256517888721,63.478000000002794
311887.3587,12.02180577801352,5.892325881376204,11.925112061410003,10.336695176145836,63.478999999992084
311887.3597,13.932773448625753,6.394541015912866,13.407713903816175,11.50253036599374,63.47999999998137
311887.3607,15.515968163449939,6.759906981882578,14.547683568596339,12.468053722722788,63.48100000002887
311887.3617,16.69419257851474,6.9383080779449156,15.287365052249632,13.174580464746205,63.48200000001816
311887.3627,17.40824721599638,6.8922176744832795,15.586401681951846,13.576409317198573,63.48300000000745
311887.3637,17.621431443993608,6.6006645484515545,15.42538676294611,13.644712702914745,63.48399999999674
311887.3647,17.32239636193705,6.061672687782834,14.807995748330914,13.370009128806752,63.48499999998603
311887.3657,16.52610590858705,5.292938372232982,13.761389670829177,12.763004846916582,63.48600000003353
311887.3667,15.272831944363297,4.330680387713195,12.334835169925858,11.853746201846857,63.48700000002282
311887.3677,13.62528430194633,3.2267767869406274,10.59664723225852,10.68918260743627,63.48800000001211
311887.3687,11.66414126701821,2.044467271585179,8.62971143487995,9.32938751211377,63.4890000000014
311887.3697,9.482384192562332,0.8530378718607157,6.525968757210393,7.84280685765589,63.48999999999069
311887.3707,7.178939124795341,-0.2779992188600325,4.380336023406607,6.300989782252011,63.491000000038184
311887.3717,4.852179420610645,-1.2846722816326466,2.2845804056997343,4.773296690351239,63.492000000027474
311887.3727,2.5938420403716993,-2.1137142040512806,0.3216631443478455,3.3220717510266127,63.493000000016764
311887.3737,0.48385725085059444,-2.7266382746515414,-1.4389835969582336,1.9987115865727128,63.494000000006054
311887.3747,-1.4135074189283672,-3.102350269784898,-2.9448767297321083,0.8409651855163796,63.49499999999534
311887.3757,-3.0519228722173875,-3.238068182470663,-4.162356301342402,-0.12832823407683208,63.49599999998463
311887.3767,-4.403584833417105,-3.1484893308343747,-5.076818852495446,-0.9010036706082362,63.49700000003213
311887.3777,-5.458166011957133,-2.8633179659631125,-5.691369730526407,-1.4819283328161432,63.49800000002142
311887.3787,-6.22034403888963,-2.4234277568351894,-6.02409992856494,-1.8861843783860783,63.49900000001071
311887.3797,-6.706246002870189,-1.876066783479035,-6.104316459541663,-2.13542266809538,63.5
311887.3807,-6.9392446852033,-1.269604834661716,-5.968144582454898,-2.253812648113042,63.50099999998929
311887.3817,-6.945590544124724,-0.6483648749738932,-5.653967136702255,-2.26404836767228,63.50200000003679
311887.3827,-6.750362893576851,-0.04806846329708233,-5.198166766124435,-2.1838582611963084,63.50300000002608
311887.3837,-6.374174246438898,0.5076400410643681,-4.631591448043326,-2.023408060422027,63.50400000001537
311887.3847,-5.830968950708086,1.009236959072357,-3.9770774870937298,-1.783888011099936,63.50500000000466
311887.3857,-5.127130793400365,1.4617235473028716,-3.2482459596795934,-1.457447385953593,63.505999999993946
311887.3867,-4.261967202506575,1.8833514947398615,-2.4496505425845103,-1.0284940387534907,63.506999999983236
311887.3877,-3.2294850345162933,2.3028016894234553,-1.5782106461177936,-0.47622907447084395,63.508000000030734
311887.3887,-2.0212301727080386,2.755107025711727,-0.6257282228043753,0.2218484768543554,63.50900000002002
311887.3897,-0.6298447185122974,3.2767401915185075,0.41782694677523263,1.0858411035932427,63.51000000000931
311887.3907,0.9470865870080154,3.9003760065470754,1.5606589952921255,2.129202193648126,63.5109999999986
311887.3917,2.70336658192347,4.649876076512014,2.8055493378982597,3.3548081017803346,63.51199999998789
311887.3927,4.62114740015219,5.536027321613382,4.146750327277673,4.7518047611369925,63.51300000003539
311887.3937,6.66891997031648,6.553496699393504,5.5677475319683065,6.293613664747933,63.51400000002468
311887.3947,8.800827156852357,7.679348749890178,7.040179366292765,7.937375119584562,63.51500000001397
311887.3957,10.957464034315208,8.873321598774137,8.52408291869112,9.624970085866954,63.51600000000326
311887.3967,13.068177604394695,10.07988541509214,9.969496727153322,11.285608865668332,63.51699999999255
311887.3977,15.054723344869497,11.231931766045518,11.319308841550997,12.839820305728214,63.51799999998184
311887.3987,16.835992853341928,12.255780025295536,12.513106172422873,14.204534185396541,63.51900000002934
311887.3997,18.33340997601342,13.077053932275055,13.491672279617578,15.29883599360218,63.52000000001863
311887.4007,19.47651414631679,13.626890738451081,14.201706534974809,16.049898680830857,63.521000000007916
311887.4017,20.208217451905025,13.847906196946196,14.600305724390156,16.39856780867386,63.521999999997206
311887.4027,20.489239914663564,13.699355048380458,14.658763166841457,16.30409794037142,63.522999999986496
311887.4037,20.301294386212223,13.160997311088803,14.365299288210263,15.747607450209538,63.52400000003399
311887.4047,19.648702263619093,12.235298976793079,13.726435779370874,14.73392984881263,63.52500000002328
311887.4057,18.558263569137186,10.947750345236278,12.766853516157731,13.29168183621657,63.52600000001257
311887.4067,17.077366177001853,9.345261316620006,11.527719810977446,11.471528152487686,63.52700000000186
311887.4077,15.270483506059662,7.492773469093429,10.063618978652595,9.34278568012075,63.52799999999115
311887.4087,13.21436178343559,5.468396168686532,8.438356911261401,6.988658659675016,63.52900000003865
311887.4097,10.992322111879968,3.3575120137469763,6.7200217091287895,4.5005190278358524,63.53000000002794
311887.4107,8.68818674434156,1.246392162589121,4.975757173590513,1.9717291078465895,63.53100000001723
311887.4117,6.380374725417974,-0.7840947492828447,3.266736452294222,-0.508459736625577,63.53200000000652
311887.4127,4.1366956365464285,-2.664109525858267,1.643805998065329,-2.860412715519191,63.53299999999581
311887.4137,2.010302906085184,-4.339302695614395,0.14420661078276395,-5.018564315481363,63.5339999999851
311887.4147,0.037156328147898626,-5.773722099182755,-1.2103253813773052,-6.934466059177485,63.535000000032596
311887.4157,-1.7648022250716038,-6.950934975810434,-2.41390781473253,-8.578214689583717,63.536000000021886
311887.4167,-3.3947213575356856,-7.87330682419996,-3.4752956718702728,-9.938202403820078,63.537000000011176
311887.4177,-4.866291614265646,-8.55955902580548,-4.415233687655832,-11.019290678672014,63.538000000000466
311887.4187,-6.203862954181461,-9.040893927915137,-5.262656206980055,-11.839657310089363,63.538999999989755
311887.4197,-7.437643769349602,-9.356113437010599,-6.050126598876221,-12.426688237232192,63.54000000003725
311887.4207,-8.598484826944842,-9.546251710476634,-6.808985151011049,-12.812369840170861,63.54100000002654
311887.4217,-9.712790083691896,-9.649285016583088,-7.564705170940877,-13.028675723507128,63.54200000001583
311887.4227,-10.79808175963495,-9.695468149195097,-8.332938709813744,-13.103431061867193,63.54300000000512
311887.4237,-11.859680667493196,-9.703778362590706,-9.116667410231598,-13.057078753449273,63.54399999999441
311887.4247,-12.888850950676446,-9.679831460280287,-9.90476664971568,-12.90067095761077,63.5449999999837
311887.4257,-13.862611918665905,-9.615481987753954,-10.672152680032763,-12.635277222136747,63.5460000000312
311887.4267,-14.745252823630357,-9.49014559704986,-11.381526222924219,-12.252849565888491,63.54700000002049
311887.4277,-15.491415464286801,-9.273703833144369,-11.986567146298805,-11.73843059716945,63.54800000000978
311887.4287,-16.05045114245813,-8.93068751084732,-12.43628890574418,-11.073448365215471,63.54899999999907
311887.4297,-16.371628257052404,-8.425300848607904,-12.680142698433254,-10.239725332705527,63.54999999998836
311887.4307,-16.409677515929676,-7.726758002857932,-12.673381455308546,-9.223750229699826,63.551000000035856
311887.4317,-16.130122232680776,-6.814365736528011,-12.382160870242812,-8.020728514006013,63.552000000025146
311887.4327,-15.513855473795758,-5.6818046169653815,-11.787872085825049,-6.637943154594513,63.553000000014435
311887.4337,-14.560492720332515,-4.340134756575643,-10.890267010037434,-5.0970210914953835,63.554000000003725
311887.4347,-13.290141873944044,-2.8191736437179666,-9.709046371870077,-3.434805935461967,63.554999999993015
311887.4357,-11.743381027020652,-1.1670512784735005,-8.283722231725244,-1.70267407366703,63.555999999982305
311887.4367,-9.979404129177606,0.5520737486924442,-6.671727280638717,0.035713961209659605,63.5570000000298
311887.4377,-8.07246914524375,2.2619718838342857,-4.944907566576414,1.7080773636741138,63.55800000001909
311887.4387,-6.106945659872972,3.879641432273695,-3.1846875687692697,3.2382995993807238,63.55900000000838
311887.4397,-4.171393442063826,5.321479940090928,-1.476322225379803,4.551920899851611,63.55999999999767
311887.4407,-2.3521972186340725,6.50976788945827,0.09726243581448793,5.581846577589629,63.56099999998696
311887.4417,-0.7273267405445306,7.378866550955043,1.4614983559790344,6.273746463531544,63.56200000003446
311887.4427,0.6392190950084676,7.880551578545877,2.5555432611338014,6.590638625884568,63.56300000002375
311887.4437,1.7017887982637872,7.987979675142735,3.336516891877555,6.516217504005196,63.56400000001304
311887.4447,2.435890790734055,7.697910282443061,3.782239912659887,6.056596590203805,63.56500000000233
311887.4457,2.8392040510849252,7.030965865749836,3.8922483931777276,5.240278508982001,63.56599999999162
311887.4467,2.930718200517803,6.029897455878531,3.687016147870922,4.116327240751543,63.56699999998091
311887.4477,2.748109297838143,4.756009040367066,3.205482158037628,2.7508828541960355,63.568000000028405
311887.4487,2.343621585194494,3.2840671239215578,2.5011350603343505,1.2223125593794595,63.569000000017695
311887.4497,1.7788626177203086,1.6961636111363385,1.6370365537759117,-0.38458159919303375,63.570000000006985
311887.4507,1.1190164741329978,0.07509738422123328,0.6802582739171972,-1.9847907387556107,63.570999999996275
311887.4517,0.42702783575506115,-1.502116854156611,-0.3037464602107285,-3.499215420820891,63.571999999985565
311887.4527,-0.24169580521004483,-2.970018908780015,-1.2563178266944588,-4.8601345885761456,63.57300000003306
311887.4537,-0.843574906461851,-4.279230779216317,-2.1298460556813157,-6.015553722971673,63.57400000002235
311887.4547,-1.3497579674545568,-5.399341440013565,-2.8907404957063445,-6.932065458268066,63.57500000001164
311887.4557,-1.7473889987900162,-6.31990800533565,-3.520873424267504,-7.595996825551827,63.57600000000093
311887.4567,-2.03916451367812,-7.049514683709861,-4.017413403151218,-8.012778943659123,63.57699999999022
311887.4577,-2.2412725423402846,-7.613017965382546,-4.391122053380298,-8.204641837858498,63.57800000003772
311887.4587,-2.379966064418227,-8.047280349805023,-4.66333816960792,-8.206893141337563,63.57900000002701
311887.4597,-2.4871570361669795,-8.395838816529151,-4.861999515609523,-8.063169791343084,63.5800000000163
311887.4607,-2.59551180617202,-8.703054299407416,-5.017143209328905,-7.820144045916857,63.58100000000559
311887.4617,-2.73357498286421,-9.008335043203779,-5.1563716346740165,-7.522210498423969,63.58199999999488
311887.4627,-2.921442318115638,-9.34101550404314,-5.300768013176984,-7.206675078236932,63.58299999998417
311887.4637,-3.167444670385658,-9.716404620873831,-5.461694635793902,-6.899911060948038,63.584000000031665
311887.4647,-3.466200482517626,-10.13339954939934,-5.638812538640021,-6.614846495986316,63.585000000020955
311887.4657,-3.798253856861955,-10.573904864662678,-5.819533572594531,-6.350012131567434,63.586000000010245
311887.4667,-4.131353146655493,-11.004118065783365,-5.979967121700833,-6.0902221605290325,63.586999999999534
311887.4677,-4.423257066889389,-11.377557442926841,-6.087268963544132,-5.80879726497843,63.587999999988824
311887.4687,-4.625798293230619,-11.639536002715584,-6.103154318072904,-5.47108640598265,63.58900000003632
311887.4697,-4.6898039398628075,-11.732641976443327,-5.988215459901475,-5.038915506290108,63.59000000002561
311887.4707,-4.570381175746113,-11.60268637815771,-5.706598491733299,-4.47550009108189,63.5910000000149
311887.4717,-4.232033677690202,-11.204530845297223,-5.230552577956401,-3.750313909436811,63.59200000000419
311887.4727,-3.653084983760249,-10.507219133041998,-4.544372320595555,-2.8434108632851944,63.59299999999348
311887.4737,-2.828947253223011,-9.497902094539008,-3.6473094261860575,-1.7487525849231873,63.59399999998277
311887.4747,-1.7738824795712058,-8.184162216414853,-2.555128013034934,-0.4761932124528798,63.59500000003027
311887.4757,-0.521047307877938,-6.594498391233114,-1.300109262924275,0.9480935397680001,63.59600000001956
311887.4767,0.8792217825094153,-4.776909455292229,0.07053724761655461,2.4828052547674706,63.59700000000885
311887.4777,2.362755262481242,-2.795698703863207,1.4977412046856908,4.074219378775506,63.59799999999814
311887.4787,3.8562421993376335,-0.7267931663317093,2.9148569872027155,5.660168754690217,63.59899999998743
311887.4797,5.282847359942865,1.3479858626106511,4.252783402043666,7.1749077812773985,63.600000000034925
311887.4807,6.568242235507268,3.3471645765253837,5.445448761621039,8.554404455261622,63.601000000024214
311887.4817,7.6464955904079766,5.195786705318902,6.4351521342379945,9.741551033036215,63.602000000013504
311887.4827,8.465279813019011,6.830937289033867,7.1772607647566815,10.69079352145324,63.603000000002794
311887.4837,8.989912575426226,8.206110902385817,7.643821440217124,11.371736833623254,63.603999999992084
311887.4847,9.205862950610001,9.29402965556143,7.825744418532877,11.771382527204498,63.60499999998137
311887.4857,9.119496502315592,10.087668808527312,7.733352672125345,11.89478959809727,63.60600000002887
311887.4867,8.757000777517845,10.599423167490455,7.3952435788824,11.764102569631927,63.60700000001816
311887.4877,8.161604829345892,10.858528291556272,6.855569796628922,11.416049877853538,63.60800000000745
311887.4887,7.389367130101856,10.907019143081312,6.169995360944202,10.898163646675503,63.60899999999674
311887.4897,6.503939910871637,10.794648647439198,5.400707551783676,10.26409482075958,63.60999999998603
311887.4907,5.570811683176694,10.57328605308535,4.610952729589799,9.568483270324458,63.61100000003353
311887.4917,4.651574497050806,10.291360585563874,3.859606714663166,8.861882610819473,63.61200000002282
311887.4927,3.798754211701725,9.988905386004069,3.196283379587199,8.186230323315643,63.61300000001211
311887.4937,3.0516817381219163,9.6936913702543,2.657429764430819,7.571296425400901,63.6140000000014
311887.4947,2.4337769738992945,9.41882709273813,2.26375775198824,7.0324442811263115,63.61499999999069
311887.4957,1.9514755699119677,9.162050333899147,2.019230867385674,6.569905158555923,63.616000000038184
311887.4967,1.5948657454181288,8.906764936570951,1.9116730130177007,6.1696170035133155,63.617000000027474
311887.4977,1.3399341418035888,8.624699498759748,1.9149087731077503,5.805522602622021,63.618000000016764
311887.4987,1.1521626826419904,8.279900424879855,1.9921976593906217,5.443078223325262,63.619000000006054
311887.4997,0.9910879462541918,7.833636787469749,2.1006016371456457,5.0436051536286275,63.61999999999534
311887.5007,0.8153433630607855,7.24970180889946,2.1958383678180295,4.569034975360535,63.62099999998463
311887.5017,0.5876614383133367,6.499554687122439,2.237130153826584,3.98656284704831,63.62200000003213
311887.5027,0.2793222356213149,5.566761011151049,2.1915645150151515,3.272735022511921,63.62300000002142
311887.5037,-0.12640553983913574,4.450258696640495,2.0375358513466533,2.4165559515558828,63.62400000001071
311887.5047,-0.6321794546895899,3.1660924283499687,1.7669332766247603,1.4213005896716446,63.625
311887.5057,-1.2260633570467911,1.747411558483999,1.3858678532348492,0.30484890519295127,63.62599999998929
311887.5067,-1.8826215651767586,0.24269927039554778,0.913880365728967,-0.9014911282559892,63.62700000003679
311887.5077,-2.565511698799936,-1.287622493090913,0.3817237862359744,-2.155553428512247,63.62800000002608
311887.5087,-3.2313077523463853,-2.7759047664916316,-0.17204240781068478,-3.4080177658532715,63.62900000001537
311887.5097,-3.834159080779764,-4.152859050213754,-0.7052899930074817,-4.606874850404849,63.63000000000466
311887.5107,-4.330804485863534,-5.3534892071667635,-1.1769526369153018,-5.7022029213727,63.630999999993946
311887.5117,-4.6854221617475895,-6.3227978716914786,-1.5515710026344438,-6.650774562579024,63.631999999983236
311887.5127,-4.873809743178399,-7.020714667858505,-1.8032824190359715,-7.42002898481998,63.633000000030734
311887.5137,-4.886452831926498,-7.425764863717892,-1.9188405415245349,-7.991008046073414,63.63400000002002
311887.5147,-4.730148894313974,-7.537115634546849,-1.8993470732393936,-8.359957558640701,63.63500000000931
311887.5157,-4.4279956839382475,-7.374791325169098,-1.7605060265776966,-8.538428701392213,63.6359999999986
311887.5167,-4.017715377552972,-6.978023954271496,-1.5313585173504556,-8.551864387043436,63.63699999998789
311887.5177,-3.5484514897320154,-6.401883647148057,-1.2516081712507645,-8.436807337578829,63.63800000003539
311887.5187,-3.076329028645256,-5.712498333167063,-0.9677889149744582,-8.23700531184766,63.63900000002468
311887.5197,-2.659194147804101,-4.98130687730509,-0.7286442728991623,-7.998800618616759,63.64000000001397
311887.5207,-2.3510352928345584,-4.278881732093054,-0.5801687254016721,-7.76626459838855,63.64100000000326
311887.5217,-2.1966249874859938,-3.6688972955372683,-0.560799143221462,-7.576565777869649,63.64199999999255
311887.5227,-2.2269061262402965,-3.202804599141269,-0.6972340195449371,-7.456039976857778,63.64299999998184
311887.5237,-2.455580221466229,-2.915703311007297,-1.0013010589090479,-7.417363627791082,63.64400000002934
311887.5247,-2.8772437524422187,-2.8237851694093785,-1.468195100791272,-7.45812439138072,63.64500000001863
311887.5257,-3.467273221971261,-2.923570300944834,-2.07627784888197,-7.560946221244132,63.646000000007916
311887.5267,-4.183493735386865,-3.1929843366173674,-2.7884810599025767,-7.695172705233431,63.646999999997206
311887.5277,-4.969495866751,-3.5941467503834765,-3.55520023409627,-7.819957806276923,63.647999999986496
311887.5287,-5.759307708687799,-4.077576708635516,-4.31842145207846,-7.888472249415833,63.64900000003399
311887.5297,-6.482998612446981,-4.587387920511477,-5.01670386527391,-7.852820671076954,63.65000000002328
311887.5307,-7.07270088007052,-5.066951628225466,-5.590556186816218,-7.669190523168896,63.65100000001257
311887.5317,-7.468494373117894,-5.464465930261236,-5.98770559311621,-7.30272610546425,63.65200000000186
311887.5327,-7.623610728434196,-5.737884014223965,-6.167765701706851,-6.731642970222994,63.65299999999115
311887.5337,-7.508477566778635,-5.858722098318699,-6.105866034533115,-5.950167465166568,63.65400000003865
311887.5347,-7.113232653927485,-5.814383170871553,-5.794903290216865,-4.969996849985928,63.65500000002794
311887.5357,-6.448482882275396,-5.6087835837869555,-5.246205410828067,-3.8201166774213196,63.65600000001723
311887.5367,-5.544249205471104,-5.261241292280392,-4.488550218204593,-2.5449703665010097,63.65700000000652
311887.5377,-4.447210221095082,-4.803760074369415,-3.5656367179963935,-1.201135772547712,63.65799999999581
311887.5387,-3.2165173794782773,-4.27700604464173,-2.532253878289314,0.14719050996117947,63.6589999999851
311887.5397,-1.918588317768718,-3.725405136404265,-1.4495145594180143,1.4334827007333848,63.660000000032596
311887.5407,-0.6213786984854591,-3.1918797861655777,-0.37960939269618116,2.594453045608974,63.661000000021886
311887.5417,0.6113218473269649,-2.712780820289126,0.6194216493686426,3.5753703932330665,63.662000000011176
311887.5427,1.7250317884788524,-2.3135525996124193,1.4984075980220062,4.334624628081721,63.663000000000466
311887.5437,2.678679663151815,-2.005597385171054,2.220815400134938,4.8471013653504835,63.663999999989755
311887.5447,3.447293718556722,-1.784685549474654,2.765225531929146,5.106043804675112,63.66500000003725
311887.5457,4.023048533713401,-1.6311032582934848,3.1262989664153413,5.123222977122713,63.66600000002654
311887.5467,4.414601234617308,-1.5115537375919754,3.3141690665899017,4.927399918312636,63.66700000001583
311887.5477,4.644818934278942,-1.38264946421486,3.3523466801652315,4.561227860924882,63.66800000000512
311887.5487,4.747157206315539,-1.1956682380928225,3.27437202294849,4.076893372187475,63.66899999999441
311887.5497,4.761081226889797,-0.9021124579398581,3.1195686134765657,3.5309177438497867,63.6699999999837
311887.5507,4.727013780798306,-0.45952146388697895,2.9283406487988635,2.9786218617809817,63.6710000000312
311887.5517,4.6813385630807165,0.16304928554928202,2.737497380180684,2.46879112333761,63.67200000002049
311887.5527,4.651978803750263,0.9804471512221571,2.57608217793369,2.0390583216187563,63.67300000000978
311887.5537,4.655011060836917,1.988227223342805,2.4621307193390685,1.7124534221003649,63.67399999999907
311887.5547,4.692668022089763,3.16120519801688,2.4006874151605424,1.4954563782389463,63.67499999998836
311887.5557,4.752942799829451,4.4539574216440405,2.3832812771380096,1.377743415547643,63.676000000035856
311887.5567,4.810844457460653,5.803283096120944,2.3889146029349813,1.333652643763347,63.677000000025146
311887.5577,4.831186449361574,7.132455703557604,2.386464760747984,1.32522738734314,63.678000000014435
311887.5587,4.772632904605829,8.356917197179136,2.3382561553386134,1.3065415203060469,63.679000000003725
311887.5597,4.592597757083619,9.390926254262878,2.204440334060501,1.2288853391916181,63.679999999993015
311887.5607,4.252501511600874,10.15457478255188,1.9477389504802785,1.0463053516489254,63.680999999982305
311887.5617,3.7228489337404667,10.580544485075874,1.5380652064632137,0.7209551027047904,63.6820000000298
311887.5627,2.98760237698763,10.619991936782586,0.9565483463501754,0.22773036139117694,63.68300000001909
311887.5637,2.047388836498879,10.247024943943718,0.19854194453825694,-0.44227089221711846,63.68400000000838
311887.5647,0.9211880711749929,9.461358020955256,-0.7247053787988844,-1.279811686412938,63.68499999999767
311887.5657,-0.35370630825242927,8.288898816689596,-1.7859081597173765,-2.2573052893147745,63.68599999998696
311887.5667,-1.7234950612825548,6.780204696692484,-2.9431731727469637,-3.3303684484551375,63.68700000003446
311887.5677,-3.1213221493273537,5.006941643866538,-4.142887274620497,-4.441008139643028,63.68800000002375
311887.5687,-4.472075977516502,3.0566578713294272,-5.3238082380893745,-5.522155401092017,63.68900000001304
311887.5697,-5.6981223387757645,1.0263349975472305,-6.421983680833522,-6.503131480831122,63.69000000000233
311887.5707,-6.725455719770711,-0.9847138297417023,-7.376040290929924,-7.315543058461444,63.69099999999162
311887.5717,-7.489711875921426,-2.881976739209746,-8.132347003840904,-7.899063127196345,63.69199999998091
311887.5727,-7.941493961956773,-4.5822904906467015,-8.649565385533153,-8.206565948993516,63.693000000028405
311887.5737,-8.05052610690753,-6.019249249156554,-8.90215729723473,-8.208146986365266,63.694000000017695
311887.5747,-7.8082561760296345,-7.147035918163264,-8.882518417073026,-7.8936656281241175,63.695000000006985
311887.5757,-7.228673120591936,-7.942391089776327,-8.601536761130527,-7.273589341814502,63.695999999996275
311887.5767,-6.347269882713087,-8.404613120478489,-8.087525247176488,-6.378078840108099,63.696999999985565
311887.5777,-5.218254306379576,-8.553668430341324,-7.383631971612685,-5.254419288787361,63.69800000003306
311887.5787,-3.9102713837623893,-8.42666589642345,-6.543976175916329,-3.963056497992581,63.69900000002235
311887.5797,-2.5010349905561164,-8.073096388217392,-5.628877846580505,-2.5726246169369174,63.70000000001164
311887.5807,-1.0713631676887734,-7.54934410935347,-4.699632907559415,-1.154440928520802,63.70100000000093
311887.5817,0.3008410475279449,-6.913030663455472,-3.8133259473675793,0.22301443306898333,63.70199999999022
311887.5827,1.5461255803574252,-6.217750956793338,-3.018164617023575,1.4991243691446139,63.70300000003772
311887.5837,2.6080602476171917,-5.508703034797932,-2.3497651667567183,2.6252145243568594,63.70400000002701
311887.5847,3.446462351063655,-4.819608011169259,-1.8287225719503728,3.567335997260966,63.7050000000163
311887.5857,4.039033544065638,-4.171172472895528,-1.4596708838332018,4.307534200992083,63.70600000000559
311887.5867,4.381323190768796,-3.571178902858035,-1.2318924739379669,4.8435405251987085,63.70699999999488
311887.5877,4.485097966634969,-3.0161167345387567,-1.1213832160157946,5.1869811761066025,63.70799999998417
311887.5887,4.3753516109792825,-2.494105139327496,-1.0941392761187836,5.360343862680219,63.709000000031665
311887.5897,4.086317348286635,-1.9887248217369886,-1.1103139227380927,5.3930633992131485,63.710000000020955
311887.5907,3.65693595779977,-1.4832833970610786,-1.1288110738256119,5.317169978248825,63.711000000010245
311887.5917,3.126276043141508,-0.964996612157946,-1.1118440804520646,5.162980787258167,63.711999999999534
311887.5927,2.529395688898193,-0.42857991569537035,-1.0289971133750013,4.955303324055517,63.712999999988824
311887.5937,1.8940774360958406,0.1211896384215596,-0.8603814182593849,4.71055864259666,63.71400000003632
311887.5947,1.2387673929000955,0.668269154050898,-0.5985740419554888,4.4351310252583485,63.71500000002561
311887.5957,0.5719147292432624,1.1856841554654443,-0.24915282321487853,4.125117566744138,63.7160000000149
311887.5967,-0.10724646413648782,1.637414820692824,0.17021413430927143,3.7675003262599867,63.71700000000419
311887.5977,-0.8065892128096129,1.981677130921609,0.632018043011835,3.3426103070223756,63.71799999999348
311887.5987,-1.5379219248680438,2.175285610220002,1.1022543165043408,2.8276120867246215,63.71899999998277
311887.5997,-2.3131341727649044,2.1786583838752485,1.5445063765412514,2.2006247254813784,63.72000000003027
311887.6007,-3.140120843301756,1.9609427833196087,1.9243352746541038,1.445020223065344,63.72100000001956
311887.6017,-4.0189773273026885,1.5047095259035037,2.2135089109422252,0.5534130597275417,63.72200000000885
311887.6027,-4.938938887597304,0.8096892907469305,2.3936185309691465,-0.4691236030629215,63.72299999999814
311887.6037,-5.876467986581579,-0.10489456476162118,2.458689834143031,-1.6030094453349175,63.72399999998743
311887.6047,-6.794780705631487,-1.199716611943069,2.416495645497737,-2.813559150508499,63.725000000034925
311887.6057,-7.644958364867325,-2.416621062815833,2.288406928810273,-4.051975961838097,63.726000000024214
311887.6067,-8.368627298310805,-3.681751334320448,2.107766174886179,-5.257918396839133,63.727000000013504
311887.6077,-8.902024641306905,-4.91033142281937,1.9169173370979307,-6.363461698527646,63.728000000002794
311887.6087,-9.18111748274134,-6.0127264430639515,1.763164614230325,-7.298130112818376,63.728999999992084
311887.6097,-9.14732208633357,-6.901275795215535,1.694044722541991,-7.994559863138773,63.72999999998137
311887.6107,-8.75329156478871,-7.497304735125654,1.7523725524436182,-8.394277570688146,63.73100000002887
311887.6117,-7.968212828791335,-7.73768774851918,1.9715505608533237,-8.453052736517279,63.73200000001816
311887.6127,-6.78208035782997,-7.580363884678087,2.3716145633033023,-8.14530892468405,63.73300000000745
311887.6137,-5.208493589762281,-7.008288202663516,2.956424128037217,-7.4671545577720115,63.73399999999674
311887.6147,-3.2856495780157915,-6.0314372807164265,3.712300506225947,-6.437713932331579,63.73499999998603
311887.6157,-1.0753615719126375,-4.686658030049124,4.608278964321808,-5.098591075039133,63.73600000003353
311887.6167,1.3398875503933911,-3.03534183463044,5.597988598814043,-3.5114690598875207,63.73700000002282
311887.6177,3.8616674226777232,-1.1591021450542807,6.623016100513106,-1.7540192194332382,63.73800000001211
311887.6187,6.3817425882804315,0.8461854842113898,7.617465741517244,0.08554813797976181,63.7390000000014
311887.6197,8.78914495931396,2.877473488947536,8.51331019287967,1.9148324670223884,63.73999999999069
311887.6207,10.977595222804194,4.832153205006814,9.246047230082807,3.6439467829892505,63.741000000038184
311887.6217,12.852654058356427,6.615531620850194,9.760143863660122,5.191997132397323,63.742000000027474
311887.6227,14.338002811757411,8.147533888505151,10.013765405218544,6.492777212382294,63.743000000016764
311887.6237,15.380327323195099,9.36806546343739,9.982351099884083,7.499188639890989,63.744000000006054
311887.6247,15.952401122733772,10.240593638563777,9.660704194038576,8.186013870219417,63.74499999999534
311887.6257,16.054123731429467,10.753673996102084,9.063402525697846,8.55081969258867,63.74599999998463
311887.6267,15.711451368922509,10.920337073225706,8.223492665158856,8.61294026257064,63.74700000003213
311887.6277,14.97334391195834,10.775446240313398,7.189591204013255,8.410663546894193,63.74800000002142
311887.6287,13.907025982206852,10.371320860413887,6.02166553649791,7.996907306640533,63.74900000001071
311887.6297,12.592005322504548,9.772071985786166,4.785889086046547,7.433805045931102,63.75
311887.6307,11.113394708911837,9.047206876939455,3.5490506261039165,6.786716151591618,63.75099999998929
311887.6317,9.55513518696777,8.265113566492516,2.3730360351600424,6.118219120616647,63.75200000003679
311887.6327,7.993714024972543,7.487032877984615,1.309889888407014,5.482638436828421,63.75300000002608
311887.6337,6.492911419021458,6.762063791887123,0.3979049179426676,4.921595536038833,63.75400000001537
311887.6347,5.100001878739003,6.123635435339151,-0.34091453771854585,4.4609685717900565,63.75500000000466
311887.6357,3.843690196337404,5.5877267543118885,-0.9018034178436932,4.109504886321732,63.755999999993946
311887.6367,2.733892322018036,5.152938341153986,-1.2965433152361412,3.8591680354444624,63.756999999983236
311887.6377,1.763294833573607,4.802337401333253,-1.5512267392754664,3.687133695659493,63.758000000030734
311887.6387,0.9104600165396793,4.506824427982394,-1.7027259336451965,3.5591919945721737,63.75900000002002
311887.6397,0.14410275304796286,4.2296255431215055,-1.794235970752766,3.434182788134554,63.76000000000931
311887.6407,-0.5719363195192911,3.931411518357102,-1.8703469372341412,3.268997581623051,63.7609999999986
311887.6417,-1.273550273859348,3.5754928519463545,-1.9721400553697095,3.023635766759414,63.76199999998789
311887.6427,-1.9915873501059729,3.1325444685057384,-2.1327938806978226,2.66580760869075,63.76300000003539
311887.6437,-2.747912074121593,2.5843725932458677,-2.3741303779636245,2.174630957072877,63.76400000002468
311887.6447,-3.5526856395091686,1.9263436935723393,-2.7044324627949434,1.5430671045624584,63.76500000001397
311887.6457,-4.403111025032635,1.168239887789416,-3.1177343453264634,0.7788734398830758,63.76600000000326
311887.6467,-5.283731880933943,0.3334720833075219,-3.5946366780300556,-0.0959968395744271,63.76699999999255
311887.6477,-6.168211312951144,-0.5432456246557461,-4.104544888150385,-1.0474599763537025,63.76799999998184
311887.6487,-7.022363673656464,-1.4194964893848268,-4.609086350634193,-2.0325967721922957,63.76900000002934
311887.6497,-7.808084584888898,-2.2496406237335886,-5.066344317268881,-3.0038205311976007,63.77000000001863
311887.6507,-8.487734305217945,-2.9896867323829515,-5.435465369315987,-3.913475951486051,63.771000000007916
311887.6517,-9.028486020928517,-3.602028936201197,-5.681160592983915,-4.718387607787282,63.771999999997206
311887.6527,-9.406157776704767,-4.059535574933669,-5.777632274782499,-5.383886199082886,63.772999999986496
311887.6537,-9.608103584340288,-4.348543785154323,-5.7115165054868,-5.886898049462771,63.77400000003399
311887.6547,-9.634839795441145,-4.4704266510129775,-5.483531852486727,-6.217782458803333,63.77500000002328
311887.6557,-9.50021677687442,-4.441547386512074,-5.1086553232433465,-6.380732269251689,63.77600000001257
311887.6567,-9.230099642690755,-4.291582421397624,-4.614796207615612,-6.392702186187009,63.77700000000186
311887.6577,-8.85967967203475,-4.060365528858337,-4.040091237349908,-6.280981913008839,63.77799999999115
311887.6587,-8.429684073014048,-3.7935610450366686,-3.4290856488157924,-6.0796716745837855,63.77900000003865
311887.6597,-7.98187111611401,-3.5375999843886605,-2.8281801125483956,-5.825432087374723,63.78000000002794
311887.6607,-7.55427818949169,-3.3343956214586914,-2.2808015368296073,-5.55295708198146,63.78100000001723
311887.6617,-7.176723712656965,-3.216386307494632,-1.822788542748532,-5.290649951343313,63.78200000000652
311887.6627,-6.867046457121614,-3.20242944190609,-1.4784664543131456,-5.056965360056784,63.78299999999581
311887.6637,-6.628499080633177,-3.294993602255901,-1.257823242047095,-4.857815915843146,63.7839999999851
311887.6647,-6.448602917680496,-3.4789731032418967,-1.155092967257661,-4.685336953906396,63.785000000032596
311887.6657,-6.299628915848804,-3.7222925280137527,-1.148916967973402,-4.518167850881975,63.786000000021886
311887.6667,-6.1407089635155465,-3.978293300389094,-1.20409851584364,-4.323255832947277,63.787000000011176
311887.6677,-5.92141852590563,-4.189717327823358,-1.2748090269421564,-4.059033956605599,63.788000000000466
311887.6687,-5.586521661236321,-4.293941585096814,-1.3089585971639857,-3.679684039765668,63.788999999989755
311887.6697,-5.081448067245399,-4.228988220358725,-1.2533250116340984,-3.1400818517508218,63.79000000003725
311887.6707,-4.357991050508502,-3.939750317282526,-1.0589552823642103,-2.4009472240640832,63.79100000002654
311887.6717,-3.3796835389892843,-3.3838424990595053,-0.6863203398701089,-1.4336935270486524,63.79200000001583
311887.6727,-2.126330038372095,-2.5365115907070597,-0.10972036882864296,-0.22449223889984632,63.79300000000512
311887.6737,-0.5972441972411603,-1.3941234945678762,0.6794958369911024,1.2228626745179092,63.79399999999441
311887.6747,1.187142182818457,0.024129170045265696,1.6712252964021979,2.885595631281591,63.7949999999837
311887.6757,3.1854832507095443,1.6764903882046192,2.8366053781297507,4.722259732020034,63.7960000000312
311887.6767,5.337552156073932,3.5008833526852583,4.1297342746775705,6.674722722604135,63.79700000002049
311887.6777,7.567947303688179,5.418955236205979,5.490979155788149,8.671675214003999,63.79800000000978
311887.6787,9.791158279026641,7.341577488483611,6.851582028293123,10.633361979863398,63.79899999999907
311887.6797,11.917549275375519,9.175317843018103,8.139148749680201,12.477119529456154,63.79999999998836
311887.6807,13.859730953037609,10.829308768089176,9.283521370103374,14.123225251557548,63.801000000035856
311887.6817,15.538755046281274,12.221900307590168,10.222496370834733,15.500532959531744,63.802000000025146
311887.6827,16.889583360951175,13.286506760407352,10.906865143289892,16.551389728039222,63.803000000014435
311887.6837,17.865352465838214,13.976134392102438,11.304316914940772,17.235397638511504,63.804000000003725
311887.6847,18.440070642624658,14.266203819632084,11.401852090981636,17.53169480566548,63.804999999993015
311887.6857,18.609533320192323,14.155443561000366,11.206495178008133,17.439572062984798,63.805999999982305
311887.6867,18.390412700774387,13.664814644133735,10.744257374445771,16.977401074569062,63.8070000000298
311887.6877,17.81765006323438,12.834612268516514,10.057463940554548,16.180010817240774,63.80800000001909
311887.6887,16.940438456215063,11.720061204954874,9.200714623664364,15.094796546568308,63.80900000000838
311887.6897,15.817213660263533,10.385860325453553,8.2358719390326,13.776964089102542,63.80999999999767
311887.6907,14.51015975516989,8.900224951537052,7.226559864511815,12.284390941103489,63.81099999998696
311887.6917,13.079773836635141,7.329014639487273,6.232696190292527,10.672616490471581,63.81200000003446
311887.6927,11.580018794485904,5.730514975627888,5.305571684714347,8.990453708959533,63.81300000002375
311887.6937,10.054525306531431,4.151367024402668,4.483929666959986,7.276645893160868,63.81400000001304
311887.6947,8.534191168505854,2.6240148410170243,3.791396609472248,5.557881296223664,63.81500000000233
311887.6957,7.0363790870989105,1.1658822630255563,3.235478324574579,3.8483367791560386,63.81599999999162
311887.6967,5.5657477790530745,-0.21968909494056693,2.80818060221443,2.1507629981852054,63.81699999998091
311887.6977,4.1165822247160735,-1.5408902477466002,2.488153195240255,0.4589639144910222,63.818000000028405
311887.6987,2.676334077263224,-2.813598939404518,2.2441074808737507,-1.2386215025905165,63.819000000017695
311887.6997,1.2299580015516836,-4.0566860494138055,2.0391354616716977,-2.954643097525093,63.820000000006985
311887.7007,-0.23545333452557762,-5.287010539265966,1.8354729040478905,-4.698351208348333,63.820999999996275
311887.7017,-1.7262653756130748,-6.514672264559645,1.5992104852091469,-6.471404546698428,63.821999999985565
311887.7027,-3.238637185411011,-7.739067109233125,1.3044674207484819,-8.264457188135657,63.82300000003306
311887.7037,-4.756031158658467,-8.946208381642423,0.9366008785490869,-10.054932959350586,63.82400000002235
311887.7047,-6.248213427010529,-10.1076500940727,0.49412550682501005,-11.806278832421912,63.82500000001164
311887.7057,-7.671909885766562,-11.181184248024953,-0.010849568202906583,-13.468841545751063,63.82600000000093
311887.7067,-8.973112941363636,-12.113301728076792,-0.5537071969403577,-14.98234800359583,63.82699999999022
311887.7077,-10.090862836042849,-12.843222982325297,-1.0998177374438771,-16.27980618356164,63.82800000003772
311887.7087,-10.962171815212638,-13.308138623141538,-1.6081858484481444,-17.29249552797922,63.82900000002701
311887.7097,-11.527635067795535,-13.449168069611513,-2.0358733788485748,-17.955598837526185,63.8300000000163
311887.7107,-11.737191880803625,-13.217459741179804,-2.3427435452349576,-18.2139532968124,63.83100000000559
311887.7117,-11.555472130801137,-12.579827857306698,-2.496037527641641,-18.027374091676467,63.83199999999488
311887.7127,-10.966190307964455,-11.523351866976645,-2.4743094887146695,-17.37503288616944,63.83299999998417
311887.7137,-9.97512951512237,-10.058452361115966,-2.270308345283652,-16.258452795539508,63.834000000031665
311887.7147,-8.611383846200178,-8.220093849183227,-1.8924982152456449,-14.702804045594737,63.835000000020955
311887.7157,-6.9266872432588364,-6.066937032648211,-1.3650440698797368,-12.756338627123027,63.836000000010245
311887.7167,-4.992835015231279,-3.6784546504648303,-0.7262414201004771,-10.487973195864852,63.836999999999534
311887.7177,-2.8973834673276273,-1.1502171262402203,-0.02552378101301753,-7.9832008097629785,63.837999999988824
311887.7187,-0.7379761512384874,1.412271506752507,0.6806761472805973,-5.338667330987173,63.83900000003632
311887.7197,1.384223758639451,3.900667528073755,1.3338202672869244,-2.6558724764600488,63.84000000002561
311887.7207,3.371429307753861,6.211200474103486,1.878445422043961,-0.03453659577006784,63.8410000000149
311887.7217,5.135855304315826,8.25176069781186,2.2671307291325586,2.4337955311708144,63.84200000000419
311887.7227,6.605498742768767,9.948044304785373,2.4647703519103885,4.671366151851406,63.84299999999348
311887.7237,7.728577334913197,11.248223630382132,2.4517355986300604,6.618558577025703,63.84399999998277
311887.7247,8.476254285601941,12.12574692159078,2.2256167863214866,8.236640373518991,63.84500000003027
311887.7257,8.843437197592548,12.580043496922633,1.8013725352503371,9.508694227766092,63.84600000001956
311887.7267,8.847618186297831,12.635103824633955,1.2098686247608745,10.43870494681624,63.84700000000885
311887.7277,8.52590367776534,12.336099173661374,0.4949450859214891,11.04894267017982,63.84799999999814
311887.7287,7.930548518005355,11.744384087089308,-0.2907065445354139,11.375939149218004,63.84899999998743
311887.7297,7.123444017098882,10.93136989343586,-1.0904580127310988,11.465480918843365,63.850000000034925
311887.7307,6.170100522060603,9.971855092872271,-1.8489762922594974,11.367128282243257,63.851000000024214
311887.7317,5.133703492342901,8.937439634866953,-2.5172670967108473,11.128804293216328,63.852000000013504
311887.7327,4.069804396961897,7.890631221578346,-3.057043120156032,10.791980251070624,63.853000000002794
311887.7337,3.0221360627804983,6.880175019023921,-3.4439965795063268,10.387915665061104,63.853999999992084
311887.7347,2.0199236175984763,5.938011304574903,-3.669663254036814,9.935298178512808,63.85499999998137
311887.7357,1.076908650629348,5.078101199240338,-3.741703544019719,9.439483789310804,63.85600000002887
311887.7367,0.19213078874438866,4.2971748723501975,-3.682581580583967,8.893374225449037,63.85700000001816
311887.7377,-0.6476654152425282,3.577267605557357,-3.5267808913124115,8.27980262719073,63.85800000000745
311887.7387,-1.4642923069199063,2.889735233705647,-3.316839127108823,7.575147006502309,63.85899999999674
311887.7397,-2.283475418704513,2.2002985608562042,-3.0986007493327232,6.753768128781231,63.85999999998603
311887.7407,-3.129818676853128,1.4745700193291376,-2.916163908366271,5.7927864493931285,63.86100000003353
311887.7417,-4.021930060187903,0.683474241168815,-2.807028369030228,4.676679463116796,63.86200000002282
311887.7427,-4.968241158443096,-0.19200888336291191,-2.797932168907111,3.4011994148192044,63.86300000001211
311887.7437,-5.963982689730959,-1.1572766288005036,-2.901797516265101,1.9761798079873036,63.8640000000014
311887.7447,-6.989660418526069,-2.2020867695950126,-3.1160977300320405,0.4269106783830905,63.86499999999069
311887.7457,-8.011223660068948,-3.300307886914269,-3.4228173539305087,-1.2060938905950047,63.866000000038184
311887.7467,-8.981946642877638,-4.411472323624253,-3.790020546347805,-2.8689512273206583,63.867000000027474
311887.7477,-9.8458683333918,-5.483983913330214,-4.174883785032742,-4.497740524567397,63.868000000016764
311887.7487,-10.542476092411935,-6.459664015218743,-4.527903388470165,-6.023011290085703,63.869000000006054
311887.7497,-11.01218852928672,-7.27918238350561,-4.797870613483069,-7.375052645245322,63.86999999999534
311887.7507,-11.20210601923876,-7.887827511478575,-4.9371287315701,-8.48942687054333,63.87099999998463
311887.7517,-11.071462247071617,-8.241033407332534,-4.9065952932892065,-9.312239709799849,63.87200000003213
311887.7527,-10.59623050563367,-8.30910005461128,-4.680051964272214,-9.804640735675022,63.87300000002142
311887.7537,-9.772412587732191,-8.080621165183194,-4.2472721665894735,-9.946117610367093,63.87400000001071
311887.7547,-8.617659008031652,-7.564257818490639,-3.615666852240845,-9.736261545494324,63.875
311887.7557,-7.171025444984147,-6.788657976748744,-2.810270511164763,-9.194826667255102,63.87599999998929
311887.7567,-5.490846701340262,-5.800503846240612,-1.872049302137752,-8.360069182116728,63.87700000003679
311887.7577,-3.6508891204861476,-4.660853731267988,-0.8546755274908318,-7.285517305892466,63.87800000002608
311887.7587,-1.7351078621733667,-3.44011419686266,0.17993820570397978,-6.035473741511573,63.87900000001537
311887.7597,0.1685293556667787,-2.212115287954539,1.1669304044554716,-4.679674303048059,63.88000000000466
311887.7607,1.974598712670076,-1.047852635326861,2.0441111626145396,-3.287607124688097,63.880999999993946
311887.7617,3.6065643820738007,-0.00949636961942382,2.757381021000637,-1.9230287821497853,63.881999999983236
311887.7627,5.002334965814739,0.8547558970366876,3.2654345067599184,-0.6391933793111269,63.883000000030734
311887.7637,6.118529201357206,1.5144841688705297,3.5433011949217046,0.5247599017682134,63.88400000002002
311887.7647,6.933068251184409,1.9591399476011027,3.584386954989946,1.5459293179109022,63.88500000000931
311887.7657,7.4458688961428905,2.198224857951168,3.400820598391464,2.418098110871836,63.8859999999986
311887.7667,7.677590519786674,2.2595358476440652,3.0220726995126923,3.150486617920182,63.88699999998789
311887.7677,7.666571718183906,2.1856471210486137,2.4919783331646963,3.7649551402931687,63.88800000003539
311887.7687,7.46426209852316,2.0289713239195066,1.864447918192574,4.29195621952521,63.88900000002468
311887.7697,7.129595029452651,1.8458819869623568,1.198275549651503,4.7656583092231894,63.89000000001397
311887.7707,6.722844341777933,1.690472157043927,0.5515400493888386,5.218744959223258,63.89100000000326
311887.7717,6.299552995540843,1.6085613387422755,-0.023867807586412746,5.677426474632254,63.89199999999255
311887.7727,5.905110347719356,1.6325406197111991,-0.48707148012878587,6.157181303234601,63.89299999998184
311887.7737,5.570488162362334,1.777566250219806,-0.811930852656053,6.659673995533192,63.89400000002934
311887.7747,5.30953052093084,2.039482676855482,-0.9893098221456401,7.171182270250998,63.89500000001863
311887.7757,5.118040605609731,2.394689620437099,-1.0276788748639267,7.662718580500599,63.896000000007916
311887.7767,4.974732791522654,2.8019803779613306,-0.9520022461815109,8.091865882491485,63.896999999997206
311887.7777,4.843938545274475,3.206188287982962,-0.8010235555772299,8.406179129204968,63.897999999986496
311887.7787,4.679786679832205,3.543303652730881,-0.6232165393132201,8.54784964511207,63.89900000003399
311887.7797,4.431438698658677,3.7465812400157965,-0.47179397084432734,8.45920392399539,63.90000000002328
311887.7807,4.048861593548934,3.7530624897711062,-0.39925597163194126,8.088523656459152,63.90100000001257
311887.7817,3.4885727534276736,3.5098959078882,-0.45200035266087046,7.395638075846985,63.90200000000186
311887.7827,2.7187988257240265,2.97985763350693,-0.6655086384929632,6.356756382749923,63.90299999999115
311887.7837,1.7235513119055108,2.1455498579126746,-1.0605631749595585,4.968075362458793,63.90400000003865
311887.7847,0.5052300167408251,1.0118801597015867,-1.6408491501835325,3.2478087486147427,63.90500000002794
311887.7857,-0.9144897162619436,-0.3934123787544558,-2.3921605808911033,1.2364295848362215,63.90600000001723
