TimeStamp,ECR,FCR,ECU,FCU,time_index
311869.8797,6.569140340743951,-9.682584028977121,-7.94084629069244,-1.5993724757273355,46.0
311869.8807,6.334109262028531,-7.690806648335,-6.002867134905292,-0.5329418090339095,46.00099999998929
311869.8817,5.902562785392875,-5.458999469231325,-3.9429387877719555,0.5036679836489347,46.00200000003679
311869.8827,5.151470533949725,-3.126989526647614,-1.911363174703931,1.4118337497933402,46.00300000002608
311869.8837,3.952530147962608,-0.846509624257809,-0.06686218927747936,2.0940139098977997,46.00400000001537
311869.8847,2.180542729667842,1.2273061615587797,1.4321315247037878,2.4596739788476865,46.00500000000466
311869.8857,-0.2775672964604353,2.9449960746063617,2.4366737871540707,2.4312523966000614,46.005999999993946
311869.8867,-3.5137132456004654,4.171758956742265,2.8163899027686323,1.9497016250755048,46.006999999983236
311869.8877,-7.590231897160775,4.795705794224717,2.4678266312238986,0.9791570339782057,46.008000000030734
311869.8887,-12.532705396278402,4.73478178448591,1.3215098506701224,-0.48965502632060026,46.00900000002002
311869.8897,-18.3245514060642,3.9418745554812435,-0.6527678002719934,-2.4375638353692515,46.01000000000931
311869.8907,-24.903794295005884,2.4077717227068365,-3.442779705163346,-4.81682784601553,46.0109999999986
311869.8917,-32.16228153201239,0.1618036568684977,-6.993018969441985,-7.55277044992715,46.01199999998789
311869.8927,-39.94744416412398,-2.7298109685702023,-11.206212087473268,-10.547073908116435,46.01300000003539
311869.8937,-48.06653181346185,-6.16772519440804,-15.947072351048595,-13.68249869417511,46.01400000002468
311869.8947,-56.293094267312064,-10.024986711568083,-21.048028690188655,-16.828689267170212,46.01500000001397
311869.8957,-64.37534518795759,-14.153866042574641,-26.31654790234063,-19.84865294380454,46.01600000000326
311869.8967,-72.04593804261903,-18.393462274701168,-31.543585140672327,-22.605462193112725,46.01699999999255
311869.8977,-79.03261623981861,-22.577538060380665,-36.51265387522191,-24.968734595129916,46.01799999998184
311869.8987,-85.06917138141593,-26.542063925903783,-41.009003279020455,-26.820487151911102,46.01900000002934
311869.8997,-89.90615474912333,-30.132023907247614,-44.82842538337631,-28.060037149630947,46.02000000001863
311869.9007,-93.32083372669463,-33.20714081447643,-47.78528041172025,-28.607721794254857,46.021000000007916
311869.9017,-95.12596031382311,-35.64630764387294,-49.71941798684213,-28.407322686968232,46.021999999997206
311869.9027,-95.17701489231918,-37.35064775772551,-50.50177445310837,-27.42719716150829,46.022999999986496
311869.9037,-93.37769567708132,-38.24525617346152,-50.03853195276,-25.660225046648936,46.02400000003399
311869.9047,-89.68353345646939,-38.27978462621919,-48.27382331269779,-23.122766334884297,46.02500000002328
311869.9057,-84.10361365763981,-37.428113499247935,-45.191049895242415,-19.852884616274054,46.02600000001257
311869.9067,-76.70047623714382,-35.68739728852877,-40.812941211428836,-15.908118074214372,46.02700000000186
311869.9077,-67.5883331190128,-33.07677416755891,-35.20052184073034,-11.363072875137599,46.02799999999115
311869.9087,-56.929789906510344,-29.635995988862078,-28.451162495028598,-6.3070749868830465,46.02900000003865
311869.9097,-44.93128286816858,-25.424168380722776,-20.69588019728417,-0.842051204375909,46.03000000002794
311869.9107,-31.837445658526306,-20.518700669159397,-12.096022340113972,4.919273404101381,46.03100000001723
311869.9117,-17.924606976205443,-15.014463934544247,-2.8394276628281547,10.854866150031219,46.03200000000652
311869.9127,-3.493596211366652,-9.02305570408536,6.863887990857818,16.83465874849719,46.03299999999581
311869.9137,11.137994010313026,-2.6719846710307116,16.786513457635607,22.721768704075977,46.0339999999851
311869.9147,25.64396446478996,3.8964699106881873,26.688911256523372,28.37388893527012,46.035000000032596
311869.9157,39.697976553874554,10.526992921333234,36.325201711681444,33.64508408447603,46.036000000021886
311869.9167,52.98222226632012,17.053813821484855,45.44947531802637,38.388215959564604,46.037000000011176
311869.9177,65.1961726115113,23.304326182052378,53.822607811620664,42.45816855958137,46.038000000000466
311869.9187,76.06524700849,29.103844106195073,61.21949232918603,45.71595880221367,46.038999999989755
311869.9197,85.349199419791,34.28146916024968,67.43652725544494,48.0337099254494,46.04000000003725
311869.9207,92.84996314098932,38.67690086168747,72.29911534086003,49.300341360634064,46.04100000002654
311869.9217,98.4186435692241,42.1478816917134,75.66884981944096,49.42770467856369,46.04200000001583
311869.9227,101.96130668978313,44.57783994710001,77.44999774137585,48.356783922103105,46.04300000000512
311869.9237,103.44319016974,45.883195854921475,77.59485022418698,46.06349364177354,46.04399999999441
311869.9247,102.89097228255062,46.019741311620386,76.10750268394496,42.56356063341608,46.0449999999837
311869.9257,100.3927773677631,44.987500702990005,73.04566125958632,37.915973855909556,46.0460000000312
311869.9267,96.09567765660194,42.833533990599335,68.52014672153157,32.22453516512329,46.04700000002049
311869.9277,90.20056850561642,39.6522525995413,62.69188203741333,25.637140445980254,46.04800000000978
311869.9287,82.95444159199916,35.58297701729675,55.76629804952548,18.342560724668605,46.04899999999907
311869.9297,74.64024873323345,30.80466070308917,47.98526313704834,10.56466573647175,46.04999999998836
311869.9307,65.56472482460948,25.527922061891932,39.616823987933955,2.5542244696764023,46.051000000035856
311869.9317,56.04470700029174,19.984746264915078,30.943220488063822,-5.421387722044376,46.052000000025146
311869.9327,46.39263287764569,14.41642194690212,22.24779250089133,-13.09006482052482,46.053000000014435
311869.9337,36.90200879699783,9.060445384664204,13.801515112005593,-20.187767538413496,46.054000000003725
311869.9347,27.83369675828168,4.137240308556605,5.849969217732275,-26.47147568363111,46.054999999993015
311869.9357,19.403867342095356,-0.16240719638081447,-1.3984328117303928,-31.7314789540401,46.055999999982305
311869.9367,11.77440103195124,-3.6883190045905105,-7.782195655033555,-35.80220194538285,46.0570000000298
311869.9377,5.0463931372971595,-6.33951225680386,-13.193803038785084,-38.57083469256001,46.05800000001909
311869.9387,-0.7427653679319299,-8.069772847868306,-17.583597399446706,-39.98317437781219,46.05900000000838
311869.9397,-5.6184853985105905,-8.889795807927277,-20.960189924133058,-40.04626721523173,46.05999999999767
311869.9407,-9.664264026507956,-8.865721994807712,-23.38735036385236,-38.82765770932992,46.06099999998696
311869.9417,-13.013425752231605,-8.114165829208433,-24.977572345665976,-36.4512878907851,46.06200000003446
311869.9427,-15.837840092612918,-6.794088361829276,-25.88274599308882,-33.09032236052884,46.06300000002375
311869.9437,-18.334350455057134,-5.096101671271335,-26.282575970752244,-28.957386594675455,46.06400000001304
311869.9447,-20.709813443227443,-3.22997470699901,-26.371542270300434,-24.29287832644629,46.06500000000233
311869.9457,-23.16574640904173,-1.4112316820733672,-26.345299668471043,-19.35213073281545,46.06599999999162
311869.9467,-25.883605611755918,0.15221785515137623,-26.387441490903072,-14.39226224137765,46.06699999998091
311869.9477,-29.01166543933484,1.2725063089020492,-26.657511758587304,-9.65953739125303,46.068000000028405
311869.9487,-32.65434498998036,1.792482414718866,-27.281040845703643,-5.377988748436315,46.069000000017695
311869.9497,-36.864642258496,1.5939854925144938,-28.34221315236395,-1.7399196006861462,46.070000000006985
311869.9507,-41.64010377183848,0.6032821305894794,-29.879565620799934,1.101265812365426,46.070999999996275
311869.9517,-46.92249807060896,-1.2065352134347735,-31.884881344905338,3.035656700117698,46.071999999985565
311869.9527,-52.60109622302205,-3.81614571013287,-34.30520300461602,3.998813144054071,46.07300000003306
311869.9537,-58.51921294568154,-7.163325244999769,-37.04766635065559,3.9712797480171798,46.07400000002235
311869.9547,-64.48344746205781,-11.14853951464258,-39.98666263489584,2.975955151630749,46.07500000001164
311869.9557,-70.27490008019339,-15.642205571585102,-42.972695535936545,1.073761448684648,46.07600000000093
311869.9567,-75.6615399845641,-20.49294377303155,-45.842212997131156,-1.6418691545804074,46.07699999999022
311869.9577,-80.41086765388961,-25.536129415468316,-48.427672324822616,-5.051154702965784,46.07800000003772
311869.9587,-84.30205137425597,-30.602104406441747,-50.56713703864513,-9.014269856848223,46.07900000002701
311869.9597,-87.13681538984012,-35.52351600366845,-52.11279995125116,-13.37737805771216,46.0800000000163
311869.9607,-88.7485059772336,-40.1413986233601,-52.93796754492853,-17.978084747011486,46.08100000000559
311869.9617,-89.00894567710321,-44.309788859191045,-52.94221089804555,-22.650142271879776,46.08199999999488
311869.9627,-87.83288694534917,-47.898843969254564,-52.05457085612665,-27.22737602618868,46.08299999998417
311869.9637,-85.18007552818653,-50.796600871487826,-50.234881845295895,-31.54692745148165,46.084000000031665
311869.9647,-81.05511272135767,-52.90964867843319,-47.47343279188376,-35.4520081336405,46.085000000020955
311869.9657,-75.50544874743734,-54.16307917727515,-43.78930090535571,-38.79441906056904,46.086000000010245
311869.9667,-68.61793528208683,-54.50011766039736,-39.227764633354234,-41.43710337914582,46.086999999999534
311869.9677,-60.514407384858984,-53.88181834609588,-33.857221096520774,-43.256968244351384,46.087999999988824
311869.9687,-51.34675322680211,-52.28713777231696,-27.766001565555815,-44.14813565392837,46.08900000003632
311869.9697,-41.291869305773524,-49.71358536921215,-21.059402351809034,-44.0256727182321,46.09000000002561
311869.9707,-30.546799695973842,-46.17850719209353,-13.857138912888889,-42.82972203608237,46.0910000000149
311869.9717,-19.32423465165478,-41.72090417250731,-6.291302621786006,-40.52981891651811,46.09200000000419
311869.9727,-7.848413281513836,-36.403539336853584,1.4952309962510861,-37.12906130183896,46.09299999999348
311869.9737,3.648645814687204,-30.31496774557029,9.350110147215682,-32.66770671502507,46.09399999998277
311869.9747,14.930757455462299,-23.571044253648378,17.112785762170503,-27.225721935913917,46.09500000003027
311869.9757,25.76125547710331,-16.31543897107699,24.61606372857255,-20.92381463048003,46.09600000001956
311869.9767,35.906992440209166,-8.718724126250418,31.688232828383054,-13.922535553181486,46.09700000000885
311869.9777,45.14285979889106,-0.9756880389608839,38.15602336648581,-6.419152885568782,46.09799999999814
311869.9787,53.25695639410706,6.699325280702975,43.84856076761323,1.3578415555155186,46.09899999998743
311869.9797,60.05642054061828,14.079071973489752,48.602354258604855,9.15654469763982,46.100000000034925
311869.9807,65.3738079894473,20.93188035941617,52.26721698950995,16.711519733592585,46.101000000024214
311869.9817,69.07376115867294,27.031560082231373,54.71286699849174,23.75528707376607,46.102000000013504
311869.9827,71.05959162154404,32.16819095255997,55.83582544873076,30.030804299360884,46.103000000002794
311869.9837,71.27930419820474,36.15909653934236,55.566125547946505,35.30418149418812,46.103999999992084
311869.9847,69.7305404092594,38.859226504430644,53.87328554322587,39.3768068575686,46.10499999998137
311869.9857,66.46392030454608,40.170157427218,50.770990820265915,42.09605263296278,46.10600000002887
311869.9867,61.584318062098276,40.04697831749966,46.319976757332675,43.36379578993878,46.10700000001816
311869.9877,55.24971566351471,38.502451197136864,40.6287032533667,43.142117728793245,46.10800000000745
311869.9887,47.66743218975172,35.60801949784778,33.851556032931015,41.45573257985938,46.10899999999674
311869.9897,39.08771090331568,31.49146238993806,26.184486624410003,38.390919362241455,46.10999999998603
311869.9907,29.794845946548836,26.331242187367813,17.858196706198203,34.09098061129681,46.11100000003353
311869.9917,20.09622709626761,20.347843033099572,9.129165964805985,28.74849845619135,46.11200000002282
311869.9927,10.309856497516359,13.792630257449884,0.26899827856676717,22.594887906634153,46.11300000001211
311869.9937,0.7510293166330295,6.93495097488716,-8.447296951260329,15.887937499364698,46.1140000000014
311869.9947,-8.281042286931884,0.048331056394978915,-16.753376053535497,8.89816410344976,46.11499999999069
311869.9957,-16.515854247981824,-6.603309985721884,-24.40323255788958,1.8948809271788263,46.116000000038184
311869.9967,-23.722711646231932,-12.77851201041234,-31.181735695951303,-4.867119532942958,46.117000000027474
311869.9977,-29.71962795768787,-18.26936119761594,-36.91337996101932,-11.15943198714943,46.118000000016764
311869.9987,-34.379493674381656,-22.910122912599768,-41.468718725788065,-16.789747196284548,46.119000000006054
311869.9997,-37.63317614149861,-26.58293129390579,-44.76812489863716,-21.608875464841375,46.11999999999534
311870.0007,-39.46942943803789,-29.22028080918101,-46.782718324439955,-25.514771797850457,46.12099999998463
311870.0017,-39.93171866770203,-30.804314843420517,-47.53250658252929,-28.453481543457144,46.12200000003213
311870.0027,-39.11227865109483,-31.363150240657372,-47.081985677057936,-30.417154932311444,46.12300000002142
311870.0037,-37.14391508753193,-30.96469402344843,-45.53362325269571,-31.439487563526576,46.12400000001071
311870.0047,-34.19020152702614,-29.708581246321252,-43.01978498413527,-31.589115014786547,46.125
311870.0057,-30.434816396062924,-27.716977225622625,-39.693753707577244,-30.961610373061234,46.12599999998929
311870.0067,-26.070793985297524,-25.125034695348283,-35.72052410523566,-29.67079522136476,46.12700000003679
311870.0077,-21.290430153990602,-22.071774288861867,-31.268031686750415,-27.840074383913972,46.12800000002608
311870.0087,-16.27649138119468,-18.692068891197906,-26.499396862019754,-25.594444898011403,46.12900000001537
311870.0097,-11.195233629241818,-15.110268440488102,-21.566641217673606,-23.053717782803236,46.13000000000466
311870.0107,-6.191558504996102,-11.4358162042344,-16.60617580000774,-20.327339160807607,46.130999999993946
311870.0117,-1.3864347404584958,-7.760998505716219,-11.736185207268482,-17.511020370520587,46.131999999983236
311870.0127,3.123488969322858,-4.160757285094656,-7.055852984090281,-14.685201928219842,46.133000000030734
311870.0137,7.26434027494935,-0.6942987016152352,-2.646209494401613,-11.91520082866585,46.13400000002002
311870.0147,10.981963913368206,2.5919307051698453,1.427752155507659,-9.252740625253505,46.13500000000931
311870.0157,14.23787199861165,5.660441461986011,5.114141682459032,-6.738452089043052,46.1359999999986
311870.0167,17.00478499449268,8.478667450163238,8.37091504896397,-4.404868119810221,46.13699999998789
311870.0177,19.26234291927322,11.015287861841117,11.162787540007233,-2.2794243299964196,46.13800000003539
311870.0187,20.99350876087888,13.237422963528958,13.458754084368271,-0.3870156527563616,46.13900000002468
311870.0197,22.182079296501975,15.109100807031776,15.23055698531359,1.2482561282832558,46.14000000001397
311870.0207,22.811573772745614,16.591231626121285,16.452310989926875,2.6023886857620178,46.14100000000326
311870.0217,22.865602870378527,17.64314342947074,17.101345972707367,3.6519409779802667,46.14199999999255
311870.0227,22.329645726256597,18.225544880406805,17.160173550239104,4.3756015299805915,46.14299999998184
311870.0237,21.19399865131758,18.304608849634985,16.61934110841742,4.7566712282585835,46.14400000002934
311870.0247,19.457521574937797,17.85672941880418,15.480819326149275,4.786148343984426,46.14500000001863
311870.0257,17.131710544607838,16.873410798091005,13.76148918186165,4.466017969359749,46.146000000007916
311870.0267,14.24457630683777,15.365708252312938,11.496259910545588,3.812306123786963,46.146999999997206
311870.0277,10.84381476932076,13.367662872685669,8.740364312798297,2.8574648744112907,46.147999999986496
311870.0287,6.998814380358247,10.938252133664962,5.570441241096059,1.6517085026026455,46.14900000003399
311870.0297,2.801152265679715,8.161509099588596,2.08412122139568,0.26301678523654504,46.15000000002328
311870.0307,-1.63662530778696,5.1446322636683615,-1.6020301080068025,-1.2243497644806343,46.15100000001257
311870.0317,-6.183976300165565,2.0140987855834904,-5.356198279313728,-2.7128294005352096,46.15200000000186
311870.0327,-10.696956163962106,-1.0900124813482368,-9.0364623714082,-4.095887204004852,46.15299999999115
311870.0337,-15.024136541869169,-4.021104588836494,-12.49707155536112,-5.263404053580374,46.15400000003865
311870.0347,-19.01342225080548,-6.634026165762718,-15.59541366990613,-6.1077237151908355,46.15500000002794
311870.0357,-22.51924806567345,-8.79329438096591,-18.199154128220457,-6.529878734601666,46.15600000001723
311870.0367,-25.409596096673052,-10.38092064896166,-20.19299314644197,-6.445486316321837,46.15700000000652
311870.0377,-27.572288520121806,-11.303209144100606,-21.484511865159305,-5.789826442652432,46.15799999999581
311870.0387,-28.92007746697209,-11.49598482826007,-22.008651639150976,-4.52168437373069,46.1589999999851
311870.0397,-29.394166859742246,-10.927845941737544,-21.73048852570603,-2.6256514397848503,46.160000000032596
311870.0407,-28.965947996584926,-9.601212094195635,-20.64611511687365,-0.11272027067561327,46.161000000021886
311870.0417,-27.63689627424296,-7.551135704009285,-18.781609226972773,2.980831405406754,46.162000000011176
311870.0427,-25.43674332755326,-4.842041996806499,-16.19023662922274,6.59611695066176,46.163000000000466
311870.0437,-22.420189760908777,-1.562741485674405,-12.948186082983929,10.655585284122884,46.163999999989755
311870.0447,-18.662543149514498,2.1797987787440154,-9.149254155839554,15.067833230472456,46.16500000003725
311870.0457,-14.2547422099787,6.267346646405354,-4.898973093737168,19.73281937669651,46.16600000002654
311870.0467,-9.298253866324636,10.577346834675025,-0.30870015669367495,24.546996311062514,46.16700000001583
311870.0477,-3.9003037418913546,14.989328708959912,4.509840277489388,29.40791182968849,46.16800000000512
311870.0487,1.830173636060725,19.390279790096677,9.449146124121828,34.21790971064472,46.16899999999441
311870.0497,7.7855918393245345,23.6786169800176,14.409358008336618,38.88667790537325,46.1699999999837
311870.0507,13.86164267631684,27.766552504129134,19.300352126544794,43.33253350661054,46.1710000000312
311870.0517,19.95811440636164,31.580831744719717,24.042500169160206,47.48248414911979,46.17200000002049
311870.0527,25.97875528735171,35.06199636356241,28.566238859783365,51.27124827472154,46.17300000000978
311870.0537,31.830459481858956,38.16247989534184,32.81071867047145,54.639536521900496,46.17399999999907
311870.0547,37.42213625008361,40.8439583824258,36.72189403722005,57.53198044644081,46.17499999998836
311870.0557,42.66366198107928,43.07444380942611,40.25046634519378,59.89513371482976,46.176000000035856
311870.0567,47.46530340620787,44.82561659429979,43.35009116310593,61.67596042911289,46.177000000025146
311870.0577,51.7379400798808,46.070844654528976,45.976212888523,62.82116608571627,46.178000000014435
311870.0587,55.394310948150974,46.784236020699545,48.08579841509556,63.27762466603093,46.179000000003725
311870.0597,58.351374293827455,46.94093047269828,49.63811650684575,62.99402084825011,46.179999999993015
311870.0607,60.53371694697656,46.518668441376974,50.59656472924712,61.92367319499447,46.180999999982305
311870.0617,61.877794043837945,45.50050052875999,50.93139680604761,60.02834848660934,46.1820000000298
311870.0627,62.3366420815492,43.8783376015447,50.62306665374893,57.282735848858,46.18300000001909
311870.0637,61.884601687469605,41.656907797491954,49.6657966806218,53.67913765304125,46.18400000000838
311870.0647,60.521525699316896,38.8575984988532,48.070910264043036,49.23186539494583,46.18499999999767
311870.0657,58.27594182126218,35.52162950772673,45.86945070115293,43.980811890337634,46.18599999998696
311870.0667,55.206690859614575,31.712033763974922,43.11364537156078,37.99371006660042,46.18700000003446
311870.0677,51.40266894094483,27.514013033545517,39.87686271858631,31.366681623314417,46.18800000002375
311870.0687,46.98045680265942,23.033380634877766,36.25184364259134,24.22281844829919,46.18900000001304
311870.0697,42.07980753680725,18.392988142661668,32.34715561889136,16.70871339764,46.19000000000233
311870.0707,36.85716830550109,13.727240129315446,28.28200098162643,8.989048431768905,46.19099999999162
311870.0717,31.477611414973794,9.175009487138027,24.17969170417801,1.2395383637314688,46.19199999998091
311870.0727,26.105725276820326,4.8714540296831705,20.160262581065854,-6.36130160254428,46.193000000028405
311870.0737,20.896147508484482,0.9393826472689778,16.33281547186281,-13.640964465557392,46.194000000017695
311870.0747,15.984495784315879,-2.5190903953686186,12.788255148501408,-20.44165646213945,46.195000000006985
311870.0757,11.479457473273992,-5.429842698260106,9.593083236804803,-26.628200854815432,46.195999999996275
311870.0767,7.456733500777389,-7.752283706535302,6.7848577584684175,-32.0944897090657,46.196999999985565
311870.0777,3.9553990976037934,-9.482550856763641,4.36980534948279,-36.76794166000959,46.19800000003306
311870.0787,0.9770546789473783,-10.653958562004576,2.3229010999981403,-40.61158497706567,46.19900000002235
311870.0797,-1.5120896945832263,-11.334525078891605,0.5905222419162882,-43.62358451385412,46.20000000001164
311870.0807,-3.5763025032445865,-11.621655165645679,-0.9044443667322455,-45.83424994953787,46.20100000000093
311870.0817,-5.302944682012894,-11.634310451366948,-2.255383765652575,-47.30078064958631,46.20199999999022
311870.0827,-6.7931836070030975,-11.503230806101605,-3.563164405020572,-48.100199096679894,46.20300000003772
311870.0837,-8.151556587119718,-11.359956825416862,-4.926475270485461,-48.32108182301424,46.20400000002701
311870.0847,-9.475245757735445,-11.32552793333443,-6.432080354639902,-48.054799617861924,46.2050000000163
311870.0857,-10.843965366867245,-11.499780404008765,-8.14581018908538,-47.38701821060429,46.20600000000559
311870.0867,-12.311324104231677,-11.952139514252329,-10.105066697005162,-46.39018339782427,46.20699999999488
311870.0877,-13.898412297916442,-12.714692102072735,-12.313505998494488,-45.11762368925735,46.20799999998417
311870.0887,-15.590186109759285,-13.7781491359251,-14.738393456637604,-43.59975780980237,46.209000000031665
311870.0897,-17.33499362753628,-15.091077777227413,-17.31091089712346,-41.84270749058196,46.210000000020955
311870.0907,-19.047330557222313,-16.562518824355863,-19.929456107706997,-39.82940505454631,46.211000000010245
311870.0917,-20.6136480770494,-18.067831167013964,-22.465730069765808,-37.5230692949993,46.211999999999534
311870.0927,-21.900784799781086,-19.457343505881518,-24.773178770039006,-34.87272103635045,46.212999999988824
311870.0937,-22.766379668925374,-20.5671672961925,-26.69716316508391,-31.82023887076481,46.21400000003632
311870.0947,-23.070460681461974,-21.231352562389418,-28.08608897272674,-28.308330060690867,46.21500000002561
311870.0957,-22.687308567347245,-21.294463937019867,-28.80264896523413,-24.288721392616036,46.2160000000149
311870.0967,-21.516672245564497,-20.623626034356047,-28.734320460420772,-19.72986478011184,46.21700000000419
311870.0977,-19.493465104148555,-19.1191365296371,-27.80232007184329,-14.623502305544774,46.21799999999348
311870.0987,-16.595192830726866,-16.72286693415541,-25.968341083164304,-8.989539736515137,46.21899999998277
311870.0997,-12.84654390125826,-13.42385382973017,-23.238575439021858,-2.8788264197446867,46.22000000003027
311870.1007,-8.320797449635354,-9.260711013679078,-19.664737371457047,3.626380696477232,46.22100000001956
311870.1017,-3.13795120364616,-4.320745759691465,-15.342041095366822,10.41429630036612,46.22200000000885
311870.1027,2.5402762553513543,1.264081518254154,-10.40432116531051,17.347663786302096,46.22299999999814
311870.1037,8.518180340568966,7.323977258915927,-5.016701315320324,24.269650649325722,46.22399999998743
311870.1047,14.575956040424652,13.660338123982147,0.6336021618500547,31.011102275228236,46.225000000034925
311870.1057,20.481002513278487,20.056256701172817,6.3476280967827154,37.39857924979582,46.226000000024214
311870.1067,25.999833357885446,26.28770949039714,11.92538872059575,43.262561481019844,46.227000000013504
311870.1077,30.90976684767022,32.13461896057337,17.17617915053883,48.44521643651678,46.228000000002794
311870.1087,35.00962654065313,37.39104265832621,21.92776574480706,52.807196132551894,46.228999999992084
311870.1097,38.1288003193362,41.87386498781852,26.03386679323622,56.23304060579295,46.22999999998137
311870.1107,40.13417251825754,45.42953780066733,29.37951093815279,58.634912522715354,46.23100000002887
311870.1117,40.934642441021424,47.938616466309725,31.88405987132875,59.95455318522219,46.23200000001816
311870.1127,40.48315364641707,49.318048249029886,33.50189269771784,60.16351761615635,46.23300000000745
311870.1137,38.776361565780014,49.521368748093614,34.22094965902095,59.261898801935565,46.23399999999674
311870.1147,35.852243293315944,48.53713065130916,34.059503754122964,57.27587341751019,46.23499999998603
311870.1157,31.786086979418393,46.38601146202,33.061654478784845,54.25448164538259,46.23600000003353
311870.1167,26.685378133235922,43.11711264124312,31.292107511353983,50.26608472000426,46.23700000002282
311870.1177,20.68412108946533,38.80396732236219,28.83081261451117,45.394923523100715,46.23800000001211
311870.1187,13.937096935500126,33.54071944219994,25.76798052949315,39.73813330423362,46.2390000000014
311870.1197,6.614471375041206,27.438832012405083,22.199895560223897,33.40346185769847,46.23999999999069
311870.1207,-1.1029604194889562,20.624539831631854,18.225796567204167,26.507803903148453,46.241000000038184
311870.1217,-9.027753807891623,13.237099564526243,13.945931911740663,19.17651854510078,46.242000000027474
311870.1227,-16.96903446018371,5.427727175744528,9.460722485061877,11.543356382485008,46.243000000016764
311870.1237,-24.735111618437777,-2.64103139848047,4.870810602954159,3.7507045201240925,46.244000000006054
311870.1247,-32.13574633046243,-10.795858375040348,0.2776488033555608,-4.050224353297224,46.24499999999534
311870.1257,-38.98439981887149,-18.85357134800459,-4.215794579142003,-11.699667975443287,46.24599999998463
311870.1267,-45.100798673973834,-26.622800462922918,-8.50465790715387,-19.030447681349827,46.24700000003213
311870.1277,-50.31411088198482,-33.906797469615185,-12.482545152085095,-25.8702813009884,46.24800000002142
311870.1287,-54.46693406141291,-40.507625052606684,-16.04293852870146,-32.04548213350304,46.24900000001071
311870.1297,-57.42016482443721,-46.23181776784194,-19.081846319953485,-37.386098403019034,46.25
311870.1307,-59.05866091392849,-50.89742148721637,-21.501701553430188,-41.73237512022732,46.25099999998929
311870.1317,-59.29744397020845,-54.34212612925777,-23.21634974108986,-44.94224514954047,46.25200000003679
311870.1327,-58.088040035684415,-56.43202773260221,-24.156794661751185,-46.89939727106665,46.25300000002608
311870.1337,-55.424435953190766,-57.0704109249847,-24.277229417436224,-47.521343799458435,46.25400000001537
311870.1347,-51.348058485931084,-56.20584892552226,-23.560782329809346,-46.766833590803365,46.25500000000466
311870.1357,-45.95117041919555,-53.838887940330714,-22.02436580976331,-44.64193820739814,46.255999999993946
311870.1367,-39.37812924267305,-50.02662250526308,-19.722037519776674,-41.20418412479685,46.256999999983236
311870.1377,-31.82406774918223,-44.88457736095497,-16.746366887822102,-36.56421044574344,46.258000000030734
311870.1387,-23.530723898277653,-38.58548217671682,-13.227439785914397,-30.88459179275029,46.25900000002002
311870.1397,-14.77935558373481,-31.354743916680196,-9.329317606486562,-24.375666634762272,46.26000000000931
311870.1407,-5.88090600067514,-23.462668930346798,-5.243977147936613,-17.28843487210647,46.2609999999986
311870.1417,2.836184056882802,-15.213740885186963,-1.1829749019581317,-9.904815217340097,46.26199999998789
311870.1427,11.039911166589349,-6.93349841058067,2.6327170944586737,-2.5257624171823467,46.26300000003539
311870.1437,18.409617521387077,1.0462439444839617,5.984086133377284,4.542082210730724,46.26400000002468
311870.1447,24.650987995945993,8.402944435751863,8.665925495010963,11.00041166566872,46.26500000001397
311870.1457,29.510210029737742,14.838691571982691,10.498353604453117,16.57309093039366,46.26600000000326
311870.1467,32.786402418010915,20.094411499703135,11.337212698220144,21.01896474484651,46.26699999999255
311870.1477,34.34152274976939,23.96204447894334,11.082626398121558,24.142862896875265,46.26799999998184
311870.1487,34.10712971700021,26.293956051503105,9.685127329197316,25.804163386926778,46.26900000002934
311870.1497,32.08759142676604,27.009050075265577,7.148944864856914,25.922453215035567,46.27000000001863
311870.1507,28.35957552131305,26.095289386061125,3.5322529543444783,24.480036077959646,46.271000000007916
311870.1517,23.067910302360243,23.608584428779963,-1.0555999792136876,21.521257425676286,46.271999999997206
311870.1527,16.418146758552506,19.66825888045058,-6.459642292062653,17.14883116105509,46.272999999986496
311870.1537,8.666359660512088,14.449523380975561,-12.487185400870136,11.517541186650828,46.27400000003399
311870.1547,0.10688541894359391,8.17356639645659,-18.917510400301392,4.825840367878618,46.27500000002328
311870.1557,-8.941206233390204,1.0959919995474903,-25.512663664291626,-2.6940311530414647,46.27600000001257
311870.1567,-18.148076128695838,-6.505609325836058,-32.02865134970435,-10.786742437016803,46.27700000000186
311870.1577,-27.18671632021409,-14.344179989665573,-38.226342459204446,-19.184728823801,46.27799999999115
311870.1587,-35.74547952884497,-22.135097736984246,-43.88146349955981,-27.618617665616913,46.27900000003865
311870.1597,-43.538967819963354,-29.606874525205424,-48.79318524273166,-35.826734235459725,46.28000000002794
311870.1607,-50.31688172687714,-36.51022134974547,-52.79095045327589,-43.56333121196407,46.28100000001723
311870.1617,-55.870616708076085,-42.62522361036636,-55.73935521479916,-50.60533070922922,46.28200000000652
311870.1627,-60.037576466344,-47.76654762432118,-57.5410595133282,-56.757511861788736,46.28299999999581
311870.1637,-62.70333565247828,-51.78675884155473,-58.1378497855385,-61.8562053638775,46.2839999999851
311870.1647,-63.80191410280567,-54.57796180037789,-57.51009439188583,-65.77165743832647,46.285000000032596
311870.1657,-63.31451144170473,-56.072060430617384,-55.674913216289845,-68.40929138844254,46.286000000021886
311870.1667,-61.267089981363156,-56.239979388719775,-52.68342002536461,-69.71012136747571,46.287000000011176
311870.1677,-57.72718593845357,-55.09018238622189,-48.61739077784798,-69.650561020665,46.288000000000466
311870.1687,-52.80027955263832,-52.6667767457473,-43.58566725053129,-68.24182424777756,46.288999999989755
311870.1697,-46.62597336831601,-49.04741389871954,-37.72053153082317,-65.52904514031749,46.29000000003725
311870.1707,-39.37412731677966,-44.341095715970624,-31.17419435653438,-61.59016035402527,46.29100000002654
311870.1717,-31.240993396751986,-38.6858907511878,-24.115441727352504,-56.534512206129044,46.29200000001583
311870.1727,-22.44529571748127,-32.246467210301894,-16.72639252678378,-50.50105688366698,46.29300000000512
311870.1737,-13.224125894518208,-25.21127390108486,-9.199246629050092,-43.656010025994625,46.29399999999441
311870.1747,-3.828478880402962,-17.789156962295056,-1.7328571633101304,-36.18973962286538,46.2949999999837
311870.1757,5.481753907391235,-10.20519537957882,5.471052091952794,-28.312728142021253,46.2960000000312
311870.1767,14.44348730334213,-2.695574247467722,12.212181064465872,-20.25047258783689,46.29700000002049
311870.1777,22.796928706030187,4.498611126344205,18.29656160444717,-12.237269324348066,46.29800000000978
311870.1787,30.29284173058687,11.138621749451715,23.54210014121325,-4.508932894118082,46.29899999999907
311870.1797,36.70046831637286,16.996287359617078,27.78467588622578,2.7053852259533766,46.29999999998836
311870.1807,41.815871310904,21.862906014690108,30.884609120357766,9.191992811845136,46.301000000035856
311870.1817,45.47034712028372,25.558444755718263,32.73321222848629,14.76167383456296,46.302000000025146
311870.1827,47.53846507681731,27.940548629882237,33.259050554468935,19.25844512360663,46.303000000014435
311870.1837,47.945228037675186,28.912792248863596,32.43348114331537,22.567517576327575,46.304000000003725
311870.1847,46.671826118059904,28.43157844744926,30.275013059616693,24.621913128710702,46.304999999993015
311870.1857,43.759477673909544,26.511108770353655,26.85204825540136,25.407220009370388,46.305999999982305
311870.1867,39.310920009888704,23.225922319361864,22.283618435508572,24.964045460700905,46.3070000000298
311870.1877,33.489223961258176,18.710620104966566,16.737828867012958,23.387843480758438,46.30800000001909
311870.1887,26.513754648117082,13.15655406038224,10.427848860399322,20.825947699709772,46.30900000000838
311870.1897,18.653275009114378,6.805451853358712,3.605441825151744,17.47181544346646,46.30999999999767
311870.1907,10.216376207830184,-0.059843982372845585,-3.4478059739421894,13.556675123920703,46.31099999998696
311870.1917,1.5396050824071639,-7.127137740967972,-10.43123246026637,9.338950783336083,46.31200000003446
311870.1927,-7.026171505924233,-14.06856989610682,-17.03734397785936,5.092000276369236,46.31300000002375
311870.1937,-15.130486399689559,-20.555506652552346,-22.9649510760022,1.0908337245650528,46.31400000001304
311870.1947,-22.438300322660776,-26.273795594169833,-27.932500427528538,-2.4014346270637703,46.31500000000233
311870.1957,-28.64451779234916,-30.938504338088592,-31.69086345588114,-5.146613043661097,46.31599999999162
311870.1967,-33.48718147654216,-34.30727324597312,-34.03484913861887,-6.9431697205756695,46.31699999998091
311870.1977,-36.758604224932355,-36.19149088013628,-34.81276744636745,-7.635988567441415,46.318000000028405
311870.1987,-38.31381964592774,-36.464637164142786,-33.93347802907506,-7.123576201667217,46.319000000017695
311870.1997,-38.07589855328175,-35.06732434853952,-31.370509125993973,-5.362319317136277,46.320000000006985
311870.2007,-36.03787785739119,-32.00878596725945,-27.163013747517248,-2.3675866678043573,46.320999999996275
311870.2017,-32.2612657044106,-27.36480202780953,-21.41353066206419,1.7883209733656016,46.321999999985565
311870.2027,-26.871305426016942,-21.272286081764026,-14.282721556998862,6.981162300155285,46.32300000003306
311870.2037,-20.049384405419683,-13.920977845625663,-5.9814472998666846,13.04228840871936,46.32400000002235
311870.2047,-12.023146625141347,-5.542866457098971,3.239289396518893,19.768160128715994,46.32500000001164
311870.2057,-3.05499618577201,3.5998999720047506,13.099883294722659,26.931179961157905,46.32600000000093
311870.2067,6.5702462049759065,13.227793064958675,23.304421808729884,34.29110877028333,46.32699999999022
311870.2077,16.557756088838946,23.056541484365944,33.55299078537756,41.606333941113924,46.32800000003772
311870.2087,26.61445334096655,32.80885757323997,43.55328283805358,48.6443080777328,46.32900000002701
311870.2097,36.45944933431348,42.22460255466757,53.030889736398684,55.190579884825965,46.3300000000163
311870.2107,45.832699884493316,51.06890442226486,61.73779373091504,61.055981750642154,46.33100000000559
311870.2117,54.50154502396261,59.13793834108996,69.4587375067348,66.08170841987881,46.33199999999488
311870.2127,62.265006514400476,66.26228764722104,76.01533365176667,70.14220251007228,46.33299999998417
311870.2137,68.95590226764044,72.30800537954637,81.26795577825841,73.14593925765683,46.334000000031665
311870.2147,74.44100689549306,77.17567370665348,85.11561876545838,75.03435936391561,46.335000000020955
311870.2157,78.61962489614768,80.79789635956837,87.49419086747969,75.77932199711411,46.336000000010245
311870.2167,81.42103637422923,83.13574614360387,88.3733747240591,75.37953023350015,46.336999999999534
311870.2177,82.80131797188092,84.17471984665333,87.75294088758798,73.85641317763921,46.337999999988824
311870.2187,82.74003214114458,83.9207261134761,85.65869436731552,71.24993216367072,46.33900000003632
311870.2197,81.23721936832274,82.39655343002649,82.1386047789304,67.61471701326104,46.34000000002561
311870.2207,78.31102848762883,79.63914554216687,77.25944133954448,63.01684075795354,46.3410000000149
311870.2217,73.99619162089112,75.69786457341984,71.10413619429964,57.5314192938159,46.34200000000419
311870.2227,68.34340696872609,70.63376436308296,63.76996693767444,51.241089996347945,46.34299999999348
311870.2237,61.41955020016093,64.51974538345824,55.367516351472894,44.235294935136636,46.34399999998277
311870.2247,53.30850864916826,57.44133423273961,46.02024860139264,36.61018374390741,46.34500000003027
311870.2257,44.11233508608867,49.4977386742084,35.86444888362544,28.46886998685728,46.34600000001956
311870.2267,33.95235938837157,40.802782992794,25.04921720376139,19.921731228043356,46.34700000000885
311870.2277,22.969882650720088,31.48533256105524,13.736192024819038,11.086440994786484,46.34799999999814
311870.2287,11.326110029211724,21.688870005407896,2.0987068481880646,2.087459897780906,46.34899999998743
311870.2297,-0.7989480540394038,11.56998197288368,-9.679851278184048,-6.9452116953690135,46.350000000034925
311870.2307,-13.208770174640998,1.295644285992761,-21.40861563657058,-15.878114822124688,46.351000000024214
311870.2317,-25.693849587701408,-8.96066021894928,-32.89276413229946,-24.57722500482331,46.352000000013504
311870.2327,-38.03635219596025,-19.0238091156499,-43.93788948736033,-32.91151665526108,46.353000000002794
311870.2337,-50.01568028099803,-28.722578757203806,-54.35499605781692,-40.75695216231054,46.353999999992084
311870.2347,-61.41460983882264,-37.8954377569293,-63.96581029049377,-48.00056835838086,46.35499999998137
311870.2357,-72.02559721702117,-46.3961210803144,-72.60803022910785,-54.544287911212656,46.35600000002887
311870.2367,-81.65682023147055,-54.09850206416541,-80.14011758229917,-60.3080799070316,46.35700000001816
311870.2377,-90.13753368115879,-60.90032425344947,-86.44525696888331,-65.232134306595,46.35800000000745
311870.2387,-97.32237789217416,-66.72544886631319,-91.43416962177828,-69.27779607599702,46.35899999999674
311870.2397,-103.09437549789607,-71.5244081275665,-95.04656698203814,-72.42711902837932,46.35999999998603
311870.2407,-107.36647579857112,-75.2732162352724,-97.25115312396676,-74.68103528646239,46.36100000003353
311870.2417,-110.0816443333715,-77.97056169716433,-98.0442207063978,-76.05627958214535,46.36200000002282
311870.2427,-111.211632679626,-79.63366903636665,-97.44701844530314,-76.5813428846953,46.36300000001211
311870.2437,-110.75468489973596,-80.29325667182617,-95.50218427869771,-76.29184202384646,46.3640000000014
311870.2447,-108.73252908565281,-79.98811570538348,-92.2696244435547,-75.22576802414446,46.36499999999069
311870.2457,-105.18705487390459,-78.7598799973588,-87.82226474841849,-73.41910628068013,46.366000000038184
311870.2467,-100.17708472251141,-76.6485452063901,-82.24210083234954,-70.90230160032276,46.367000000027474
311870.2477,-93.77560726604466,-73.68922337730362,-75.61692852790758,-67.69797087853777,46.368000000016764
311870.2487,-86.06775943360289,-69.91049628613754,-68.03804802516689,-63.820151468151344,46.369000000006054
311870.2497,-77.14972913119368,-65.33456675118573,-59.5991153870972,-59.27522460932342,46.36999999999534
311870.2507,-67.12861475352726,-59.97921852830896,-50.396174728418124,-54.064484872530244,46.37099999998463
311870.2517,-56.12313652332329,-53.86140100158715,-40.528758918139744,-48.188154971369464,46.37200000003213
311870.2527,-44.264963300844336,-47.00207424888903,-30.10181152423338,-41.65048770146084,46.37300000002142
311870.2537,-31.700311764333446,-39.431801624846486,-19.228072414349707,-34.46546919725073,46.37400000001071
311870.2547,-18.59140495982736,-31.196476152082656,-8.030495982432734,-26.66255345870635,46.375
311870.2557,-5.117352652012782,-22.362524579083537,3.35575730923636,-18.291826389499487,46.37599999998929
311870.2567,8.525959416708245,-13.020954166433377,14.782194726291667,-9.428022617324617,46.37700000003679
311870.2577,22.12731140492339,-3.2896912027948315,26.08710055394072,-0.1728989379815272,46.37800000002608
311870.2587,35.463147365410855,6.68619999442543,37.097140532918445,9.344402156642067,46.37900000001537
311870.2597,48.30220730302678,16.736645558304986,47.63057854679377,18.969197924563034,46.38000000000466
311870.2607,60.41170588765239,26.671055693277296,57.502061271573105,28.52532834580652,46.380999999993946
311870.2617,71.56480244508174,36.28498297586132,66.52876141223813,37.821248780896866,46.381999999983236
311870.2627,81.54895265696155,45.36853907386527,74.53751714848148,46.657780075613154,46.383000000030734
311870.2637,90.17460751753707,53.71598939967425,81.37247945723409,54.83698845681306,46.38400000002002
311870.2647,97.28364275184659,61.13581916627237,86.90269286940209,62.17155569155535,46.38500000000931
311870.2657,102.75687175471586,67.4604988501815,91.02899839322956,68.49394242083345,46.3859999999986
311870.2667,106.52002225761848,72.55517921079871,93.68966495522224,73.66465027936118,46.38699999998789
311870.2677,108.5476412938415,76.3246166948747,94.86422806742964,77.57895188839989,46.38800000003539
311870.2687,108.86452919904139,78.71776390364087,94.57513679067073,80.17157700740026,46.38900000002468
311870.2697,107.54448092995088,79.72964555298357,92.88697293665243,81.41900781470474,46.39000000001397
311870.2707,104.70631727943197,79.40036179470651,89.90319632174038,81.33923191253557,46.39100000000326
311870.2717,100.50740201847798,77.811298154271,85.76057034641443,79.98901067298652,46.39199999999255
311870.2727,95.13504462716782,75.07885323538905,80.62161539210815,77.45892404340266,46.39299999998184
311870.2737,88.79636349676215,71.34620060770247,74.66560588741399,73.86663241320062,46.39400000002934
311870.2747,81.70731488556596,66.77376111825625,68.07875468975529,69.34893530569734,46.39500000001863
311870.2757,74.08166589388728,61.52916158351448,61.044303395531706,64.05329296565273,46.396000000007916
311870.2767,66.12069778968512,55.77748633717746,53.73325175503213,58.129502820416704,46.396999999997206
311870.2777,58.0043675731456,49.67258681319364,46.296411432052,51.72218646549755,46.397999999986496
311870.2787,49.88453525972972,43.350105350270645,38.8583625615315,44.9646483013668,46.39900000003399
311870.2797,41.88069229549933,36.92270316643466,31.513735017258025,37.97452371813742,46.40000000002328
311870.2807,34.078417922227935,30.47777473916652,24.32604371000223,30.851456780975465,46.40100000001257
311870.2817,26.530563702438005,24.077701189196947,17.329095613560483,23.67685181979187,46.40200000000186
311870.2827,19.260941947461827,17.76246513914768,10.530774276821917,16.515548715804396,46.40299999999115
311870.2837,12.27009132977319,11.55424015254494,3.9188139548137597,9.41909618162332,46.40400000003865
311870.2847,5.542530201808774,5.463398288470477,-2.5319830304379787,2.430157014805164,46.40500000002794
311870.2857,-0.945201035440481,-0.5047354439548251,-8.851742116982988,-4.412513394589923,46.40600000001723
311870.2867,-7.216453974188139,-6.343103245210911,-15.067434678912942,-11.069111426342381,46.40700000000652
311870.2877,-13.287069575659082,-12.036813249203025,-21.195419706471654,-17.494428426732718,46.40799999999581
311870.2887,-19.159304966396615,-17.558338366840534,-27.23524345321016,-23.634594227516704,46.4089999999851
311870.2897,-24.817601235857214,-22.864498639484758,-33.165213382754324,-29.42530201172177,46.410000000032596
311870.2907,-30.22652892973845,-27.89553065587717,-38.94010478857114,-34.79174159371143,46.411000000021886
311870.2917,-35.33104924831808,-32.576343764050065,-44.49117542694857,-39.65029608372551,46.412000000011176
311870.2927,-40.05902471103271,-36.81985450381089,-49.7284718266401,-43.91188333175636,46.413000000000466
311870.2937,-44.325721377243546,-40.53209731072083,-54.5452271528094,-47.486664823543265,46.413999999989755
311870.2947,-48.0398819761791,-43.618648580183546,-58.8239897325913,-50.289715270573645,46.41500000003725
311870.2957,-51.11082861398474,-45.99178656637503,-62.44399599835656,-52.24715720817134,46.41600000002654
311870.2967,-53.45598387529013,-47.57775049293445,-65.2892203657123,-53.30222350112627,46.41700000001583
311870.2977,-55.00818392978673,-48.32346234302488,-67.25650182996921,-53.42071903070343,46.41800000000512
311870.2987,-55.722195387663994,-48.202132078099545,-68.26316277679933,-52.5954084910246,46.41899999999441
311870.2997,-55.57993305845684,-47.21727421667067,-68.25359541385639,-50.84895328103509,46.4199999999837
311870.3007,-54.59399842159104,-45.40480907532895,-67.20438754728274,-48.23514652701457,46.4210000000312
311870.3017,-52.80930563651626,-42.83309067109672,-65.12768173716083,-44.83833849949747,46.42200000002049
311870.3027,-50.30271893227931,-39.600878821606386,-62.07259824609008,-40.771091219619514,46.42300000000978
311870.3037,-47.18077777851599,-35.83343888614155,-58.12469039308893,-36.17023731850919,46.42399999999907
311870.3047,-43.57572121149846,-31.677093991205194,-53.4035294984204,-31.19163226362824,46.42499999998836
311870.3057,-39.64012941568682,-27.29265957859557,-48.058625914809305,-26.00397163983073,46.426000000035856
311870.3067,-35.54057186774185,-22.848250822946085,-42.26397561697913,-20.782090493746924,46.427000000025146
311870.3077,-31.450683665292626,-18.511966654696746,-36.211574442016214,-15.700167938022743,46.428000000014435
311870.3087,-27.544085742344212,-14.444921354406924,-30.104263525482168,-10.925229305236023,46.429000000003725
311870.3097,-23.987524919917565,-10.795021989776842,-24.148262009392756,-6.611275737610772,46.429999999993015
311870.3107,-20.934543666357637,-7.691787105404344,-18.54571157901098,-2.8942856638102596,46.430999999982305
311870.3117,-18.519906742952795,-5.242381431303766,-13.487508642298648,0.11176546641909256,46.4320000000298
311870.3127,-16.8549233519446,-3.5289166291818597,-9.146641947423166,2.3178203522386926,46.43300000001909
311870.3137,-16.023719623929345,-2.606952785622706,-5.672194291419738,3.661633235011052,46.43400000000838
311870.3147,-16.080446634007355,-2.505041489076857,-3.184114142726499,4.108756265252292,46.43499999999767
311870.3157,-17.047360684852798,-3.225088122972727,-1.7688223723614447,3.652779397360566,46.43599999998696
311870.3167,-18.913689362826062,-4.743283990545585,-1.4756945517789395,2.315000791767842,46.43700000003446
311870.3177,-21.635199423789224,-7.011369314468233,-2.3144515045949685,0.1436915377653513,46.43800000002375
311870.3187,-25.13440796624635,-9.958032909136952,-4.2534983366950065,-2.7869209106574293,46.43900000001304
311870.3197,-29.301420528167252,-13.490326265988461,-7.219270822660918,-6.377885342335192,46.44000000000233
311870.3207,-33.99543020384503,-17.495058541319917,-11.096671573781405,-10.50698006446148,46.44099999999162
311870.3217,-39.0469607072759,-21.84023200640044,-15.730699368870843,-15.030461556498881,46.44199999998091
311870.3227,-44.260973382929336,-26.37666170408413,-20.929385600300108,-19.785242691355645,46.443000000028405
311870.3237,-49.42097440626046,-30.939985913377534,-26.46814491460215,-24.59167367415069,46.444000000017695
311870.3247,-54.29424698461674,-35.353305315788354,-32.09561749624331,-29.257109472078028,46.445000000006985
311870.3257,-58.63829063612803,-39.430681683673946,-37.541025347333125,-33.5804250448796,46.445999999996275
311870.3267,-62.208475816303235,-42.981678996519705,-42.52298485136523,-37.35758313782571,46.446999999985565
311870.3277,-64.76682158334188,-45.81704342854636,-46.75961682310349,-40.388271816934605,46.44800000003306
311870.3287,-66.09168478501849,-47.75550063117285,-49.979680387829134,-42.483517264405435,46.44900000002235
311870.3297,-65.98802269848126,-48.63151026201903,-51.93433839853717,-43.47405190115768,46.45000000001164
311870.3307,-64.2977705077664,-48.30367295981957,-52.40905152760409,-43.21909133655373,46.45100000000093
311870.3317,-60.90977451156359,-46.6633497600147,-51.23500816594026,-41.61505977984026,46.45199999999022
311870.3327,-55.76865477052109,-43.64294414708086,-48.2994396854476,-38.60371594233157,46.45300000003772
311870.3337,-48.88194802017951,-39.22322675892063,-43.55415536094481,-34.17908199442366,46.45400000002701
311870.3347,-40.32491053373846,-33.43906320853959,-37.021665049755505,-28.392575725335657,46.4550000000163
311870.3357,-30.242444142720423,-26.38294311108692,-28.79834327047643,-21.355795583269966,46.45600000000559
311870.3367,-18.847744675326464,-18.205804414630833,-19.05422366740885,-13.240509957586104,46.45699999999488
311870.3377,-6.417453389815234,-9.114797066884028,-8.029191310400613,-4.275551176172294,46.45799999998417
311870.3387,6.716693383484297,0.6321760315308134,3.9744492298791902,5.259498207941401,46.459000000031665
311870.3397,20.179488943397917,10.73507959492455,16.602824288949403,15.043727642326363,46.460000000020955
311870.3407,33.56669616598396,20.863232422704375,29.464326303876256,24.727110363089512,46.461000000010245
311870.3417,46.46163159850881,30.669138532441085,42.14579014426222,33.94497582551873,46.461999999999534
311870.3427,58.45304844373603,39.80394489091318,54.230192458753976,42.33403148846079,46.462999999988824
311870.3437,69.15335253806064,47.933657737741804,65.31493217490492,49.549083976701894,46.46400000003632
311870.3447,78.21612992724695,54.75516087723477,75.02968878517393,55.279527473169075,46.46500000002561
311870.3457,85.35198072408737,60.011061363962874,83.05286242354083,59.26464987179936,46.4660000000149
311870.3467,90.34174214624313,63.50244401041638,89.12567702622488,61.30685774814711,46.46700000000419
311870.3477,93.04633847174898,65.09874290539113,93.06317028750603,61.28203686559657,46.46799999999348
311870.3487,93.41270591639208,64.74412616284948,94.76149134740155,59.14643746372867,46.46899999998277
311870.3497,91.47549013869428,62.46002442898868,94.20116414153857,54.93968982122264,46.47000000003027
311870.3507,87.35448377578325,58.34369507599929,91.44623260923694,48.78379864742203,46.47100000001956
311870.3517,81.24803991346455,52.562980865956476,86.63946315713014,40.8782155826156,46.47200000000885
311870.3527,73.42294363291741,45.347672080550076,79.99401955788133,31.491327805099,46.47299999999814
311870.3537,64.20142872543164,36.97809419230346,71.78222731282952,20.94890905626635,46.47399999998743
311870.3547,53.94617506735162,27.77170214777336,62.322193461074235,9.620241863744932,46.475000000034925
311870.3557,43.04420390366198,18.068555420748012,51.963133844732816,-2.0972747203088278,46.476000000024214
311870.3567,31.890599359533038,8.216569568461173,41.070278737812586,-13.794174719611435,46.477000000013504
311870.3577,20.87292719144643,-1.4426088445025531,30.010181443270376,-25.064794955081783,46.478000000002794
311870.3587,10.357104409900053,-10.586368884147875,19.13715069175694,-35.52220484912933,46.478999999992084
311870.3597,0.6753093077597325,-18.921970016628595,8.781379045932695,-44.811560381838454,46.47999999998137
311870.3607,-7.8836724363903,-26.195065866882196,-0.7608379002952838,-52.621403369519484,46.48100000002887
311870.3617,-15.081474768494608,-32.195745274442494,-9.234585129959354,-58.69260132679275,46.48200000001816
311870.3627,-20.734557724555906,-36.76211980832004,-16.43148988880456,-62.82479785209688,46.48300000000745
311870.3637,-24.716172326908517,-39.7816630884974,-22.19269581171976,-64.88040357615134,46.48399999999674
311870.3647,-26.956197601703625,-41.1906441067,-26.409907832298988,-64.78629071158487,46.48499999998603
311870.3657,-27.439251331643728,-40.97208426116519,-29.02484690258904,-62.53345132297032,46.48600000003353
311870.3667,-26.201513550253278,-39.15270148900066,-30.027487663093,-58.174936112369984,46.48700000002282
311870.3677,-23.32669011044452,-35.799285804106574,-29.453441400466,-51.822406782068015,46.48800000001211
311870.3687,-18.94148915819549,-31.014885099825438,-27.38079704143875,-43.64161507144519,46.4890000000014
311870.3697,-13.210896154283722,-24.935079015267572,-23.926654289068953,-33.847073029266305,46.48999999999069
311870.3707,-6.333426068853167,-17.724495886881353,-19.24348747601086,-22.69611211158369,46.491000000038184
311870.3717,1.4635812941384494,-9.573598833793556,-13.515379541690642,-10.482454700434028,46.492000000027474
311870.3727,9.928661144587627,-0.6956474055064152,-6.954075695375222,2.470647958927666,46.493000000016764
311870.3737,18.791040318268635,8.676355014020567,0.20526281997674323,15.817712380521312,46.494000000006054
311870.3747,27.765744692370177,18.29297953586156,7.708764197273494,29.198787365736408,46.49499999999534
311870.3757,36.55918676285859,27.89222719830446,15.289175230228985,42.247724573370775,46.49599999998463
311870.3767,44.87539879148268,37.20416825526181,22.671947849720326,54.600968992246386,46.49700000003213
311870.3777,52.42301587031646,45.95654505181273,29.582152720657053,65.90683193472134,46.49800000002142
311870.3787,58.92302130149749,53.881415413398784,35.752198811929354,75.83513640266911,46.49900000001071
311870.3797,64.11715350402042,60.722785384204116,40.93022973990256,84.0870385977951,46.5
311870.3807,67.77675138151264,66.24504010428237,44.888953791030225,90.40474009172368,46.50099999998929
311870.3817,69.71169716292397,70.24184447969193,47.434557361448256,94.58072376376562,46.50200000003679
311870.3827,69.77901560429989,72.545066025357,48.41526334866755,96.4660838435673,46.50300000002608
311870.3837,67.89061823793776,73.03318442164534,47.72903755968761,95.97748570129978,46.50400000001537
311870.3847,64.01965068922864,71.63860679173412,45.32992570346664,93.1022915128622,46.50500000000466
311870.3857,58.20491609750427,68.35331156321648,41.232525919550056,87.9014275886674,46.505999999993946
311870.3867,50.552910414768455,63.232299601516644,35.51416812730192,80.50964840182576,46.506999999983236
311870.3877,41.23711348305193,56.394436856260306,28.314478840874163,71.13296785930928,46.508000000030734
311870.3887,30.494326730567966,48.02042112436894,19.832151774973145,60.04317326166525,46.50900000002002
311870.3897,18.618023761771433,38.34778566185334,10.31891059738113,47.5695018045156,46.51000000000931
311870.3907,5.948870824258262,27.66305003646274,0.0708281444043155,34.08773127285663,46.5109999999986
311870.3917,-7.1372349167074445,16.291327606701127,-10.582657554493052,20.007102428636983,46.51199999998789
311870.3927,-20.243085753647204,4.583882588373961,-21.29153014825826,5.755637062486773,46.51300000003539
311870.3937,-32.965373425947654,-7.095717992244238,-31.699153825404938,-8.235469585755869,46.51400000002468
311870.3947,-44.91041699421637,-18.38610452088996,-41.45668319745742,-21.547630514871376,46.51500000001397
311870.3957,-55.70958641157727,-28.942451171533374,-50.23716189823627,-33.79004738204024,46.51600000000326
311870.3967,-65.03360664309287,-38.44986918013254,-57.74855931987887,-44.61354259849667,46.51699999999255
311870.3977,-72.60499225956916,-46.63511454710326,-63.745059741275924,-53.72237551235936,46.51799999998184
311870.3987,-78.20798118378907,-53.27599944735192,-68.03603166400899,-60.883500408828716,46.51900000002934
311870.3997,-81.69549971658283,-58.20806340875497,-70.49225891646395,-65.9328860129874,46.52000000001863
311870.4007,-82.99288622175337,-61.32825817231112,-71.04919697445645,-68.77870235010694,46.521000000007916
311870.4017,-82.09831217424713,-62.5956122850783,-69.7072134149418,-69.40137659981202,46.521999999997206
311870.4027,-79.08004948562368,-62.02904979793503,-66.52896463808332,-67.8507094413438,46.522999999986496
311870.4037,-74.07092500495631,-59.70272417736429,-61.63423626657947,-64.24041223620806,46.52400000003399
311870.4047,-67.2604613895036,-55.739377914849975,-55.19271783102915,-58.74055994863753,46.52500000002328
311870.4057,-58.88531577961523,-50.302338033362915,-47.41528224126547,-51.56854472601141,46.52600000001257
311870.4067,-49.21868580325374,-43.58680012801561,-38.544389873222116,-42.979154345010286,46.52700000000186
311870.4077,-38.55935334904325,-35.81103655919936,-28.844233329466395,-33.25438673084331,46.52799999999115
311870.4087,-27.220982624449157,-27.208091453708473,-18.5911845144033,-22.693549787933158,46.52900000003865
311870.4097,-15.52218773973691,-18.018405153033505,-8.065007834247377,-11.60409272484917,46.53000000002794
311870.4107,-3.7777482956875534,-8.483657086147579,2.4588266198079753,-0.29348261697628975,46.53100000001723
311870.4117,7.708805759002428,1.1580546733670036,12.715543914741664,10.937707511927316,46.53200000000652
311870.4127,18.65117973546731,10.67574858551558,22.45614328700648,21.801479729923606,46.53299999999581
311870.4137,28.78495822892375,19.848011865728147,31.451256377401652,32.02697320730943,46.5339999999851
311870.4147,37.87111614450861,28.4646885559607,39.493995712934854,41.36412131239342,46.535000000032596
311870.4157,45.698686817177325,36.32819249369946,46.40207689596457,49.58668130113547,46.536000000021886
311870.4167,52.08691253474033,43.254851285296354,52.0195264628786,56.49493299128912,46.537000000011176
311870.4177,56.88718957642273,49.07664995108842,56.21827031843766,61.918316389771995,46.538000000000466
311870.4187,59.985061338611175,53.64365540190561,58.899838306077406,65.71821062272504,46.538999999989755
311870.4197,61.3024171313985,56.8272750464714,59.99732662389063,67.7909562678053,46.54000000003725
311870.4207,60.79993268425825,58.52434864995639,59.477642925814166,68.07110244906939,46.54100000002654
311870.4217,58.479655960176586,58.6619090167523,57.34393306606967,66.53473329925626,46.54200000001583
311870.4227,54.38751449190137,57.202292333728195,53.63796865785234,63.20261094612442,46.54300000000512
311870.4237,48.61541373314015,54.148150667255685,48.44217558742441,58.142778638482596,46.54399999999441
311870.4247,41.302523542983266,49.54683236944402,41.88091806490433,51.472210354688535,46.5449999999837
311870.4257,32.635322228743064,43.493562296944546,34.12063013898966,43.35708105009363,46.5460000000312
311870.4267,22.84599045054894,36.13287894422907,25.368411999002223,34.01126891468712,46.54700000002049
311870.4277,12.208821512108745,27.65787019914426,15.86878208775653,23.692786918580477,46.54800000000978
311870.4287,1.0344356028688193,18.30688786212082,5.898393295086479,12.697969763673361,46.54899999999907
311870.4297,-10.338256059634851,8.357602267269819,-4.2413271010203735,1.353403807210885,46.54999999998836
311870.4307,-21.552209112083613,-1.881533255124962,-14.233481727606772,-9.99423238735412,46.551000000035856
311870.4317,-32.244208485505055,-12.0821213479897,-23.756642097583992,-20.990066786483663,46.552000000025146
311870.4327,-42.058139090634825,-21.90847066465023,-32.49694689059899,-31.28415415353343,46.553000000014435
311870.4337,-50.6589175851958,-31.031389692012425,-40.160746328459844,-40.54516344968226,46.554000000003725
311870.4347,-57.74633060516392,-39.14232983790817,-46.48708386220232,-48.47388623577713,46.554999999993015
311870.4357,-63.06797262370645,-45.96701661267796,-51.2592637457703,-54.81578324069708,46.555999999982305
311870.4367,-66.43048670554792,-51.277709284241816,-54.31476945514916,-59.371809971443355,46.5570000000298
311870.4377,-67.70838542727606,-54.903300651930564,-55.55287415463756,-62.006846409526155,46.55800000001909
311870.4387,-66.84986295749387,-56.736604786646396,-54.93941592858057,-62.65519510444326,46.55900000000838
311870.4397,-63.87919309576342,-56.73837101445812,-52.50838763193143,-61.32279597696636,46.55999999999767
311870.4407,-58.89552766196504,-54.93779136703747,-48.360200064164275,-58.08602039774045,46.56099999998696
311870.4417,-52.068147304775216,-51.429516874468916,-42.65670081025026,-53.08713426023167,46.56200000003446
311870.4427,-43.628453020061066,-46.36744427218459,-35.613251072085276,-46.52674113722205,46.56300000002375
311870.4437,-33.85920181999576,-39.95575786147145,-27.488360821588213,-38.65371384834959,46.56400000001304
311870.4447,-23.08166616113617,-32.43789237013868,-18.57154211939394,-29.753279519377585,46.56500000000233
311870.4457,-11.64151936670218,-24.084206494061323,-9.170148229393476,-20.134026622878046,46.56599999999162
311870.4467,0.10569148826879908,-15.179213402110113,0.4039865065970117,-10.114644386975478,46.56699999998091
311870.4477,11.808632142744743,-6.009200093845767,9.847307600200923,-0.011182643651795426,46.568000000028405
311870.4487,23.13304826549569,3.1490151005368014,18.875981889568063,9.874463297889585,46.569000000017695
311870.4497,33.772766520164076,12.03757933339107,27.235431431076584,19.26427430668272,46.570000000006985
311870.4507,43.458360551072204,20.424935261040943,34.707545390194774,27.911642753221518,46.570999999996275
311870.4517,51.963218915891055,28.110775872566265,41.11535476903405,35.60652700888959,46.571999999985565
311870.4527,59.10696738126034,34.928634074217136,46.32516148926855,42.17823324128533,46.57300000003306
311870.4537,64.75640303555723,40.746320165585814,50.246308888671905,47.496020813675194,46.57400000002235
311870.4547,68.8242740093473,45.46458939441636,52.82894782015983,51.46788435865323,46.57500000001164
311870.4557,71.26637097545773,49.01454138692243,54.060276922696524,54.03797722408283,46.57600000000093
311870.4567,72.07747434275475,51.354313276790755,53.95980721615994,55.18319840630708,46.57699999999022
311870.4577,71.28671908147368,52.465624805204264,52.574215174987096,54.90946473939557,46.57800000003772
311870.4587,68.9528984376513,52.35066907746926,49.9723058113566,53.24813433187642,46.57900000002701
311870.4597,65.16013539427546,51.02972584780574,46.240514642895796,50.25294402134382,46.5800000000163
311870.4607,60.014218833428075,48.53971933236849,41.47924630313311,45.99768578455932,46.58100000000559
311870.4617,53.6397461034002,44.933767686898655,35.800193333892544,40.57469094733219,46.58199999999488
311870.4627,46.17805347411036,40.28159650605197,29.32461892621551,34.094034840612025,46.58299999998417
311870.4637,37.785769399079776,34.6705339816961,22.18243994212412,26.68323627983004,46.584000000031665
311870.4647,28.633709458100377,28.206688451717554,14.511827789997337,18.48712187749256,46.585000000020955
311870.4657,18.905759609016663,21.015843612517614,6.458967679192269,9.667466917683026,46.586000000010245
311870.4667,8.797374177894017,13.243600695426188,-1.8224102105867523,0.40201938419304856,46.586999999999534
311870.4677,-1.4866508115720303,5.054351974811533,-10.172088282436441,-9.11743711147324,46.587999999988824
311870.4687,-11.735383676038058,-3.37121904790892,-18.42529290534824,-18.68822722704381,46.58900000003632
311870.4697,-21.73607157488696,-11.840259870740457,-26.415668152893463,-28.101242915114373,46.59000000002561
311870.4707,-31.27954036402636,-20.153458896805134,-33.979316045918345,-37.1466645198394,46.5910000000149
311870.4717,-40.16649536076249,-28.112115908895685,-40.95977171827641,-45.62072343221401,46.59200000000419
311870.4727,-48.21438689857361,-35.52616604815097,-47.21363271719066,-53.33313109827623,46.59299999999348
311870.4737,-55.264380538932095,-42.22260280041959,-52.61643636199745,-60.11467510498171,46.59399999998277
311870.4747,-61.187890799418625,-48.053647686285835,-57.068292778750916,-65.82440458390643,46.59500000003027
311870.4757,-65.89211023249925,-52.9039784587436,-60.49874501189387,-70.35580471819509,46.59600000001956
311870.4767,-69.3239980565086,-56.6963597847719,-62.87034743350989,-73.64139848565783,46.59700000000885
311870.4777,-71.47228350147468,-59.39511991396462,-64.1805296319507,-75.6553114450146,46.59799999999814
311870.4787,-72.36718158852138,-61.007076127789745,-64.46143925753269,-76.41348471533492,46.59899999998743
311870.4797,-72.07770066095783,-61.57971701813171,-63.77762274619029,-75.9714091726364,46.600000000034925
311870.4807,-70.7066247448135,-61.19668216138936,-62.22159195109816,-74.41946293944514,46.601000000024214
311870.4817,-68.38346019040625,-59.97081773403019,-59.907519237725964,-71.87614460466914,46.602000000013504
311870.4827,-65.2558247679057,-58.03530728185954,-56.96348433112667,-68.4796858586062,46.603000000002794
311870.4837,-61.479909490181086,-55.53355868751733,-53.52284488793734,-64.37868040300765,46.603999999992084
311870.4847,-57.21074313657018,-52.60865322504077,-49.715403912265515,-59.72246548641144,46.60499999998137
311870.4857,-52.593025741031454,-49.393217448349695,-45.65908957748675,-54.65202750908016,46.60600000002887
311870.4867,-47.75326506058719,-46.00055698168711,-41.452841040626886,-49.29216911071882,46.60700000001816
311870.4877,-42.79385056171386,-42.51779363750846,-37.17130778824426,-43.74557375754244,46.60800000000745
311870.4887,-37.78954043221586,-39.00158137749894,-32.86182636748244,-38.08924322000845,46.60899999999674
311870.4897,-32.78663193446021,-35.47675660341436,-28.54394900880307,-32.37357727616507,46.60999999998603
311870.4907,-27.80485197115479,-31.938023440104274,-24.211580083442154,-26.624131696493727,46.61100000003353
311870.4917,-22.84176385058054,-28.35450779406129,-19.83754798422836,-20.845851018961735,46.61200000002282
311870.4927,-17.879259746983223,-24.6767591164169,-15.380222506737718,-15.029348584588236,46.61300000001211
311870.4937,-12.891517115087677,-20.84555917963342,-10.791601089083104,-9.158618366654775,46.6140000000014
311870.4947,-7.85365930488058,-16.80173299554601,-6.026148766722128,-3.219428792091425,46.61499999999069
311870.4957,-2.7502892282766456,-12.496063579569817,-1.049599680083419,2.7924192032697928,46.616000000038184
311870.4967,2.416932324067313,-7.8983985950035,4.153079725460418,8.863782389073643,46.617000000027474
311870.4977,7.623414367699526,-3.0051047768356494,9.571302434865133,14.958547552380297,46.618000000016764
311870.4987,12.818073310007636,2.1558302205859152,15.164654853950465,21.01427413948981,46.619000000006054
311870.4997,17.922481019539145,7.5225419346442495,20.86129596820991,26.9414956259895,46.61999999999534
311870.5007,22.832881936487947,13.000120893967958,26.559161248098157,32.62583169817904,46.62099999998463
311870.5017,27.42497875329936,18.464500285433257,32.129928555188144,37.93281177285739,46.62200000003213
311870.5027,31.56113375523856,23.769097148699146,37.425463877372536,42.715066364611644,46.62300000002142
311870.5037,35.099410336633355,28.75366202019263,42.28624997776655,46.821328527243494,46.62400000001071
311870.5047,37.903707227059975,33.254599210972394,46.55113057861269,50.10652256394208,46.625
311870.5057,39.85413271761541,37.115894714151985,50.06759201448055,52.442116382349695,46.62599999998929
311870.5067,40.8567376092721,40.19974225982365,52.701763235513354,53.725886229976915,46.62700000003679
311870.5077,40.85177641749605,42.39599394337888,54.34734684913153,53.89029018068608,46.62800000002608
311870.5087,39.81979171814971,43.629675968984145,54.932794828856885,52.90876469595741,46.62900000001537
311870.5097,37.785004470322335,43.865990762257574,54.426202286137645,50.79943535090738,46.63000000000466
311870.5107,34.815725834518965,43.11245613436693,52.83759546170252,47.625951501448185,46.630999999993946
311870.5117,31.021761390898032,41.418087966545194,50.21851609374899,43.49539467663798,46.631999999983236
311870.5127,26.549032744524546,38.86979043066592,46.65903188462361,38.55344953658704,46.633000000030734
311870.5137,21.571870667095567,35.586352675765625,42.28251049084618,32.97724256786824,46.63400000002002
311870.5147,16.283617258064154,31.710641415755248,37.23866325854059,26.966428115526856,46.63500000000931
311870.5157,10.886295934440993,27.40070791443342,31.695480016177648,20.73321909626607,46.6359999999986
311870.5167,5.580157462523508,22.82058481208107,25.83072847226868,14.49211177407585,46.63699999998789
311870.5177,0.5538849623780094,18.131529739025975,19.823678474275326,8.45003778980572,46.63800000003539
311870.5187,-4.02385460448099,13.484382929425363,13.847636515737799,2.7975963155869477,46.63900000002468
311870.5197,-8.010979226861958,9.013556292945122,8.063749471156026,-2.298115090530301,46.64000000001397
311870.5207,-11.296344028073626,4.83297857493447,2.6163735716153145,-6.698725554059347,46.64100000000326
311870.5217,-13.80175789932162,1.0341062123356652,-2.369876616849666,-10.297720233299271,46.64199999999255
311870.5227,-15.481763111165606,-2.3141051175412564,-6.791464373317479,-13.02151680136156,46.64299999998184
311870.5237,-16.32147203004084,-5.163565439432027,-10.565877026802408,-14.828708023504968,46.64400000002934
311870.5247,-16.33291018193364,-7.484199653955465,-13.630530313787958,-15.707830463820782,46.64500000001863
311870.5257,-15.550415519622288,-9.260423136252326,-15.941053898096667,-15.6741128369809,46.646000000007916
311870.5267,-14.025681732728994,-10.487515929683362,-17.469401065078262,-14.76569610305253,46.646999999997206
311870.5277,-11.823007226196983,-11.168431685928303,-18.202190232009926,-13.039799616969175,46.647999999986496
311870.5287,-9.015225998701926,-11.31148087446417,-18.13960063907269,-10.569237871137362,46.64900000003399
311870.5297,-5.680663045139931,-10.929182204503077,-17.295020180388832,-7.439580284470259,46.65000000002328
311870.5307,-1.9012908072104,-10.038398353703894,-15.695494735289316,-3.747105999124625,46.65100000001257
311870.5317,2.2379165648567425,-8.66168195659291,-13.382873088796673,0.402446574484377,46.65200000000186
311870.5327,6.648607781395378,-6.829576595492642,-10.415397885173475,4.894481937323153,46.65299999999115
311870.5337,11.237982332003266,-4.5834655648227445,-6.869378217198731,9.60577110511507,46.65400000003865
311870.5347,15.907452235299624,-1.978455759856421,-2.8405076768048123,14.404652091871021,46.65500000002794
311870.5357,20.551520219337423,0.9142622932042197,1.5556272036279588,19.151600542451888,46.65600000001723
311870.5367,25.05734896518382,4.006118068226819,6.184264933195639,23.700548301583815,46.65700000000652
311870.5377,29.305428117003274,7.191383837931356,10.89373670006682,27.901259329498767,46.65799999999581
311870.5387,33.17162439905192,10.349230014984233,15.519465866455729,31.602957293960678,46.6589999999851
311870.5397,36.53073771316377,13.347739956672623,19.889706290249272,34.6592488300425,46.660000000032596
311870.5407,39.261499452771154,16.049798853549163,23.832834387089214,36.93421647062414,46.661000000021886
311870.5417,41.25275831461409,18.320554804739714,27.185820780123723,38.309383842393586,46.662000000011176
311870.5427,42.41042438115605,20.035952082894813,29.80334155757526,38.69110189966436,46.663000000000466
311870.5437,42.66460371959875,21.091678251310473,31.56686516362978,38.017786539133745,46.663999999989755
311870.5447,41.976269445208786,21.41176605070278,32.39298373747671,36.26636961304867,46.66500000003725
311870.5457,40.34279233257062,20.95606025930137,32.240256941843356,33.457317125314454,46.66600000002654
311870.5467,37.80169952795698,19.725804709973346,31.113905200048187,29.657624356426275,46.66700000001583
311870.5477,34.43214169152643,17.766723517429657,29.067824078822973,24.98131546177875,46.66800000000512
311870.5487,30.35371812303019,15.1691541249394,26.20358191609524,19.58714600890878,46.66899999999441
311870.5497,25.72252123109915,12.065022256668438,22.66629256203713,13.673416661075926,46.6699999999837
311870.5507,20.724496665999524,8.621709438891031,18.6375039572425,7.470036254463648,46.6710000000312
311870.5517,15.566451491053956,5.033128586960882,14.325488704130766,1.2282019231302328,46.67200000002049
311870.5527,10.465257431857795,1.5085677097424732,9.953542315515854,-4.7917285732828,46.67300000000978
311870.5537,5.635968837991742,-1.7399367737286615,5.7470681983612755,-10.333431083975784,46.67399999999907
311870.5547,1.279688696414231,-4.510796198405268,1.9203395925893652,-15.15802581102528,46.67499999998836
311870.5557,-2.427940475594662,-6.625670205550475,-1.3361327136343286,-19.056813588982937,46.676000000035856
311870.5567,-5.3467754999807235,-7.940923868429496,-3.866735729606194,-21.862478116686017,46.677000000025146
311870.5577,-7.379999975127378,-8.356891047647165,-5.559612199094655,-23.457996069386798,46.678000000014435
311870.5587,-8.479166928808691,-7.82426269631838,-6.352634620223023,-23.78266010340087,46.679000000003725
311870.5597,-8.646100003332162,-6.347144434145642,-6.236110761039478,-22.83483037137361,46.679999999993015
311870.5607,-7.931542741611005,-3.9825897985251077,-5.252086606310056,-20.671270102283216,46.680999999982305
311870.5617,-6.430699600293518,-0.836691045788166,-3.490370222240817,-17.40316946380826,46.6820000000298
311870.5627,-4.276051923901788,2.9424257924438155,-1.081642815950965,-13.189198229235188,46.68300000001909
311870.5637,-1.6280366119053375,7.174123377701163,1.8117687418248642,-8.226132083591747,46.68400000000838
311870.5647,1.335672589604534,11.656535945074667,5.006727001702597,-2.7377533051093836,46.68499999999767
311870.5657,4.431453549588028,16.178743449325562,8.31090202282525,3.03717774018033,46.68599999998696
311870.5667,7.48074940207071,20.532930650518455,11.534323062406473,8.857054566844578,46.68700000003446
311870.5677,10.320016481951475,24.52566367844364,14.500058382960917,14.488871658792588,46.68800000002375
311870.5687,12.80893358430608,27.987526000339773,17.05332432166453,19.71829684518002,46.68900000001304
311870.5697,14.836370034211598,30.780524070456767,19.068483039124473,24.357828130324698,46.69000000000233
311870.5707,16.323816993712146,32.80288388861654,20.453583279931003,28.252679011974443,46.69099999999162
311870.5717,17.226211094421274,33.99109361511732,21.152312507006194,31.28423985301597,46.69199999998091
311870.5727,17.530302013967116,34.31928319671385,21.14344338969897,33.371166833659366,46.693000000028405
311870.5737,17.250916754513305,33.796248948277714,20.438054830960237,34.46833671050236,46.694000000017695
311870.5747,16.425636052609075,32.46061063131041,19.07497145234302,34.56405935173918,46.695000000006985
311870.5757,15.108509028676595,30.37471586104812,17.114982826110257,33.67604837226131,46.695999999996275
311870.5767,13.363481997718091,27.617971627399204,14.634466004169214,31.84670497732892,46.696999999985565
311870.5777,11.258202824517385,24.280281004779766,11.719038111178444,29.138268064624754,46.69800000003306
311870.5787,8.858785546988628,20.456196495824493,8.457811146822278,25.628326641798754,46.69900000002235
311870.5797,6.225989032292092,16.24027758757651,4.938714952939012,21.406085650006162,46.70000000001164
311870.5807,3.4130909906749927,11.723971981584704,1.245207416426607,16.569634795540836,46.70100000000093
311870.5817,0.4655415185998015,6.994144759104549,-2.5454820031978627,11.224306961388816,46.70199999999022
311870.5827,-2.577722254039867,2.1331772772449096,-6.362611318768126,5.48204538817113,46.70300000003772
311870.5837,-5.6816068423774615,-2.779631501466206,-10.140896444775729,-0.5384551008685369,46.70400000002701
311870.5847,-8.811299341548747,-7.665784785613417,-13.81854828728897,-6.7111912689060835,46.7050000000163
311870.5857,-11.928376627406156,-12.444959386617736,-17.334836801025233,-12.902317022292438,46.70600000000559
311870.5867,-14.98719721797426,-17.032605558107225,-20.62769487591993,-18.970095074530875,46.70699999999488
311870.5877,-17.932164524621907,-21.338331913726748,-23.6318691277334,-24.765766084211716,46.70799999998417
311870.5887,-20.696363761912433,-25.265547050276638,-26.278060586964774,-30.13567800954689,46.709000000031665
311870.5897,-23.201931448340773,-28.7126876393844,-28.493382034279886,-34.92488140995569,46.710000000020955
311870.5907,-25.362330133663843,-31.576178324634235,-30.203302029886565,-38.9822243529275,46.711000000010245
311870.5917,-27.086490331580592,-33.75506076586465,-31.335064711591453,-42.16679098121605,46.711999999999534
311870.5927,-28.284568051644698,-35.15701941958039,-31.822388216204732,-44.355340650236364,46.712999999988824
311870.5937,-28.874871890195333,-35.70534250565714,-31.61107300279199,-45.450240248661515,46.71400000003632
311870.5947,-28.791358793531014,-35.346208666497844,-30.665013079467624,-45.38725950499523,46.71500000002561
311870.5957,-27.990999003443218,-34.055599679671936,-28.97201358263679,-44.1425326343412,46.7160000000149
311870.5967,-26.460279454623745,-31.845118086224744,-26.548787858603788,-41.73798905833641,46.71700000000419
311870.5977,-24.22015541529215,-28.76603965563131,-23.44454064004364,-38.24462409739371,46.71799999999348
311870.5987,-21.328869646518967,-24.911050750388103,-19.74263903738834,-33.783113522152796,46.71899999998277
311870.5997,-17.882227073067906,-20.41329934674797,-15.560021474510739,-28.52146307619488,46.72000000003027
311870.6007,-14.011125242564441,-15.442609193493794,-11.04418251318681,-22.66960934991555,46.72100000001956
311870.6017,-9.8763766970841,-10.198948532030554,-6.367780831470082,-16.471131491237188,46.72200000000885
311870.6027,-5.661096484354436,-4.9034849727581,-1.721128380104123,-10.192471985755532,46.72299999999814
311870.6037,-1.5611440250655506,0.21222630290042252,2.6969892400043953,-4.110277151054727,46.72399999998743
311870.6047,2.2257167920972063,4.918203259361767,6.68955611923041,1.502365520730672,46.725000000034925
311870.6057,5.5111582144467075,8.998319253666875,10.071924584197408,6.389910780098814,46.726000000024214
311870.6067,8.127299624335581,12.26204077583865,12.682018028857286,10.327642981467374,46.727000000013504
311870.6077,9.936581370064761,14.554790208588688,14.389409364547886,13.133390049065726,46.728000000002794
311870.6087,10.839785799850697,15.766209126907619,15.10263080404389,14.676896433505119,46.728999999992084
311870.6097,10.781641832035184,15.835763799663496,14.77420893434036,14.886257516625525,46.72999999998137
311870.6107,9.753646811580838,14.75534514771325,13.403097998533397,13.7510332138729,46.73100000002887
311870.6117,7.793963757400044,12.568750931032376,11.034387334979236,11.321900167242497,46.73200000001816
311870.6127,4.984482735558869,9.368176930532837,7.756367439956626,7.706949089246213,46.73300000000745
311870.6137,1.4453511665619059,5.2880650304043915,3.69523442261671,3.0649656403674506,46.73399999999674
311870.6147,-2.6725396450036882,0.49684019382808026,-0.9921223631667385,-2.403769320638222,46.73499999998603
311870.6157,-7.196491033534076,-4.812799930230245,-6.126683829778316,-8.46847665704911,46.73600000003353
311870.6167,-11.941661855856319,-10.434309609953031,-11.51658266127229,-14.879902389504485,46.73700000002282
311870.6177,-16.72075699833124,-16.157697382994513,-16.9664595608279,-21.382575010703842,46.73800000001211
311870.6187,-21.35308677666786,-21.77922986278489,-22.286296504856455,-27.726545980191304,46.7390000000014
311870.6197,-25.672450638747712,-27.109875604002767,-27.299223251078477,-33.67796141225533,46.73999999999069
311870.6207,-29.533445805080895,-31.98208344772208,-31.84792405449229,-39.027956313725056,46.741000000038184
311870.6217,-32.81597303542938,-36.254669084942705,-35.799423949715,-43.59953487538339,46.742000000027474
311870.6227,-35.427888959649096,-39.81576725610663,-39.0481913939406,-47.25228343142612,46.743000000016764
311870.6237,-37.305918852332645,-42.583976198179286,-41.51764003202182,-49.88493877751417,46.744000000006054
311870.6247,-38.41507897467993,-44.507959089833115,-43.1602322876224,-51.43598726197961,46.74499999999534
311870.6257,-38.746951116540615,-45.56486175468556,-43.95647034045497,-51.88258643628239,46.74599999998463
311870.6267,-38.31719636614728,-45.7579494604465,-43.91309940931289,-51.23817264898803,46.74700000003213
311870.6277,-37.162688911109754,-45.1138569643943,-43.060842999243654,-49.54914170633919,46.74800000002142
311870.6287,-35.33859826074878,-43.67978967368019,-41.451944086165675,-46.89096801697342,46.74900000001071
311870.6297,-32.9156594174153,-41.520919957487806,-39.15770905124523,-43.36406795967659,46.75
311870.6307,-29.977759033101837,-38.71810545271368,-36.266155113849294,-39.08962707643567,46.75099999998929
311870.6317,-26.619847660806116,-35.36593226905844,-32.87976168764611,-34.20551218786321,46.75200000003679
311870.6327,-22.946080431919427,-31.570972402621965,-29.113236396373456,-28.862293558194203,46.75300000002608
311870.6337,-19.06800581329067,-27.450056912508675,-25.091140732832518,-23.219322680549705,46.75400000001537
311870.6347,-15.10257602329722,-23.12831658782879,-20.945188563837736,-17.440759267349396,46.75500000000466
311870.6357,-11.169749882329482,-18.736737169842996,-16.81103838779987,-11.691423714699317,46.755999999993946
311870.6367,-7.389500385335227,-14.409018237415603,-12.824447729986918,-6.1323708902290015,46.756999999983236
311870.6377,-3.8781204432656615,-10.277609292602117,-9.116740333053794,-0.9161347310826466,46.758000000030734
311870.6387,-0.7438312596626493,-6.46891373657862,-5.8096442203861836,3.8183266407630665,46.75900000002002
311870.6397,1.9181750186012205,-3.0977874386636146,-3.009678128248467,7.950859893347211,46.76000000000931
311870.6407,4.030999404510311,-0.2615969991393057,-0.8023801338669255,11.385296371127703,46.7609999999986
311870.6417,5.541236881401994,1.9657736297430546,0.7532297087107095,14.054273812702798,46.76199999998789
311870.6427,6.423664032925017,3.539486823007468,1.629494957902947,15.923329757309329,46.76300000003539
311870.6437,6.684926857707155,4.448355254586839,1.8337954706279498,16.993870704142516,46.76400000002468
311870.6447,6.365755918803747,4.717960260878821,1.4105915521797938,17.30463727990945,46.76500000001397
311870.6457,5.541302477707433,4.411819001083942,0.44145953011894606,16.9313460721386,46.76600000000326
311870.6467,4.319305116460651,3.630248969210982,-0.9571395855425234,15.984290829605145,46.76699999999255
311870.6477,2.835952917451303,2.506738406679516,-2.638457790514207,14.603822233116473,46.76799999998184
311870.6487,1.2494954064790946,1.2018240353124239,-4.432340493364482,12.953785240335323,46.76900000002934
311870.6497,-0.26815525144288443,-0.10531348779571659,-6.1541147691796265,11.213162006149513,46.77000000001863
311870.6507,-1.5413960355048788,-1.2271199147726657,-7.615028603685075,9.566330867523034,46.771000000007916
311870.6517,-2.4018819383008725,-1.9792033714228334,-8.633628792818438,8.192492060074343,46.771999999997206
311870.6527,-2.6997334335319336,-2.1923924962429253,-9.047351576312474,7.254914370769054,46.772999999986496
311870.6537,-2.3142169771629044,-1.724485347997052,-8.723540399549858,6.890712412141639,46.77400000003399
311870.6547,-1.163108683928168,-0.47083520456162997,-7.569106822786195,7.2018643270272,46.77500000002328
311870.6557,0.7899875152219158,1.627033179375144,-5.538115538836684,8.24812212434863,46.77600000001257
311870.6567,3.5309725744986222,4.575467781099567,-2.636699052127864,10.042354393744725,46.77700000000186
311870.6577,6.993664651577362,8.325909391792221,1.0751172490515521,12.548701812997429,46.77799999999115
311870.6587,11.061503857207912,12.775581008192114,5.48488677779943,15.683731992816796,46.77900000003865
311870.6597,15.572524443235787,17.771689402262602,10.432485270680292,19.32056740100676,46.78000000002794
311870.6607,20.32732929724134,23.11892309945091,15.717867968707266,23.295745797881022,46.78100000001723
311870.6617,25.099578942501118,28.58978564593214,21.111366697439774,27.418374456420384,46.78200000000652
311870.6627,29.64832035850505,33.9370912707164,26.3658724766294,31.480973743834866,46.78299999999581
311870.6637,33.73134509110171,38.907789301178944,31.230117911728048,35.271285937506086,46.7839999999851
311870.6647,37.11869222318991,43.2571870979508,35.46220153194876,38.58426104099336,46.785000000032596
311870.6657,39.605405524594936,46.76261655325806,38.842488532011124,41.233427748180226,46.786000000021886
311870.6667,41.02271556715155,49.23563804265233,41.18507884143921,43.06091439953536,46.787000000011176
311870.6677,41.24694129598185,50.531993721679434,42.347148710026126,43.945496617396415,46.788000000000466
311870.6687,40.20558098032409,50.55869911990536,42.2356360616661,43.80820563887728,46.788999999989755
311870.6697,37.88027502123151,49.27788321796693,40.81093901920687,42.615220900855164,46.79000000003725
311870.6707,34.30655532046464,46.70723420520847,38.08751500229232,40.37797641346037,46.79100000002654
311870.6717,29.570528990870933,42.91716056917111,34.13148724504552,37.150615995713736,46.79200000001583
311870.6727,23.80285947589081,38.025014498245355,29.05556932590531,33.02512093301827,46.79300000000512
311870.6737,17.170588725456014,32.18692771595943,23.011790836089734,28.124590108121897,46.79399999999441
311870.6747,9.867476126685771,25.587962830424843,16.182635977364882,22.59526510493563,46.7949999999837
311870.6757,2.1036038042486482,18.431374515947287,8.771282840596927,16.597953011360683,46.7960000000312
311870.6767,-5.904990943573956,10.927798158663153,0.9916500150805079,10.299503999006557,46.79700000002049
311870.6777,-13.945946233539416,3.285138672250708,-6.941080591066176,3.864950368408249,46.79800000000978
311870.6787,-21.81886647207335,-4.3001754441175555,-14.818885239707484,-2.5491855994300545,46.79899999999907
311870.6797,-29.341823470038708,-11.650067200072371,-22.447816513236408,-8.800046048555052,46.79999999998836
311870.6807,-36.355801697047795,-18.609505804311308,-29.653132189635496,-14.761849582032164,46.801000000035856
311870.6817,-42.727019904201775,-25.04892574128407,-36.28252564851517,-20.32753123784762,46.802000000025146
311870.6827,-48.347256099255034,-30.864487949540884,-42.207524494102444,-25.408750215713333,46.803000000014435
311870.6837,-53.132476526859236,-35.97649289691371,-47.32328346808938,-29.934553699054536,46.804000000003725
311870.6847,-57.02020634442408,-40.32640917936585,-51.54712657626265,-33.84909909400544,46.804999999993015
311870.6857,-59.96616790381923,-43.87308304483231,-54.81628042651418,-37.108905964324954,46.805999999982305
311870.6867,-61.940744262551036,-46.58873503889416,-57.08527865714487,-39.68012654188058,46.8070000000298
311870.6877,-62.92579835437614,-48.45532664024717,-58.323503174229515,-41.53628840141092,46.80800000001909
311870.6887,-62.91229537635793,-49.46179531950894,-58.51326380223343,-42.65687824789094,46.80900000000838
311870.6897,-61.899046084101926,-49.60251992195244,-57.64871084173666,-43.027010218707474,46.80999999999767
311870.6907,-59.89272527316331,-48.87720388215703,-55.7357362211978,-42.638268345381206,46.81099999998696
311870.6917,-56.90913975955053,-47.292169701482266,-52.792863081691515,-41.4906466942011,46.81200000003446
311870.6927,-52.97554259289646,-44.862864735430676,-48.85296738648449,-39.59534972877101,46.81300000002375
311870.6937,-48.13363404404167,-41.617206214281545,-43.965535494520246,-36.978077079589426,46.81400000001304
311870.6947,-42.44277222571448,-37.599261221677764,-38.19905418636835,-33.682316793441174,46.81500000000233
311870.6957,-35.9828504679394,-32.87267989880004,-31.643066955397256,-29.7721213783069,46.81599999999162
311870.6967,-28.85629307451369,-27.523286809635827,-24.40942063599358,-25.333848787224486,46.81699999998091
311870.6977,-21.188678043232667,-21.660289099901096,-16.632272438557123,-20.476417357491606,46.818000000028405
311870.6987,-13.127610540406923,-15.415676845338268,-8.466526244155752,-15.329745025031366,46.819000000017695
311870.6997,-4.839634100645727,-8.941560295481501,-0.08451005647913233,-10.041208496153498,46.820000000006985
311870.7007,3.494837733227571,-2.4053944785212145,8.329119521078965,-4.770152266489425,46.820999999996275
311870.7017,11.688377381519201,4.016736296099064,16.584071918565236,0.3193182076765142,46.821999999985565
311870.7027,19.55479304135928,10.148385348439241,24.49235929800093,5.06683053504715,46.82300000003306
311870.7037,26.9182048734259,15.821985186232371,31.876958865701706,9.324933631584273,46.82400000002235
311870.7047,33.62225299347123,20.888346845448144,38.58056591299788,12.968270524564096,46.82500000001164
311870.7057,39.53867661840359,25.225623685726603,44.47373894666664,15.901970591604318,46.82600000000093
311870.7067,44.574507518117606,28.746943289701193,49.46173798002984,18.068509868897454,46.82699999999022
311870.7077,48.67719694708808,31.405984401099495,53.48942309737746,19.452372650502408,46.82800000003772
311870.7087,51.83713890945953,33.19992094373582,56.543709296769904,20.081997856286623,46.82900000002701
311870.7097,54.08725276401987,34.1693605267615,58.6532556991398,20.02869799450845,46.8300000000163
311870.7107,55.49952792594552,34.39515279580946,59.885287425068526,19.402479960311624,46.83100000000559
311870.7117,56.17869170048534,33.99221136323146,60.339687647350445,18.34495443178673,46.83199999999488
311870.7127,56.25341475030119,33.10075722521113,60.14073405512276,17.01977127141914,46.83299999998417
311870.7137,55.86569391396947,31.875626812127237,59.42706640111497,15.601239251618482,46.834000000031665
311870.7147,55.159227724585335,30.47447163260196,58.34063984847833,14.261959000898848,46.835000000020955
311870.7157,54.267708826592845,29.045790797125317,57.01552602118677,13.160401927265983,46.836000000010245
311870.7167,53.30398815993902,27.717770680175068,55.56745876211455,12.429394418070137,46.836999999999534
311870.7177,52.351013828567226,26.58885314373572,54.08497976295036,12.166412080280521,46.837999999988824
311870.7187,51.455316025939126,25.720818573070318,52.62292254455206,12.426456687767306,46.83900000003632
311870.7197,50.623608604464096,25.13496365254471,51.19879071389816,13.218089413473631,46.84000000002561
311870.7207,49.82282468300567,24.811694283111784,49.792353162518936,14.502944596579152,46.8410000000149
311870.7217,48.983619946713645,24.69356441682208,48.34851493702269,16.19877019947576,46.84200000000419
311870.7227,48.00708792554708,24.69149798504993,46.783251021836506,18.185758502516382,46.84299999999348
311870.7237,46.77416221836458,24.69366021503414,44.99213528756232,20.31566826493168,46.84399999998277
311870.7247,45.156955366522965,24.57622115189684,42.86078109888704,22.423020549743196,46.84500000003027
311870.7257,43.031122907062695,24.215098411888548,40.27635273596107,24.337493667249984,46.84600000001956
311870.7267,40.2882581602628,23.49769196484365,37.13922164553876,25.89656139164853,46.84700000000885
311870.7277,36.847325342471535,22.333637183379075,33.373835623468395,26.95741879486736,46.84799999999814
311870.7287,32.664224514937786,20.663701244458018,28.937941923000484,27.407320108612883,46.84899999998743
311870.7297,27.73874277608952,18.466121867781304,23.82944921922236,27.171603935220418,46.850000000034925
311870.7307,22.11836624429371,15.759918958655216,18.090414064886424,26.21888741934827,46.851000000024214
311870.7317,15.898685837675078,12.60497641607716,11.80787566581982,24.563152424555433,46.852000000013504
311870.7327,9.220402671195203,9.098967703948228,5.1115161949326104,22.26270042109702,46.853000000002794
311870.7337,2.263201470741803,5.3714589914654765,-1.8316305702765123,19.416195449305473,46.853999999992084
311870.7347,-4.763010025792523,1.575744243881573,-8.824983210430426,16.156224941293445,46.85499999998137
311870.7357,-11.628819921229086,-2.1208713512586823,-15.652120922914365,12.640969180286062,46.85600000002887
311870.7367,-18.09720054962958,-5.547532399421064,-22.087678089425523,9.044670193071509,46.85700000001816
311870.7377,-23.93573582743777,-8.540217034833415,-27.908663168034597,5.547624900141315,46.85800000000745
311870.7387,-28.92838537777231,-10.951280974455013,-32.905461088151895,2.3263971370431573,46.85899999999674
311870.7397,-32.88607437258479,-12.657522944439291,-36.89185786400203,-0.45514331720795453,46.85999999998603
311870.7407,-35.65553887419606,-13.566304569450084,-39.713552072487055,-2.653476289043403,46.86100000003353
311870.7417,-37.12603010495664,-13.619458849914269,-41.25477456682548,-4.151459480112382,46.86200000002282
311870.7427,-37.23366877916425,-12.794929992644112,-41.44280799072668,-4.862573172720605,46.86300000001211
311870.7437,-35.96342386118129,-11.106282707330115,-40.25036421729159,-4.733382421408378,46.8640000000014
311870.7447,-33.348852461135664,-8.60038286928262,-37.69592567070219,-3.744352023099241,46.86499999999069
311870.7457,-29.469866293735326,-5.353669785247642,-33.84227392772213,-1.9092496549719913,46.866000000038184
311870.7467,-24.448877114081625,-1.4675048384151212,-28.793508696087823,0.7265678399947033,46.867000000027474
311870.7477,-18.44571578288323,2.9369102527366824,-22.690899548426565,4.088672332667364,46.868000000016764
311870.7487,-11.651718979356769,7.723596317449569,-15.707913438723649,8.076594615326096,46.869000000006054
311870.7497,-4.28334019077068,12.746479143479382,-8.044728646497951,12.567127236396095,46.86999999999534
311870.7507,3.424423205279705,17.853448289662538,0.07751116182813099,17.41773357687143,46.87099999998463
311870.7517,11.22457588223284,22.88968327482617,8.42252042073797,22.469979628302138,46.87200000003213
311870.7527,18.8645177338295,27.700271769118064,16.744665407982406,27.552985451875486,46.87300000002142
311870.7537,26.092236350329536,32.13226236165387,24.7946895100058,32.486960668904594,46.87400000001071
311870.7547,32.66231186970456,36.03638373570624,32.32538471536573,37.08693380876465,46.875
311870.7557,38.34178427215569,39.268713117204754,39.09725595557347,41.1668030332639,46.87599999998929
311870.7567,42.91594226395357,41.692584426363055,44.884231679634816,44.54382311654145,46.87700000003679
311870.7577,46.19407358066948,43.18099011191305,49.47945507277377,47.04360153516468,46.87800000002608
311870.7587,48.01517179742101,43.619654325800724,52.701148045507225,48.50560940537298,46.87900000001537
311870.7597,48.253530628447905,42.91084728598279,54.39847972517457,48.78912797557755,46.88000000000466
311870.7607,46.824081757810795,40.97788315949149,54.457300129283496,47.77945780552932,46.880999999993946
311870.7617,43.68725658514166,37.770110603395494,52.80552696678063,45.39412627346569,46.881999999983236
311870.7627,38.85308656302014,33.26808112316831,49.417908723047645,41.58875052111704,46.883000000030734
311870.7637,32.38421115084899,27.488479946823126,44.319839641941236,36.362157415392616,46.88400000002002
311870.7647,24.397445276094917,20.488339455151277,37.58987995035555,29.76033777876716,46.88500000000931
311870.7657,15.063575453204354,12.36803538377063,29.36064356126482,21.878824529193047,46.8859999999986
311870.7667,4.605107941688076,3.272595850251382,19.817758594867733,12.863135672394051,46.88699999998789
311870.7677,-6.7082175953637995,-6.6090671706748845,9.196683165702407,2.907011863304342,46.88800000003539
311870.7687,-18.566214416432114,-17.047269799356965,-2.2227336087106115,-7.751700573227367,46.88900000002468
311870.7697,-30.627256769128184,-27.777117393227154,-14.12392432499498,-18.837525054368157,46.89000000001397
311870.7707,-42.52927613006589,-38.50643796828447,-26.16334350392121,-30.046034185245038,46.89100000000326
311870.7717,-53.90235798729906,-48.92582138764593,-37.98196121478102,-41.054420140084176,46.89199999999255
311870.7727,-64.38241226284974,-58.720318061608516,-49.21805786015408,-51.533497017057705,46.89299999998184
311870.7737,-73.6252788958405,-67.58219741507857,-59.52075150493859,-61.160555825580964,46.89400000002934
311870.7747,-81.32055729800963,-75.22405360778214,-68.56360541293147,-69.63240875523756,46.89500000001863
311870.7757,-87.2044225082439,-81.39148509231948,-76.0576208617953,-76.6779198481715,46.896000000007916
311870.7767,-91.07071632143249,-85.8745723191859,-81.7629241578342,-82.06932870834966,46.896999999997206
311870.7777,-92.77967862296053,-88.51743591886363,-85.49850865825825,-85.63173296720733,46.897999999986496
311870.7787,-92.26380845475492,-89.22527238742974,-87.14949018477014,-87.25020029661145,46.89900000003399
311870.7797,-89.53050775155059,-87.96842704087929,-86.67147133274088,-86.8741243720083,46.90000000002328
311870.7807,-84.66135160136665,-84.78326189023444,-84.0917773761412,-84.518610656203,46.90100000001257
311870.7817,-77.80803324735685,-79.76979311093699,-79.5075117123074,-80.26286417255862,46.90200000000186
311870.7827,-69.1852345289257,-73.08629122425702,-73.08056847383527,-74.24573829743211,46.90299999999115
311870.7837,-59.0608577182279,-64.94123912939736,-65.02991996940011,-66.65877670631708,46.90400000003865
311870.7847,-47.74420865635041,-55.58321230567721,-55.621653569925854,-57.73722677112926,46.90500000002794
311870.7857,-35.57283205782602,-45.289368284643935,-45.15735484311867,-47.74961095927807,46.90600000001723
311870.7867,-22.89875954873504,-34.35329934428181,-33.96151217425356,-36.98650528082665,46.90700000000652
311870.7877,-10.074935259626603,-23.0730086355724,-22.368647285738206,-25.749186500216613,46.90799999999581
311870.7887,2.557467042605132,-11.739716229387675,-10.710854469123165,-14.338772753323354,46.9089999999851
311870.7897,14.680222308043556,-0.6280937306367376,0.6936383320386365,-3.0463996565259825,46.910000000032596
311870.7907,26.00725707923257,10.011625236434021,11.550384428867744,7.855145890363672,46.911000000021886
311870.7917,36.29157624853044,19.95939177018233,21.59674906582587,18.11805785006536,46.912000000011176
311870.7927,45.32979654121665,29.028871257106925,30.60785552452025,27.52429097250495,46.913000000000466
311870.7937,52.964349969061985,37.068868043978185,38.400409558457426,35.8885262257671,46.913999999989755
311870.7947,59.08358199891157,43.962921232705284,44.83451702901305,43.05949880436922,46.91500000003725
311870.7957,63.62009792451113,49.62747368523883,49.81373694591569,48.91997607035937,46.91600000002654
311870.7967,66.54779640230677,54.00909391191901,53.28370414939033,53.3857445165143,46.91700000001583
311870.7977,67.87806519862197,57.08125375355016,55.229705701388326,56.40399251293509,46.91800000000512
311870.7987,67.65559980018287,58.84113332422898,55.673600238930504,57.95145824647313,46.91899999999441
311870.7997,65.95424468823444,59.3068437729761,54.67043233862329,58.03265357618934,46.9199999999837
311870.8007,62.873158493623315,58.51533825676199,52.30502104191562,56.678382473683904,46.9210000000312
311870.8017,58.533480456212175,56.52113624662028,48.688703510551484,53.94465872460904,46.92200000002049
311870.8027,53.07554162724428,53.39583255794554,43.956304351485514,49.91200536198728,46.92300000000978
311870.8037,46.65653604087551,49.228217747786154,38.26329273120567,44.68500249190401,46.92399999999907
311870.8047,39.448459874653636,44.12471720686571,31.782996947901378,38.391854729794794,46.92499999998836
311870.8057,31.63605329616148,38.20977614472352,24.703681762094423,31.183686239969745,46.926000000035856
311870.8067,23.414449357450426,31.625786314271174,17.225266391035145,23.23324878183633,46.927000000025146
311870.8077,14.986251217597347,24.532172108724758,9.555475227431504,14.732750215294233,46.928000000014435
311870.8087,6.557822002359947,17.103327166413532,1.905268668815855,5.890576637109901,46.929000000003725
311870.8097,-1.665325812204337,9.525210668794191,-5.516507510923257,-3.073215259891176,46.929999999993015
311870.8107,-9.484023859596693,1.990562852782914,-12.509199107708229,-11.932628344573871,46.930999999982305
311870.8117,-16.711662686719972,-5.307134252803612,-18.886962881221503,-20.462526442709855,46.9320000000298
311870.8127,-23.180826521208377,-12.180660546394474,-24.485619529812013,-28.446214206768456,46.93300000001909
311870.8137,-28.74992801303511,-18.456592152926348,-29.169326213161447,-35.683379908430496,46.93400000000838
311870.8147,-33.30934114359918,-23.982826434554408,-32.83658383674343,-41.99789615517004,46.93499999999767
311870.8157,-36.78649743158283,-28.635502592776724,-35.42506931193911,-47.24492892142837,46.93599999998696
311870.8167,-39.149433236455714,-32.324726298220575,-36.91481045664039,-51.316812535915886,46.93700000003446
311870.8177,-40.40835547223375,-34.99857114837998,-37.3293022622917,-54.14720910010175,46.93800000002375
311870.8187,-40.614924357878884,-36.64495054937199,-36.73429324729256,-55.71318137518422,46.93900000001304
311870.8197,-39.85912416210478,-37.291120458196424,-35.23413937005314,-56.034959361606994,46.94000000000233
311870.8207,-38.26379073451238,-37.000770909577284,-32.96581575753698,-55.173359129494784,46.94099999999162
311870.8217,-35.977069232451015,-35.868873506970466,-30.090875464595985,-53.225001422776884,46.94199999998091
311870.8227,-33.1632668018519,-34.014652613526046,-26.785830415880724,-50.31565923954611,46.943000000028405
311870.8237,-29.992723687827482,-31.573219841664624,-23.231583974046192,-46.592220456428066,46.944000000017695
311870.8247,-26.63143562760737,-28.686537106394123,-19.602651062798937,-42.213868210939275,46.945000000006985
311870.8257,-23.231208069443372,-25.494439739429186,-16.056948397714688,-37.3431464339525,46.945999999996275
311870.8267,-19.921102080621317,-22.12645034480068,-12.726917461799113,-32.13758371698811,46.946999999985565
311870.8277,-16.80084248608156,-18.695045039846235,-9.712655862118341,-26.742494236017517,46.94800000003306
311870.8287,-13.936707111863623,-15.29090193669496,-7.077584398663179,-21.285464103418033,46.94900000002235
311870.8297,-11.36021437754146,-11.980478846363035,-4.846979263896799,-15.872875037433134,46.95000000001164
311870.8307,-9.069692290754233,-8.806050050213038,-3.0094679063919316,-10.588628894857496,46.95100000000093
311870.8317,-7.0345659950631845,-5.788100989488903,-1.521343335498106,-5.495033879269826,46.95199999999022
311870.8327,-5.20196577462201,-2.929756926900291,-0.3133167421669106,-0.6356151407391261,46.95300000003772
311870.8337,-3.5050545871405445,-0.22272859727217253,0.7008764252180293,3.960562218768111,46.95400000002701
311870.8347,-1.8723228397931317,2.345886468986191,1.6147575106194334,8.273604366315572,46.9550000000163
311870.8357,-0.23701272667677115,4.786689473747259,2.5191055620525655,12.287162494318036,46.95600000000559
311870.8367,1.454176531619536,7.101704922113254,3.4925306467299535,15.983118265278021,46.95699999999488
311870.8377,3.2338862226608183,9.279433054382604,4.593417451880282,19.33718811321986,46.95799999998417
311870.8387,5.109046773436307,11.29178818183171,5.8539127557837665,22.315952870681986,46.959000000031665
311870.8397,7.058432320332213,13.093295085810338,7.276447766329699,24.875669629382536,46.960000000020955
311870.8407,9.033042209720747,14.62269242812202,8.833062247909604,26.96303895785367,46.961000000010245
311870.8417,10.959277769747114,15.80685311118497,10.467552416633621,28.517900559517432,46.961999999999534
311870.8427,12.744634528325808,16.56669986420473,12.100221207142127,29.47763365628277,46.962999999988824
311870.8437,14.285409101470536,16.824592460756058,13.63478972757872,29.782863880558786,46.96400000003632
311870.8447,15.475746189830526,16.512510385311884,14.966851991103466,29.383942944510796,46.96500000002561
311870.8457,16.21723974256416,15.58026605511044,15.993136384785709,28.247583496822358,46.9660000000149
311870.8467,16.428262484203156,14.00296713704107,16.620786044248536,26.363006798065374,46.96700000000419
311870.8477,16.0522318452601,11.787003257723988,16.77588901905509,23.746996678811005,46.96799999999348
311870.8487,15.064123109516885,8.973956559887403,16.410573890948886,20.447345312139973,46.96899999998277
311870.8497,13.47470117735104,5.642014771841286,15.508127380347505,16.54431493489865,46.97000000003027
311870.8507,11.332144554420017,1.9046823115517881,14.08577264596814,12.14991087675142,46.97100000001956
311870.8517,8.720959448797029,-2.0931812567784682,12.19495241487623,7.404948461411078,46.97200000000885
311870.8527,5.758307240188033,-6.181737269067361,9.91917035056132,2.474081853172265,46.97299999999814
311870.8537,2.5880747470936347,-10.174497507056818,7.3696382466993935,-2.4608702577517687,46.97399999998743
311870.8547,-0.6268141409091771,-13.877987457843872,4.6791390472984755,-7.208833827522257,46.975000000034925
311870.8557,-3.7132284769753126,-17.102022374870504,1.9946333794706692,-11.57806632909462,46.976000000024214
311870.8567,-6.497125680852897,-19.669839631747454,-0.5307979453443737,-15.384826497301303,46.977000000013504
311870.8577,-8.81263866211039,-21.427362360666404,-2.746073999540611,-18.461547303036998,46.978000000002794
311870.8587,-10.510341925167639,-22.25096321654784,-4.509739127158145,-20.663997182269295,46.978999999992084
311870.8597,-11.464194698956373,-22.053242829498625,-5.6966263512579625,-21.87702081148879,46.97999999998137
311870.8607,-11.576806567587722,-20.786520003425565,-6.203215672520034,-22.018586989721403,46.98100000002887
311870.8617,-10.782839092991015,-18.44393179157218,-5.951488234688501,-21.042023357467507,46.98200000001816
311870.8627,-9.050528080071102,-15.058241730655526,-4.891225795585575,-18.93647054867106,46.98300000000745
311870.8637,-6.381468415117114,-10.698634840147465,-3.000842492182468,-15.725727117671036,46.98399999999674
311870.8647,-2.808931886812185,-5.465922010862642,-0.2869490811694502,-11.465768237204266,46.98499999998603
311870.8657,1.604923280061938,0.5133283576339945,3.217071612415966,-6.241295870784262,46.98600000003353
311870.8667,6.772550983042644,7.093174440879382,7.4531615215207605,-0.16171011289872472,46.98700000002282
311870.8677,12.584830518824797,14.114662081864143,12.341044298362888,6.6431204627379445,46.98800000001211
311870.8687,18.9148524232574,21.411695473343446,17.780773403600193,14.026963705252744,46.9890000000014
311870.8697,25.62142164204235,28.816064380296186,23.655176451073455,21.830962743449785,46.98999999999069
311870.8707,32.55213297480505,36.16141811153682,29.832094907874797,29.88687299551436,46.991000000038184
311870.8717,39.545992412106486,43.286131700018366,36.16641881423578,38.019774652579756,46.992000000027474
311870.8727,46.43566982889677,50.035159237655535,42.502009593323265,46.0503446996879,46.993000000016764
311870.8737,53.04955935634234,56.2610963548975,48.67367763566742,53.7968598913907,46.994000000006054
311870.8747,59.21388226363449,61.82476463255291,54.50942513543112,61.077159523326124,46.99499999999534
311870.8757,64.75508602490032,66.59567579929191,59.83317234586493,67.71081742765944,46.99599999998463
311870.8767,69.50276991544618,70.45272868457917,64.46815516278035,73.52175382430472,46.99700000003213
311870.8777,73.2933044723279,73.28543845998777,68.24111647055777,78.34146151966353,46.99800000002142
311870.8787,75.97421659462437,74.99590245761293,70.98731991979662,82.01293378571063,46.99900000001071
311870.8797,77.4092948393941,75.50158107220152,72.55630302071307,84.39527293077803,47.0
311870.8807,77.48424400153527,74.73883045517944,72.81816907340688,85.36884136575611,47.00099999998929
311870.8817,76.11259882237296,72.66698210228483,71.67010777145323,84.84070424475838,47.00200000003679
311870.8827,73.24150767131586,69.27263922889348,69.04274499976906,82.75001758128552,47.00300000002608
311870.8837,68.85693042926296,64.57376558052151,64.90586425743486,79.07294953800508,47.00400000001537
311870.8847,62.9877696314051,58.62309050925196,59.273023240110014,73.82669401103527,47.00500000000466
311870.8857,55.708475283991234,51.510352004363476,52.2046137357173,67.07214968902804,47.005999999993946
311870.8867,47.13973224174938,43.3629491945156,43.808981369669084,58.91489531960265,47.006999999983236
311870.8877,37.446950600823335,34.34467473179868,34.241329991763926,49.50418953220396,47.008000000030734
311870.8887,26.836425905722656,24.652337539290297,23.700275887798565,39.02985379864684,47.00900000002002
311870.8897,15.549205162496477,14.510255483977303,12.422078564925442,27.717049131491567,47.01000000000931
311870.8907,3.8528721984587366,4.162780275887418,0.6727443355267805,15.819117680395104,47.0109999999986
311870.8917,-7.968363965524924,-6.134803819975085,-11.261638122543973,3.6088150329273674,47.01199999998789
311870.8927,-19.62474698400989,-16.126507305151662,-23.085828951397396,-8.631606559663442,47.01300000003539
311870.8937,-30.832576531513652,-25.566366567963197,-34.507025454608694,-20.620902451950702,47.01400000002468
311870.8947,-41.32563446491879,-34.22898370367764,-45.24643382132032,-32.089307563874044,47.01500000001397
311870.8957,-50.86572440002277,-41.9191647041304,-55.05013714789619,-42.78834745704205,47.01600000000326
311870.8967,-59.251665916034085,-48.47999129311484,-63.69861268163863,-52.49940253406741,47.01699999999255
311870.8977,-66.32618967107072,-53.79876570779421,-71.01434236312294,-61.04053047899435,47.01799999998184
311870.8987,-71.98033132751536,-57.810422222572484,-76.86709630811148,-68.27118434590123,47.01900000002934
311870.8997,-76.15510804914847,-60.49819133858134,-81.17663805433484,-74.0946258728458,47.02000000001863
311870.9007,-78.84046577029291,-61.891515683454706,-83.91278921979973,-78.45801139755326,47.021000000007916
311870.9017,-80.07169076951388,-62.06143184142712,-85.09298369482198,-81.35030526310938,47.021999999997206
311870.9027,-79.92366720874259,-61.11383006373818,-84.77762105033136,-82.79833672986004,47.022999999986496
311870.9037,-78.50351639051128,-59.181165884224995,-83.06367984983999,-82.86144641973569,47.02400000003399
311870.9047,-75.94225959091334,-56.41330893978919,-80.077160769435,-81.62525529244526,47.02500000002328
311870.9057,-72.38619476849972,-52.96826421543695,-75.96498733263753,-79.19512520095388,47.02600000001257
311870.9067,-67.98866385184417,-49.003484650465744,-70.88699381499626,-75.6898621850522,47.02700000000186
311870.9077,-62.90281312593619,-44.668412993571934,-65.00857586597878,-71.23614408129657,47.02799999999115
311870.9087,-57.27582173135646,-40.09875267003499,-58.49447532287647,-65.96404011262516,47.02900000003865
311870.9097,-51.244904922886626,-35.41278550545298,-51.50402706157361,-60.00384367674981,47.03000000002794
311870.9107,-44.93520602783779,-30.709846076133935,-44.1880269059339,-53.484275700913784,47.03100000001723
311870.9117,-38.45949300416978,-26.070848525567918,-36.68720244964605,-46.53195162018462,47.03200000000652
311870.9127,-31.9193917517278,-21.560562868631795,-29.13210081577496,-39.271857338533735,47.03299999999581
311870.9137,-25.40773716374548,-17.23117365046206,-21.644065643566044,-31.828463894872,47.0339999999851
311870.9147,-19.011519402830864,-13.126540490892694,-14.336874066841004,-24.327039194999532,47.035000000032596
311870.9157,-12.814857353833705,-9.28652863120734,-7.318553149372129,-16.89469576239056,47.036000000021886
311870.9167,-6.901448074155534,-5.750792995241996,-0.6928990188806592,-9.660748291211558,47.037000000011176
311870.9177,-1.3560183713706915,-2.561479615661345,5.43972006418694,-2.7560404458699326,47.038000000000466
311870.9187,3.7355658026479546,0.23555490519877365,10.982589758844549,3.688971961299273,47.038999999989755
311870.9197,8.287708250622936,2.591226150499209,15.84407594225911,9.547437892045373,47.04000000003725
311870.9207,12.217996618251298,4.455424294466348,19.94025950837088,14.700515961665692,47.04100000002654
311870.9217,15.451418170896282,5.780747973320664,23.19862156884884,19.04269219480798,47.04200000001583
311870.9227,17.92550214411318,6.5273942079396825,25.562468940125214,22.48759579704388,47.04300000000512
311870.9237,19.595878775336242,6.668679420497321,26.9956684141907,24.973796688319602,47.04399999999441
311870.9247,20.441661472199762,6.1965701742992,27.48718066709769,26.470016942401664,47.0449999999837
311870.9257,20.470035149569323,5.126569054604348,27.05485935574171,26.979192893854677,47.0460000000312
311870.9267,19.71947360974048,3.501334831795229,25.748011246744937,26.54088633466545,47.04700000002049
311870.9277,18.261108675646813,1.3925137958243268,23.648296759902106,25.231657098636468,47.04800000000978
311870.9287,16.19792442346206,-1.0995882735566376,20.868679441082943,23.163165463545567,47.04899999999907
311870.9297,13.661637154805836,-3.8486711433201686,17.550295481768053,20.47795711187754,47.04999999998836
311870.9307,10.807328032188265,-6.707404961040972,13.857295124896515,17.343079077646937,47.051000000035856
311870.9317,7.8061011191051675,-9.514441265628628,9.969889592378006,13.9418642604345,47.052000000025146
311870.9327,4.836225545553855,-12.103019061289778,6.076002947545782,10.464387381188256,47.053000000014435
311870.9337,2.0733691953183953,-14.310554887519302,2.362062549251829,7.09722153929356,47.054000000003725
311870.9347,-0.3193712638084057,-15.988498447630429,-0.9964480483985362,4.013200199140077,47.054999999993015
311870.9357,-2.2009021881317308,-17.011690680772784,-3.8440121378033205,1.3619074287666781,47.055999999982305
311870.9367,-3.4603118361864285,-17.286483479428366,-6.053035478564239,-0.7384224007439844,47.0570000000298
311870.9377,-4.023170453918655,-16.756967738725095,-7.530163904176594,-2.20701217625679,47.05800000001909
311870.9387,-3.8554687329547073,-15.40880136249422,-8.220513285797413,-3.004219674304509,47.05900000000838
311870.9397,-2.9648964556642965,-13.270318412251749,-8.109520869562516,-3.132530076204105,47.05999999999767
311870.9407,-1.3993732934469423,-10.410818023389702,-7.222309617065552,-2.634810859872925,47.06099999998696
311870.9417,0.7570388889077367,-6.936157890273014,-5.620648074239228,-1.5899830206081933,47.06200000003446
311870.9427,3.3905070704435447,-2.981992214682703,-3.3977711776940556,-0.10645567936057851,47.06300000002375
311870.9437,6.365569821277009,1.2948207424277631,-0.6714867678268137,1.6861650353786617,47.06400000001304
311870.9447,9.534408075902213,5.725977016220779,2.423884994116565,3.646460783486535,47.06500000000233
311870.9457,12.746523779105997,10.14190516581147,5.746116764841225,5.630978652630131,47.06599999999162
311870.9467,15.858091571031567,14.381601291178395,9.153578916298594,7.5036895901193015,47.06699999998091
311870.9477,18.740296464479485,18.30140604747079,12.513031517589377,9.144462126186369,47.068000000028405
311870.9487,21.286075774718963,21.782117391170264,15.706173671253783,10.45598536293692,47.069000000017695
311870.9497,23.41483624411537,24.733990943827465,18.634546112590435,11.368718131941893,47.070000000006985
311870.9507,25.074902936034402,27.09937250383391,21.222539350343098,11.843614352405778,47.070999999996275
311870.9517,26.24365769787896,28.85291615407533,23.41843203111191,11.872562139144161,47.071999999985565
311870.9527,26.92552317359356,29.999547047891284,25.193556611246724,11.476659232349132,47.07300000003306
311870.9537,27.148125356399675,30.57051132095859,26.53984598323515,10.702613502740041,47.07400000002235
311870.9547,26.957107656028807,30.61800011250378,27.466141329562,9.617690377965383,47.07500000001164
311870.9557,26.410160355138103,30.208927868863693,27.99372716966872,8.30371824084953,47.07600000000093
311870.9567,25.570864037824553,29.418479675330225,28.151597484091795,6.85070181550093,47.07699999999022
311870.9577,24.502922564396552,28.32401695407127,27.97194488213464,5.350580912702398,47.07800000003772
311870.9587,23.265284561367558,26.99985006546621,27.486305871915302,3.891611280302057,47.07900000002701
311870.9597,21.908531442457264,25.513260131793686,26.72269677390049,2.553743833290433,47.0800000000163
311870.9607,20.472758018418237,23.92199501099999,25.70394777066984,1.4052499229508852,47.08100000000559
311870.9617,18.98700479955175,22.27329276507475,24.447300592232857,0.5006975323102171,47.08199999999488
311870.9627,17.47013615510717,20.60431812444992,22.965193069304398,-0.11975884118994312,47.08299999998417
311870.9637,15.932911862746662,18.94375039015969,21.267025513549513,-0.42993921982798666,47.084000000031665
311870.9647,14.380885246820652,17.31414939161894,19.36160206244451,-0.4163152535478138,47.085000000020955
311870.9657,12.817689441321155,15.734659997781902,17.259874229880225,-0.07613343245148753,47.086000000010245
311870.9667,11.248250179546648,14.223600792994839,14.977589576868244,0.5846612945792414,47.086999999999534
311870.9677,9.681489813837883,12.80051903284473,12.537467036153096,1.5533641592901717,47.087999999988824
311870.9687,8.13215901446382,11.487376780636232,9.970579081537373,2.81202876112575,47.08900000003632
311870.9697,6.621541413350606,10.308652436539676,7.316712822091472,4.338367066582358,47.09000000002561
311870.9707,5.17691049696681,9.290284364697655,4.623597262583541,6.105938581245545,47.0910000000149
311870.9717,3.8297631951455817,8.457533449621364,1.9450103045545013,8.083649193246929,47.09200000000419
311870.9727,2.612995863044723,7.831982994365583,-0.6620964760995689,10.234688662985452,47.09299999999348
311870.9737,1.5573112909887588,7.428012222521657,-3.1412073675096783,12.515127484302282,47.09399999998277
311870.9747,0.6872375427637711,7.24916108104971,-5.440254347167228,14.87245864503632,47.09500000003027
311870.9757,0.017191519170112857,7.2848401478703,-7.515649309764482,17.244400315402142,47.09600000001956
311870.9767,-0.45197306445630936,7.507825982215083,-9.335944253527863,19.558267958291154,47.09700000000885
311870.9777,-0.7355327640251278,7.872920085565747,-10.88475674862439,21.731179083179736,47.09799999999814
311870.9787,-0.8662571527688622,8.317044688833754,-12.162665014844547,23.671275191658417,47.09899999998743
311870.9797,-0.8943626202482711,8.760911255908512,-13.187874252170278,25.28004136383628,47.100000000034925
311870.9807,-0.8859893555731301,9.112241761652584,-13.99557343051437,26.45568524126775,47.101000000024214
311870.9817,-0.9202783198510789,9.270364395752546,-14.636027370518955,27.097416458351816,47.102000000013504
311870.9827,-1.085262764323249,9.131860739982656,-15.171569596988604,27.110357895092815,47.103000000002794
311870.9837,-1.472905497810956,8.596825808823795,-15.672764588857804,26.410733581814377,47.103999999992084
311870.9847,-2.173696607089449,7.575227977268517,-16.2140829773835,24.930924577855208,47.10499999998137
311870.9857,-3.271268031268698,5.992831007234608,-16.869472202733938,22.623970281300153,47.10600000002887
311870.9867,-4.837476920884478,3.796168432044529,-17.70820414472123,19.46712099277957,47.10700000001816
311870.9877,-6.928359462706024,0.9561394468022315,-18.791340508317045,15.464116397655593,47.10800000000745
311870.9887,-9.581265943403531,-2.530082000616032,-20.16908066601993,10.645967975995848,47.10899999999674
311870.9897,-12.813365609966683,-6.638978678868696,-21.879153377324233,5.070151571798328,47.10999999998603
311870.9907,-16.621569008284457,-11.322444331567873,-23.946294377300113,-1.1817428940831032,47.11100000003353
311870.9917,-20.983770611734958,-16.51117132525002,-26.38272909739449,-8.007718146820594,47.11200000002282
311870.9927,-25.861180891443798,-22.11932767426831,-29.189467068820893,-15.29012214819921,47.11300000001211
311870.9937,-31.201408710568437,-28.050057467985656,-32.35812427170434,-22.9010398196511,47.1140000000014
311870.9947,-36.94188373988675,-34.20126200868596,-35.87293203162971,-30.707859099034966,47.11499999999069
311870.9957,-43.01318246640448,-40.471095766401625,-39.71257292770137,-38.578533080029985,47.116000000038184
311870.9967,-49.34184369300359,-46.76264464413809,-43.85150838986371,-46.386093332932646,47.117000000027474
311870.9977,-55.85232860631685,-52.987341533800695,-48.2605276213439,-54.012047251314634,47.118000000016764
311870.9987,-62.46789002488596,-59.066807846892885,-52.9063472297916,-61.34840757180325,47.119000000006054
311870.9997,-69.11025452426334,-64.93297705168699,-57.75021571587601,-68.29824440388649,47.11999999999534
311871.0007,-75.6981756853988,-70.5265411456417,-62.74561408875889,-74.7748056614994,47.12099999998463
311871.0017,-82.14507073635897,-75.79394535002666,-67.83527903720999,-80.69940560583117,47.12200000003213
311871.0027,-88.35609003957431,-80.68332179255623,-72.9478937341518,-85.99841804976546,47.12300000002142
311871.0037,-94.22507421480509,-85.13988274045721,-77.99488017980666,-90.59981674392965,47.12400000001071
311871.0047,-99.63191502447553,-89.10137445980907,-82.8677752919316,-94.42976939207902,47.125
311871.0057,-104.44084544461138,-92.49421498290027,-87.43667377179882,-97.40980632533943,47.12599999998929
311871.0067,-108.50013856706201,-95.23089946240651,-91.55017167761852,-99.45504745043188,47.12700000003679
311871.0077,-111.64359649763814,-97.2091578186142,-95.0371480597068,-100.4738840262426,47.12800000002608
311871.0087,-113.69406687261187,-98.31319926180834,-97.7105851283093,-100.36938232334909,47.12900000001537
311871.0097,-114.469048261733,-98.41719025856224,-99.37346153949622,-99.04251571608049,47.13000000000466
311871.0107,-113.78825227524581,-97.3909036708267,-99.82657289726306,-96.39715483783012,47.130999999993946
311871.0117,-111.48279732179076,-95.10726636039496,-98.87795461560441,-92.34656844146791,47.131999999983236
311871.0127,-107.40553459055893,-91.4513400553502,-96.35342117497613,-86.82102704379328,47.133000000030734
311871.0137,-101.44186735751504,-86.33011366662573,-92.10760744120994,-79.77597231781436,47.13400000002002
311871.0147,-93.52033342866933,-79.68237914397919,-86.03481411937989,-71.20012960055556,47.13500000000931
