TimeStamp,ECR,FCR,ECU,FCU,time_index
311824.8797,0.6077174545994559,1.0236031467665136,-1.5109503341895096,-1.6319227816068993,1.0
311824.8807,1.0917245608991373,1.7830342301597768,-1.6360874749699053,-1.4424356225018458,1.0009999999892898
311824.8817,1.4807818801243096,2.4327829450366094,-1.8047269614276968,-1.297558994953717,1.0020000000367872
311824.8827,1.795863432315644,2.9960437692837316,-1.9835865112046647,-1.1702240779123076,1.003000000026077
311824.8837,2.067203289976034,3.5068443653929076,-2.1320454954409604,-1.0259821560412852,1.0040000000153668
311824.8847,2.3298481954731485,4.005060549730102,-2.206569850244589,-0.8273406498012862,1.0050000000046566
311824.8857,2.618693745443047,4.530816023095684,-2.1655818405099008,-0.5385249535212993,1.0059999999939464
311824.8867,2.9635298626221434,5.118854928139549,-1.9742821958834926,-0.1301689650301264,1.0069999999832362
311824.8877,3.384621371623261,5.793478162703102,-1.6089327232584607,0.4165591681244216,1.0080000000307336
311824.8887,3.88929690485052,6.564578333466647,-1.0601568668044419,1.1068364260240913,1.0090000000200234
311824.8897,4.469919189558112,7.425198780383257,-0.3349091089519331,1.9304122301358995,1.0100000000093132
311824.8907,5.1034718136422885,8.35089000217453,0.5431074844381674,2.861394085133235,1.010999999998603
311824.8917,5.752835390097585,9.300957037972818,1.5346453984304893,3.8596475942259656,1.0119999999878928
311824.8927,6.369655612589291,10.221501620090875,2.5876497240662304,4.873705791454559,1.0130000000353903
311824.8937,6.898543846241897,11.04998191747821,3.641288620966658,5.844930758921212,1.01400000002468
311824.8947,7.282213660507636,11.720858310081674,4.630909546546481,6.7125426840475155,1.0150000000139698
311824.8957,7.467057744530181,12.171781148615331,5.493460716724054,7.419040573382343,1.0160000000032596
311824.8967,7.408618892038196,12.349717044592794,6.172868780663606,7.9154939103210324,1.0169999999925494
311824.8977,7.076411444302595,12.216409889516026,6.624864468453041,8.16619027927221,1.0179999999818392
311824.8987,6.457605752745098,11.752631722300137,6.820798042992134,8.152180087067935,1.0190000000293367
311824.8997,5.559192644510711,10.960791144270098,6.750080976207694,7.873360773721799,1.0200000000186265
311824.9007,4.408387580240824,9.865622352639827,6.421020243513066,7.348879669742863,1.0210000000079162
311824.9017,3.0512014399118916,8.512860956301992,5.859964397096181,6.615793780948985,1.021999999997206
311824.9027,1.5492804714181805,6.96600575383542,5.108841316036841,5.726090899349934,1.0229999999864958
311824.9037,-0.02471517011125398,5.301449806732243,4.221320636254814,4.742333460974358,1.0240000000339933
311824.9047,-1.5927829390831307,3.6024214938644508,3.2579644768683718,3.7323192530041607,1.025000000023283
311824.9057,-3.077785039529048,1.9522914519403516,2.2808255386666856,2.763248499709151,1.0260000000125729
311824.9067,-4.409622653904687,0.4278631587115448,1.3480027241165382,1.8959357104742827,1.0270000000018626
311824.9077,-5.530808992182196,-0.9067326325060384,0.5086662171265841,1.179602142383683,1.0279999999911524
311824.9087,-6.400927640907582,-2.0049765932562513,-0.20098362857583058,0.6477309842943151,1.0290000000386499
311824.9097,-6.999566740046385,-2.841280920665852,-0.7604514939399571,0.3153675472256078,1.0300000000279397
311824.9107,-7.327462884747054,-3.412393642553346,-1.1661321433268403,0.17811045474716974,1.0310000000172295
311824.9117,-7.405757531899212,-3.7367727032480635,-1.4308520030601783,0.21288020790317014,1.0320000000065193
311824.9127,-7.273446794444003,-3.8520086553858275,-1.581833231909516,0.3803839453412814,1.032999999995809
311824.9137,-6.983275638420761,-3.8105597577311205,-1.6572983389277356,0.6290358753593204,1.0339999999850988
311824.9147,-6.5964732444601815,-3.6742220669915735,-1.7020635229812373,0.8999570454061769,1.0350000000325963
311824.9157,-6.176833619339528,-3.507874386502299,-1.762564440332029,1.132578846096937,1.036000000021886
311824.9167,-5.784704150603572,-3.373102450520546,-1.8818098471706277,1.2703213548699495,1.0370000000111759
311824.9177,-5.471449139019267,-3.322312406282208,-2.094761610715532,1.2658152550923598,1.0380000000004657
311824.9187,-5.2749051518539085,-3.3938901910288957,-2.42459380761837,1.0851846064356903,1.0389999999897555
311824.9197,-5.216245348074246,-3.608856249782299,-2.880193683456484,0.7110022330387471,1.040000000037253
311824.9207,-5.298530571431593,-3.9693148955081976,-3.45514210009654,0.1436605305586472,1.0410000000265427
311824.9217,-5.507059662496812,-4.458819344231548,-4.128263148755111,-0.5989448522165334,1.0420000000158325
311824.9227,-5.811456275295837,-5.044584639515363,-4.86567646832764,-1.4833578949541575,1.0430000000051223
311824.9237,-6.169261580063342,-5.681299867976462,-5.624136871096606,-2.463915451990377,1.043999999994412
311824.9247,-6.5306579146131645,-6.316135970135112,-6.355318798195204,-3.4871616144410202,1.0449999999837019
311824.9257,-6.843841684725892,-6.894431196839274,-7.010610390630917,-4.496876307035088,1.0460000000311993
311824.9267,-7.060504866997085,-7.365473915637884,-7.5459326569164515,-5.439218320066467,1.047000000020489
311824.9277,-7.140878884536448,-7.687797956267614,-7.9260981452322135,-6.2674796325544975,1.0480000000097789
311824.9287,-7.057842713064257,-7.833459208051051,-8.12827072650423,-6.945994073515985,1.0489999999990687
311824.9297,-6.799693877736837,-7.7908682295328395,-8.14417884154564,-7.452834176273496,1.0499999999883585
311824.9307,-6.371316801330347,-7.565901518291463,-7.98085983914861,-7.781056210031174,1.051000000035856
311824.9317,-5.793644244358268,-7.181189026028482,-7.6598604018990155,-7.938402081273703,1.0520000000251457
311824.9327,-5.101478354933829,-6.673660058462117,-7.214972907251358,-7.9455231663690675,1.0530000000144355
311824.9337,-4.339901249208025,-6.090605520421086,-6.688734544705186,-7.832939553966854,1.0540000000037253
311824.9347,-3.5596449719066485,-5.484664096253749,-6.128040520210175,-7.637073884015412,1.054999999993015
311824.9357,-2.8118933945673072,-4.9082485517547205,-5.579312354241877,-7.395789527555603,1.0559999999823049
311824.9367,-2.1430440526968955,-4.407985141481138,-5.0837081853032835,-7.143909359897338,1.0570000000298023
311824.9377,-1.589960742964578,-4.019738476945721,-4.67285951243313,-6.909189360133809,1.0580000000190921
311824.9387,-1.1761977421509822,-3.7647362185235203,-4.365568114863477,-6.709171096790227,1.059000000008382
311824.9397,-0.9095788244540093,-3.6471983393509566,-4.165802906425772,-6.549244013956835,1.0599999999976717
311824.9407,-0.7813785975061774,-3.6537253273220522,-4.0622084304407915,-6.422121778508228,1.0609999999869615
311824.9417,-0.7671935351489767,-3.7545234358121835,-4.029187166296955,-6.308789586017148,1.062000000034459
311824.9427,-0.8294213357913132,-3.9063604300470742,-4.029461525935199,-6.180826108013332,1.0630000000237487
311824.9437,-0.9211065827616425,-4.056970518066122,-4.017873777506803,-6.003860132906151,1.0640000000130385
311824.9447,-0.990774008235014,-4.15047966088502,-3.946057725060696,-5.741802388719899,1.0650000000023283
311824.9457,-0.9877714599157732,-4.133316916576934,-3.767527113707086,-5.361409626116505,1.065999999991618
311824.9467,-0.8675927235012213,-3.9600244623285645,-3.442681260519484,-4.836699279880739,1.0669999999809079
311824.9477,-0.5966507793291335,-3.5983838707674147,-2.94323282865129,-4.152742973052276,1.0680000000284053
311824.9487,-0.15602481848028002,-3.0333388060975484,-2.255615673236535,-3.30842499308941,1.0690000000176951
311824.9497,0.4561957917865257,-2.2693085872678833,-1.3830272369139431,-2.317852094387825,1.070000000006985
311824.9507,1.2242102606837184,-1.330641974764744,-0.34589073310665785,-1.2102337764913318,1.0709999999962747
311824.9517,2.1155265945207473,-0.26014098906065886,0.8193253625564418,-0.02820449167680097,1.0719999999855645
311824.9527,3.08361317924806,0.884227069603186,2.0628340008004584,1.1752840004671234,1.073000000033062
311824.9537,4.071931436157784,2.034133411267638,3.325555705060834,2.34122624950316,1.0740000000223517
311824.9547,5.018963507276505,3.116761556697794,4.544070679919303,3.4095887912504828,1.0750000000116415
311824.9557,5.8637509515000215,4.061198313365625,5.656032438375423,4.324621660904788,1.0760000000009313
311824.9567,6.551409874257392,4.804735448527915,6.605532295266593,5.0399433404559995,1.0769999999902211
311824.9577,7.038089752515647,5.298480749186427,7.3479071659336626,5.522900624420714,1.0780000000377186
311824.9587,7.294897287748571,5.511740822272889,7.8535352689317195,5.757767861763128,1.0790000000270084
311824.9597,7.310407627858258,5.434754114311954,8.110260549993955,5.747456294891742,1.0800000000162981
311824.9607,7.0915233412255505,5.079510047378785,8.124217623077001,5.513543694766387,1.081000000005588
311824.9617,6.662603059439422,4.47857365062658,7.918982080479814,5.094593805141969,1.0819999999948777
311824.9627,6.062950875259362,3.6820268109734604,7.533131326008888,4.542898870860583,1.0829999999841675
311824.9637,5.342917776345074,2.7528186274308903,7.016453096657079,3.919930835641754,1.084000000031665
311824.9647,4.559001871534173,1.7609706628947137,6.425167831202088,3.2909127955092954,1.0850000000209548
311824.9657,3.7684315993374495,0.7771931810277918,5.816624532162671,2.719009621772274,1.0860000000102445
311824.9667,3.0237658982949744,-0.13347506022111105,5.2439787203401025,2.259676669181656,1.0869999999995343
311824.9677,2.3680425385552764,-0.9173937777261465,4.751360801176406,1.9556940717469542,1.0879999999888241
311824.9687,1.8309506973673852,-1.536867265146693,4.369993738696211,1.8333521864139388,1.0890000000363216
311824.9697,1.4264017863281426,-1.973077229784092,4.115625229658069,1.9001470583769473,1.0900000000256114
311824.9707,1.1517335060380356,-2.2271272132932656,3.987510748977289,2.1442034821649685,1.0910000000149012
311824.9717,0.9886197616540308,-2.319107440615071,3.9690324615581187,2.535480819099914,1.092000000004191
311824.9727,0.9055893793578901,-2.285281804689307,4.029879807382122,3.0286487657132857,1.0929999999934807
311824.9737,0.8618962251259231,-2.173681673298378,4.129566050137008,3.567362865459896,1.0939999999827705
311824.9747,0.8123481577013124,-2.038546502986328,4.22192595386389,4.089537827159355,1.095000000030268
311824.9757,0.7126056157862132,-1.9341637583914701,4.260145539015667,4.533123297375662,1.0960000000195578
311824.9767,0.5244121516687662,-1.908719420553024,4.201824676331462,4.841840576141605,1.0970000000088476
311824.9777,0.2202237755746573,-1.9987697082472538,4.0135719123616225,4.970344253660185,1.0979999999981374
311824.9787,-0.21323873566262874,-2.2248845958338324,3.674678428466487,4.888329287422109,1.0989999999874271
311824.9797,-0.7728858650207994,-2.5889001230320026,3.179509695328615,4.58320612320607,1.1000000000349246
311824.9807,-1.4388333387557701,-3.073060387500208,2.5383801772844463,4.061104197194158,1.1010000000242144
311824.9817,-2.1757186706499767,-3.6411466406321953,1.776825929222712,3.346124228060093,1.1020000000135042
311824.9827,-2.9356526188708583,-4.241497863664164,0.9333474790120605,2.4779266779867277,1.103000000002794
311824.9837,-3.6625352731487837,-4.811643288992495,0.055845598514161106,1.507901559595791,1.1039999999920838
311824.9847,-4.297329422477366,-5.284110348490015,-0.802899228414434,0.4942982454224794,1.1049999999813735
311824.9857,-4.783785839261313,-5.59285664307132,-1.5902591281357616,-0.5032096607652152,1.106000000028871
311824.9867,-5.074065859781436,-5.679712804298203,-2.2588083437387776,-1.4289991470977605,1.1070000000181608
311824.9877,-5.133711116206952,-5.500220464132138,-2.7708936776229947,-2.236487748465232,1.1080000000074506
311824.9887,-4.945468235251882,-5.02830614125192,-3.102276533087454,-2.89216533017122,1.1089999999967404
311824.9897,-4.511582316659175,-4.259342137241037,-3.2444880453870297,-3.3782910552498056,1.1099999999860302
311824.9907,-3.854316922268575,-3.211298775995459,-3.205664619678566,-3.694011385051811,1.1110000000335276
311824.9917,-3.0146263331388967,-1.9238736454467904,-3.0097796990504286,-3.8548102904667148,1.1120000000228174
311824.9927,-2.04908180452676,-0.4556753600220233,-2.694344252211311,-3.890365834803908,1.1130000000121072
311824.9937,-1.0253205151218405,1.1202767729452354,-2.3067979993238543,-3.841042056720821,1.114000000001397
311824.9947,-0.01642776884304131,2.7223176353569882,-1.8999411990127002,-3.753376608654484,1.1149999999906868
311824.9957,0.9052339254669645,4.2666288863861235,-1.5268504437236428,-3.6750201758957473,1.1160000000381842
311824.9967,1.674180957796461,5.673857152666061,-1.2357722400454927,-3.6496341364001346,1.117000000027474
311824.9977,2.2373816718361352,6.875248575835539,-1.0654902978095036,-3.712253471579312,1.1180000000167638
311824.9987,2.5587319291385247,7.8177418778537175,-1.0416162299032075,-3.885572736997807,1.1190000000060536
311824.9997,2.622021472048643,8.467566792803154,-1.1741633044322126,-4.177518946260607,1.1199999999953434
311825.0007,2.4321211917330587,8.812042256591281,-1.4566377982145315,-4.580345878598477,1.1209999999846332
311825.0017,2.014288694061807,8.859444575742197,-1.8667345984703736,-5.07133240740991,1.1220000000321306
311825.0027,1.4116662507846043,8.637002637684546,-2.3685674352523223,-5.615007971135595,1.1230000000214204
311825.0037,0.6812143725992222,8.187256787995983,-2.916214761713959,-6.166676994450228,1.1240000000107102
311825.0047,-0.11153036139067504,7.563172774472872,-3.458234416122251,-6.676885813855791,1.125
311825.0057,-0.8983768253988171,6.822517128045198,-3.942706277843243,-7.096383071102488,1.1259999999892898
311825.0067,-1.6145239367342628,6.0220644653097395,-4.322311323190049,-7.381076680866176,1.1270000000367872
311825.0077,-2.204165584482764,5.212214448543049,-4.558952728400903,-7.496492000796547,1.128000000026077
311825.0087,-2.625140558720193,4.4325461418915415,-4.627470184676919,-7.421286496698106,1.1290000000153668
311825.0097,-2.852208546223448,3.708735522226998,-4.5180878875874475,-7.149470913400811,1.1300000000046566
311825.0107,-2.8786691161243314,3.051118324222298,-4.237360960354767,-6.6911162948491505,1.1309999999939464
311825.0117,-2.7162025716173215,2.455009690360851,-3.80753216584014,-6.071477293910545,1.1319999999832362
311825.0127,-2.392983745285663,1.9027113750169882,-3.26436622863218,-5.328620080256708,1.1330000000307336
311825.0137,-1.9502854816666948,1.3669645870339604,-2.6536776892589016,-4.509792140168825,1.1340000000200234
311825.0147,-1.437931600029211,0.8154591808375523,-2.0268953938272483,-3.6668965979492887,1.1350000000093132
311825.0157,-0.9090657547654851,0.21590251437493843,-1.4361000421624834,-2.851522951176489,1.135999999998603
311825.0167,-0.41476262114703877,-0.4589054191156474,-0.9290215652648681,-2.110030447268384,1.1369999999878928
311825.0177,0.0009843499632158246,-1.2265443643422818,-0.5444855934412055,-1.479175325601125,1.1380000000353903
311825.0187,0.3054091789710899,-2.091491488177654,-0.3087527288463042,-0.9827192746655677,1.13900000002468
311825.0197,0.4798568809950789,-3.04307543183798,-0.23310529047956646,-0.6293590067554247,1.1400000000139698
311825.0207,0.5211386998812292,-4.0551109102013605,-0.31291246990954585,-0.4121854437041898,1.1410000000032596
311825.0217,0.44124990845327927,-5.087285690833668,-0.5282586425313394,-0.3097286115572203,1.1419999999925494
311825.0227,0.26550707636475285,-6.08819119310658,-0.8460653459828393,-0.2884860231343498,1.1429999999818392
311825.0237,0.029320839607215585,-6.999717192464148,-1.2234903719736943,-0.30668375371675155,1.1440000000293367
311825.0247,-0.2260433748201418,-7.762387347205925,-1.6122620135221082,-0.31889531716107655,1.1450000000186265
311825.0257,-0.4582640123164568,-8.321110003088995,-1.9635151175668168,-0.28105616842441294,1.1460000000079162
311825.0267,-0.6288146723040862,-8.630768416088547,-2.2326472046327543,-0.1553699267891824,1.146999999997206
311825.0277,-0.7073584886160411,-8.661081487144498,-2.3837122779226956,0.0853895074223012,1.1479999999864958
311825.0287,-0.6752248598309755,-8.4002299857114,-2.392917084634771,0.4546185192967534,1.1490000000339933
311825.0297,-0.5276031021133499,-7.856858069444712,-2.250874825301376,0.9500046656966892,1.150000000023283
311825.0307,-0.2742198705583038,-7.060214634292033,-1.9633956892722473,1.5532306867723569,1.1510000000125729
311825.0317,0.061576852838281335,-6.058378607355568,-1.55073980844861,2.231308883761996,1.1520000000018626
311825.0327,0.4452404065387988,-4.914699155931396,-1.0454117893979997,2.939432043123303,1.1529999999911524
311825.0337,0.8347123248598879,-3.702757562329914,-0.48872169609100174,3.625076350085387,1.1540000000386499
311825.0347,1.1849994321662416,-2.500304844664753,0.07353923054845031,4.2329661775286835,1.1550000000279397
311825.0357,1.4531727984560043,-1.3827334471619008,0.595870964117831,4.710422689158103,1.1560000000172295
311825.0367,1.6032726664719166,-0.4166920063758017,1.0378025731808118,5.012576639656188,1.1570000000065193
311825.0377,1.6106076700617322,0.34555594003646,1.36811546611309,5.106934849565232,1.157999999995809
311825.0387,1.4649924119150315,0.8704949149752537,1.568122180185138,4.976848891290404,1.1589999999850988
311825.0397,1.1725694349810971,1.1460263687427374,1.6336641236434166,4.623537963734031,1.1600000000325963
311825.0407,0.7559998836110133,1.1821871275936586,1.5756187026144866,4.066455816582992,1.161000000021886
311825.0417,0.25296815549320784,1.0098460111170204,1.4188545956366625,3.341950574417583,1.1620000000111759
311825.0427,-0.28688625797550055,0.6774996979021839,1.1997289590312197,2.5003309691102427,1.1630000000004657
311825.0437,-0.8063383487070903,0.24647031536782243,0.9623667410248097,1.6016067856371423,1.1639999999897555
311825.0447,-1.2458443916816475,-0.21504011123289424,0.75408554695026,0.7103002032247007,1.165000000037253
311825.0457,-1.5492076187389328,-0.6384741700454951,0.6204173687485648,-0.11018443992726573,1.1660000000265427
311825.0467,-1.6690984028586715,-0.9614035718531008,0.6002221608022056,-0.8031010390779901,1.1670000000158325
311825.0477,-1.5718915053355975,-1.1333595532999219,0.7213832326851948,-1.3232882771434265,1.1680000000051223
311825.0487,-1.241342393235735,-1.120459137302988,0.997521040871051,-1.6410164449983244,1.168999999994412
311825.0497,-0.6807310812623261,-0.9083942893506713,1.4260652608432691,-1.7443918259857907,1.1699999999837019
311825.0507,0.08675477679763363,-0.5035097244554708,1.9878943465351218,-1.6400942464498411,1.1710000000311993
311825.0517,1.019459523816006,0.06811994865668987,2.6485998360923717,-1.3523833939423393,1.172000000020489
311825.0527,2.0604105931411847,0.7635098865176743,3.361274261296253,-0.9204756664389768,1.1730000000097789
311825.0537,3.1419063860946395,1.5271949668570113,4.070572148323529,-0.39454950220977614,1.1739999999990687
311825.0547,4.191128549164366,2.2968291427611125,4.717667891839676,0.16923181255345465,1.1749999999883585
311825.0557,5.136267623908281,3.0094021154489816,5.245644584540532,0.7141976612876851,1.176000000035856
311825.0567,5.912601045951953,3.6074640071696957,5.604803030274503,1.188619403690006,1.1770000000251457
311825.0577,6.4679659730912205,4.044750878599506,5.757384631565679,1.5506078971351915,1.1780000000144355
311825.0587,6.76712608283075,4.290665161758323,5.681255284426637,1.7719913569229748,1.1790000000037253
311825.0597,6.794635793107033,4.333179273251189,5.372194722025743,1.8408066044579066,1.179999999993015
311825.0607,6.555947204810355,4.179886579624079,4.844567535773906,1.7621729908616663,1.1809999999823049
311825.0617,6.076670694198356,3.857106199968008,4.130305621578448,1.557476490311807,1.1820000000298023
311825.0627,5.400073471380319,3.4071389904703833,3.276292191321433,1.2619561631323652,1.1830000000190921
311825.0637,4.5830648296121765,2.88395279618471,2.34038923322386,0.9209403136982954,1.184000000008382
311825.0647,3.691056423275531,2.3477280325184897,1.3864787285086446,0.5851100963133348,1.1849999999976717
311825.0657,2.7921873778876334,1.8588049742158383,0.4789806441556747,0.30526137913518314,1.1859999999869615
311825.0667,1.95145776214223,1.4716310848268304,-0.3226411843877738,0.12708236818289262,1.187000000034459
311825.0677,1.2253150360176115,1.2293048591809224,-0.9688752498212444,0.08646038367239701,1.1880000000237487
311825.0687,0.6571867787388384,1.1592522892178734,-1.4242006514865588,0.20577681780772158,1.1890000000130385
311825.0697,0.27435465471209874,1.2704592443304634,-1.669801458475309,0.49155015835713795,1.1900000000023283
311825.0707,0.08642912109691073,1.5525289558449173,-1.7047198817397702,0.9336528851070071,1.190999999991618
311825.0717,0.08552532245247221,1.9766536136512334,-1.5453618242358846,1.506172288621158,1.1919999999809079
311825.0727,0.24807370157636605,2.4984005555008473,-1.223426628763155,2.1698231702136517,1.1930000000284053
311825.0737,0.5380405139573529,3.0620351807498287,-0.7824831034305699,2.8756678916031206,1.1940000000176951
311825.0747,0.9111991694205018,3.605952048785023,-0.27354160158282464,3.5697713064513454,1.195000000006985
311825.0757,1.3199961918094818,4.068677386411833,0.2499352631753566,4.198327234706458,1.1959999999962747
311825.0767,1.718504913687141,4.394851002860113,0.7370916633292971,4.712748180544512,1.1969999999855645
311825.0777,2.0669605042921773,4.540598754560982,1.1443151045840259,5.0742152678688,1.198000000033062
311825.0787,2.3354211816143304,4.4777678367863825,1.4390057642291454,5.257240257352958,1.1990000000223517
311825.0797,2.506197071685148,4.196610233396283,1.6021247940691457,5.25189053036523,1.2000000000116415
311825.0807,2.574820256612437,3.7066534623233043,1.6292928660653176,5.064461268441439,1.2010000000009313
311825.0817,2.5494837086239057,3.0356771499042443,1.530357120363861,4.716533555881717,1.2019999999902211
311825.0827,2.449037484619347,2.226901281954793,1.3274987765014654,4.242517557179952,1.2030000000377186
311825.0837,2.299781571928597,1.334668771445822,1.052099749221748,3.6859304690133006,1.2040000000270084
311825.0847,2.1314209225441174,0.41905384646153543,0.7407102423414192,3.094784793287335,1.2050000000162981
311825.0857,1.9726367597032495,-0.460065963802779,0.43054827603409646,2.516551225111858,1.206000000005588
311825.0867,1.8467701959735099,-1.2488832631173354,0.155007656848656,1.9932033396388782,1.2069999999948777
311825.0877,1.7681052073255787,-1.9048937970997095,-0.06035146653829327,1.5568440342483474,1.2079999999841675
311825.0887,1.7391787763832105,-2.4009662123827558,-0.20090536894408376,1.2263569935113774,1.209000000031665
311825.0897,1.7494422766203936,-2.7278405048841172,-0.26483153079705135,1.005425803813396,1.2100000000209548
311825.0907,1.775460105769633,-2.894802374121428,-0.26353048301721643,0.8821285805767453,1.2110000000102445
311825.0917,1.7826728491984078,-2.928461275820435,-0.22054716708311567,0.830160271095523,1.2119999999995343
311825.0927,1.7285886553249186,-2.869748117230215,-0.16908810625645337,0.8115734189944218,1.2129999999888241
311825.0937,1.5671144133864652,-2.769425778371055,-0.1483756710894441,0.7807769611806723,1.2140000000363216
311825.0947,1.2536130897553832,-2.6825545171591334,-0.19920238617581043,0.6894064442475628,1.2150000000256114
311825.0957,0.750188007396345,-2.6624601251545283,-0.35913435141666417,0.49159033811584135,1.2160000000149012
311825.0967,0.030657927588062347,-2.7548049332200915,-0.6578546871504404,0.14909468727557906,1.217000000004191
311825.0977,-0.9152972308369335,-2.992355138507659,-1.1131310398478569,-0.36416354064831663,1.2179999999934807
311825.0987,-2.079272242677484,-3.390972903528909,-1.727835969571413,-1.0586860255536585,1.2189999999827705
311825.0997,-3.4328923096784014,-3.9472444487528096,-2.488350614511023,-1.9273948065890962,1.220000000030268
311825.1007,-4.928377756304774,-4.637997229632466,-3.3645498052820075,-2.9452784721577188,1.2210000000195578
311825.1017,-6.500936362775129,-5.421775594018132,-4.31141357015066,-4.070737060766404,1.2220000000088476
311825.1027,-8.072826788647877,-6.2421529341336015,-5.272150652908563,-5.248515948588891,1.2229999999981374
311825.1037,-9.558773476595324,-7.032577958147496,-6.18256985727557,-6.4139651591573505,1.2239999999874271
311825.1047,-10.87227845932002,-7.722300971052069,-6.976309487368492,-7.49823181685688,1.2250000000349246
311825.1057,-11.932281969022686,-8.242817891474681,-7.590446328756604,-8.433902464638765,1.2260000000242144
311825.1067,-12.669581107681148,-8.534215854729721,-7.970962440069456,-9.160567606496027,1.2270000000135042
311825.1077,-13.032428669458108,-8.550810118227494,-8.077555019394211,-9.629787511733086,1.228000000002794
311825.1087,-12.990801783898075,-8.26552724304576,-7.887331418490907,-9.808995455824146,1.2289999999920838
311825.1097,-12.538946358389623,-7.672608035759129,-7.397032788432167,-9.683976674306855,1.2299999999813735
311825.1107,-11.695957599225867,-6.788364148664176,-6.623566269934711,-9.259698479690323,1.231000000028871
311825.1117,-10.504334724941206,-5.649909083996086,-5.602784054483648,-8.559425907285204,1.2320000000181608
311825.1127,-9.026632558593496,-4.311979529957559,-4.3866128067754016,-7.622222441755181,1.2330000000074506
311825.1137,-7.340506477536424,-2.8421475015115147,-3.0387929049952995,-6.499090723508498,1.2339999999967404
311825.1147,-5.532593655837002,-1.3148796693403526,-1.6296186081864872,-5.2481384711021235,1.2349999999860302
311825.1157,-3.6917786717719476,0.1949877270988484,-0.23016479815351693,-3.929247433379643,1.2360000000335276
311825.1167,-1.9024453181067824,1.6187329008542415,1.0934658633908039,-2.598768928847239,1.2370000000228174
311825.1177,-0.2383137085615778,2.8995695361360245,2.285344420997837,-1.3047639363089942,1.2380000000121072
311825.1187,1.2425971943827978,3.9972468465828097,3.3038885952970065,-0.08324928719288101,1.239000000001397
311825.1197,2.501451007798945,4.890989037569414,4.124629583687724,1.0441902273609271,1.2399999999906868
311825.1207,3.5202381797706677,5.5804957962043185,4.741330662584084,2.0712011371894863,1.2410000000381842
311825.1217,4.30147702276805,6.084914012685008,5.165374175543242,3.005808330685273,1.242000000027474
311825.1227,4.866049354760173,6.439888530300777,5.423499731179974,3.868011637295933,1.2430000000167638
311825.1237,5.249423580303445,6.692987115669324,5.554134197672115,4.686089269534759,1.2440000000060536
311825.1247,5.4966674553641806,6.897953792952938,5.602688097954253,5.491995772824775,1.2449999999953434
311825.1257,5.656762384103692,7.1083597051142,5.6162903354197615,6.316334415648304,1.2459999999846332
311825.1267,5.776790574884995,7.371280526214739,5.638484451547714,7.183429035320122,1.2470000000321306
311825.1277,5.8965703009745525,7.721628286766502,5.70440996341205,8.10701368914459,1.2480000000214204
311825.1287,6.044262827791915,8.177703356965097,5.8369418390616294,9.087000553994766,1.2490000000107102
311825.1297,6.233372621721258,8.738415251897907,6.044164873199845,10.10768288699931,1.25
311825.1307,6.461420426371233,9.38246020737665,6.31842709873155,11.137590500420291,1.2509999999892898
311825.1317,6.710400698403334,10.06955468429107,6.637060398382575,12.131053615379725,1.2520000000367872
311825.1327,6.9489572166073605,10.743625365460034,6.964692393133947,13.03136283479643,1.253000000026077
311825.1337,7.1360407484926895,11.33766701666439,7.256917464187371,13.775254672961633,1.2540000000153668
311825.1347,7.225666979731626,11.779818062116863,7.464961594271253,14.298319025229274,1.2550000000046566
311825.1357,7.17228555278068,12.00008543388504,7.540878496164396,14.540830150458492,1.2559999999939464
311825.1367,6.936212300846723,11.937086538674071,7.442762605936774,14.453455465052961,1.2569999999832362
311825.1377,6.488572104487727,11.544173079396241,7.1394628954748605,14.002301398919906,1.2580000000307336
311825.1387,5.815249447978123,10.794359127338835,6.6143301369807155,13.172812367323962,1.2590000000200234
311825.1397,4.919442621959549,9.683588538057158,5.867624366289645,11.97214217273136,1.2600000000093132
311825.1407,3.8225557363847313,8.232033509643244,4.917339563922488,10.42975697782299,1.260999999998603
311825.1417,2.5633265986057863,6.483301549190668,3.7983562268533726,8.596191968060852,1.2619999999878928
311825.1427,1.1952619448093762,4.501624376281519,2.5599945211826047,6.54005431408101,1.2630000000353903
311825.1437,-0.21738251509592466,2.3672904223824256,1.262195295524356,4.343526718938396,1.26400000002468
311825.1447,-1.6046974820038225,0.17074453397404402,-0.029311622928105595,2.096763250981497,1.2650000000139698
311825.1457,-2.896806343646622,-1.9941011620184037,-1.24839551881311,-0.108330736755598,1.2660000000032596
311825.1467,-4.02960066412808,-4.036733818527191,-2.333960570028715,-2.1843894282530365,1.2669999999925494
311825.1477,-4.9499791391765,-5.876463988644793,-3.234917743020789,-4.054401161639372,1.2679999999818392
311825.1487,-5.620093489171583,-7.447838324122142,-3.9142279244574136,-5.656549592967733,1.2690000000293367
311825.1497,-6.020202275298932,-8.704576663112391,-4.351642957338684,-6.947680232407819,1.2700000000186265
311825.1507,-6.149869724502094,-9.62171738433248,-4.54489854929087,-7.905124090117683,1.2710000000079162
311825.1517,-6.0274078835516605,-10.195831466909484,-4.5092635283266524,-8.52676687465931,1.271999999997206
311825.1527,-5.687630920359199,-10.443353298721497,-4.275508871394121,-8.829417424448799,1.2729999999864958
311825.1537,-5.17815342266941,-10.397256508267082,-3.886511787732389,-8.845686834122263,1.2740000000339933
311825.1547,-4.554604164367388,-10.102458389900258,-3.392840115357011,-8.619724905801535,1.275000000023283
311825.1557,-3.8752294147202653,-9.6104518447616,-2.8477577885565237,-8.202260254224061,1.2760000000125729
311825.1567,-3.195415523094625,-8.973728183653618,-2.302143975455879,-7.645445309902827,1.2770000000018626
311825.1577,-2.562663923669221,-8.240561724899596,-1.7998217880053595,-6.998012712516657,1.2779999999911524
311825.1587,-2.012502718771557,-7.4506775978333515,-1.3737471200165152,-6.301205170245318,1.2790000000386499
311825.1597,-1.5657226121596195,-6.632222900793973,-1.0434188258289832,-5.585851644965355,1.2800000000279397
311825.1607,-1.2271908199748311,-5.800318825687575,-0.8137470656694664,-4.870837937795888,1.2810000000172295
311825.1617,-0.9863380254254476,-4.957302062566078,-0.675469579782509,-4.163072065530248,1.2820000000065193
311825.1627,-0.819246178006742,-4.09458485803786,-0.6070504732945485,-3.458889091241071,1.282999999995809
311825.1637,-0.6921055111466964,-3.1958925529410065,-0.5778481232815431,-2.7466918727132614,1.2839999999850988
311825.1647,-0.5656733040393729,-2.241492426571483,-0.5522126447615155,-2.0104982708995625,1.2850000000325963
311825.1657,-0.4002680340336592,-1.212922814029634,-0.49408138931794354,-1.233974194251753,1.286000000021886
311825.1667,-0.16078037779789864,-0.09767730995180965,-0.3715922275923085,-0.4044844189989283,1.2870000000111759
311825.1677,0.1788178774467365,1.1066990704910187,-0.16123364213752495,0.48330598743091796,1.2880000000004657
311825.1687,0.6319345788213837,2.3895867464077765,0.1489020494510707,1.4246978415014964,1.2889999999897555
311825.1697,1.1971571707915036,3.725717883382447,0.5571054258253708,2.4034178039109357,1.290000000037253
311825.1707,1.8576265460018395,5.075280470386699,1.0474948225159406,3.391472589808146,1.2910000000265427
311825.1717,2.5820610594449454,6.385755493223081,1.5909906466432593,4.350451166708166,1.2920000000158325
311825.1727,3.3273407918511135,7.595362012108059,2.147736222479456,5.234175751418099,1.2930000000051223
311825.1737,4.042404640485732,8.637814991473093,2.670735878896293,5.992458726806162,1.293999999994412
311825.1747,4.673079612512465,9.447958474372255,3.1103570191930427,6.575602677145193,1.2949999999837019
311825.1757,5.167366025033565,9.967736604672012,3.419253654154874,6.939196770869968,1.2960000000311993
311825.1767,5.480653703542664,10.151917421986038,3.5572232333287266,7.048723324022918,1.297000000020489
311825.1777,5.580347601850814,9.972994475465052,3.4955111861833563,6.883497755435409,1.2980000000097789
311825.1787,5.449436300716256,9.424758623928993,3.2201282389184103,6.439522647332417,1.2989999999990687
311825.1797,5.0886382331988465,8.524150753635144,2.7338394131028054,5.730936811426106,1.2999999999883585
311825.1807,4.516898304251512,7.3111643220256335,2.056611477955302,4.789873425879455,1.301000000035856
311825.1817,3.7701682864132833,5.846749414623325,1.2244549861653133,3.6646944357968794,1.3020000000251457
311825.1827,2.898572175196606,4.208859673834963,0.2867532023584181,2.416726450650948,1.3030000000144355
311825.1837,1.9622160535814395,2.4869615511488954,-0.6976821295293136,1.1157707302815598,1.3040000000037253
311825.1847,1.026035335737315,0.7754744283700286,-1.6654636761379789,-0.16521807558336932,1.304999999993015
311825.1857,0.15416738141221922,-0.8332844036098289,-2.55393635433471,-1.3558051436238305,1.3059999999823049
311825.1867,-0.5956150058306299,-2.2560245683654383,-3.306441359784746,-2.3935826953883694,1.3070000000298023
311825.1877,-1.1768784786439428,-3.424659823263539,-3.8770411685963615,-3.2290045819033724,1.3080000000190921
311825.1887,-1.558438407409729,-4.291186917313598,-4.234262099591997,-3.829102010618219,1.309000000008382
311825.1897,-1.7268314960869204,-4.830834411509342,-4.3635059935713025,-4.179737984708688,1.3099999999976717
311825.1907,-1.6871200268239552,-5.04320991175412,-4.267911359577142,-4.2861952142772894,1.3109999999869615
311825.1917,-1.4619578813772682,-4.95135995749395,-3.9675942935259823,-4.1720495615265145,1.312000000034459
311825.1927,-1.089017076123559,-4.598850402951134,-3.49735585814922,-3.8764432206961263,1.3130000000237487
311825.1937,-0.6170323207219813,-4.045157913006614,-2.9030900760263743,-3.450023037617948,1.3140000000130385
311825.1947,-0.10085450979603042,-3.3598176349019435,-2.2372507784632734,-2.9499349280739082,1.3150000000023283
311825.1957,0.40400097555239906,-2.615883441643306,-1.5538241414766918,-2.434353045704844,1.315999999991618
311825.1967,0.8467780203585725,-1.8833148261933297,-0.9032982080927784,-1.9570636681319278,1.3169999999809079
311825.1977,1.1863474819153497,-1.2229032395499866,-0.3281167824955703,-1.5626147412303024,1.3180000000284053
311825.1987,1.3950475280228516,-0.6812908281946117,0.1409467030567449,-1.2824836002541775,1.3190000000176951
311825.1997,1.4611281779121887,-0.2875222355935411,0.487154176087693,-1.132613358769444,1.320000000006985
311825.2007,1.3895704643585638,-0.05141656003453053,0.708693242116852,-1.112532870204081,1.3209999999962747
311825.2017,1.2012117557952813,0.03613314905632721,0.8180274870857043,-1.206119344480028,1.3219999999855645
311825.2027,0.9302763031556309,0.001013691869507757,0.8397954250113627,-1.3839019311263094,1.323000000033062
311825.2037,0.6205675165222878,-0.11784201335545937,0.8074913259480538,-1.606654612242801,1.3240000000223517
311825.2047,0.320710336203289,-0.2733659230508368,0.7592819844167409,-1.8299022538736696,1.3250000000116415
311825.2057,0.07892536566711902,-0.41592360316964355,0.7333986086783341,-2.008876792470487,1.3260000000009313
311825.2067,-0.06213800013791188,-0.4989642500562853,0.7635840120189089,-2.1034197226668145,1.3269999999902211
311825.2077,-0.06998886843241735,-0.48417619490571423,0.87506812707741,-2.0823362050769125,1.3280000000377186
311825.2087,0.07415981177444768,-0.34562992655196473,1.081490274251735,-1.9267642129796474,1.3290000000270084
311825.2097,0.3732462161497669,-0.07249964362264877,1.3830900267112183,-1.6322233553762395,1.3300000000162981
311825.2107,0.8138336804974899,0.3298966141608244,1.766359522317947,-1.2091422830603227,1.331000000005588
311825.2117,1.3672611720450463,0.8408241132523957,2.2052014873006476,-0.6818175876547868,1.3319999999948777
311825.2127,1.9923602730296432,1.4265300167674808,2.663483819483573,-0.0859155845758265,1.3329999999841675
311825.2137,2.6394720723947556,2.0440464587827027,3.098738586942181,0.5352243689653433,1.334000000031665
311825.2147,3.2553667647067988,2.6459876756688088,3.4666349786828294,1.1351049296606888,1.3350000000209548
311825.2157,3.7885771670601627,3.1858292718065324,3.7257739311772586,1.668940551350191,1.3360000000102445
311825.2167,4.194613888616662,3.623108298280291,3.8423151010866667,2.098381023952576,1.3369999999995343
311825.2177,4.440538909956339,3.927990456043326,3.7939584157364283,2.3956004979368393,1.3379999999888241
311825.2187,4.508435084299624,4.084714654843948,3.572861681558723,2.546325325574761,1.3390000000363216
311825.2197,4.397415709994279,4.093539015424156,3.1871770397021266,2.5514785990314297,1.3400000000256114
311825.2207,4.1239604771939415,3.9709648668917756,2.6610226436715534,2.4272565590969375,1.3410000000149012
311825.2217,3.7205278892005453,3.7481911776757433,2.0328588068235045,2.203608625997632,1.342000000004191
311825.2227,3.2325636775807416,3.4679336244604038,1.3523950985033943,1.921253258865791,1.3429999999934807
311825.2237,2.7141831639631384,3.1799119837790806,0.6763010450163258,1.627510338401976,1.3439999999827705
311825.2247,2.2229374082966626,2.935449733594293,0.06311382909703234,1.3713525590141347,1.345000000030268
311825.2257,1.8141653316098376,2.7817265390579635,-0.43218027198108044,1.1981612478706858,1.3460000000195578
311825.2267,1.5354776659496179,2.75626778331571,-0.7633763549750866,1.1447077008164703,1.3470000000088476
311825.2277,1.4219091673493394,2.8822408417960044,-0.897590935209248,1.2348657432083945,1.3479999999981374
311825.2287,1.4922138146078714,3.165056440927606,-0.8186699788427005,1.4764959810404734,1.3489999999874271
311825.2297,1.7466696039801601,3.5906518541091574,-0.5291271278548293,1.859833186273947,1.3500000000349246
311825.2307,2.166615473296937,4.125672501101072,-0.05041129406965083,2.357565850314751,1.3510000000242144
311825.2317,2.715776806702707,4.719585201975385,0.5785401754450789,2.9266348361685255,1.3520000000135042
311825.2327,3.343264002619766,5.308567696195748,1.304344580641836,3.511611934119587,1.353000000002794
311825.2337,3.9879674414767474,5.820843472955938,2.0635437009569206,4.049365100836462,1.3539999999920838
311825.2347,4.583937534995488,6.18298567757987,2.787904836767624,4.474590241739811,1.3549999999813735
311825.2357,5.066243476902449,6.326613194183623,3.410168934315408,4.725702002830218,1.356000000028871
311825.2367,5.376758103207556,6.194856015829464,3.8697191214820186,4.7505367961556075,1.3570000000181608
311825.2377,5.469323419806115,5.747980496115272,4.117650606173913,4.5113341761619665,1.3580000000074506
311825.2387,5.313811190915166,4.967637084451516,4.1207799719843665,3.9885266595664386,1.3589999999967404
311825.2397,4.898699706707113,3.859317069231344,3.8642329541418854,3.182977145099458,1.3599999999860302
311825.2407,4.231931106039557,2.4527690359208676,3.352385050108058,2.116446881410317,1.3610000000335276
311825.2417,3.339979510342933,0.8003146113239762,2.608085765313435,0.830241725087665,1.3620000000228174
311825.2427,2.2652326150580704,-1.0268013988453775,1.670259825796174,-0.6178455400914996,1.3630000000121072
311825.2437,1.061951536275265,-2.943707869733917,0.5901316376654062,-2.1580200678211257,1.364000000001397
311825.2447,-0.20879013553311676,-4.858378731635138,-0.5735520896192282,-3.7139875254163304,1.3649999999906868
311825.2457,-1.484690199716043,-6.67869691380779,-1.7598346732254788,-5.2089711466966975,1.3660000000381842
311825.2467,-2.7077784828541422,-8.319474398471298,-2.9108833569767634,-6.57169415151426,1.367000000027474
311825.2477,-3.8294131796600284,-9.708797623856851,-3.976834741294443,-7.7417847476306125,1.3680000000167638
311825.2487,-4.814229748270354,-10.79313286209366,-4.919694427818066,-8.674118741626758,1.3690000000060536
311825.2497,-5.6426643311293585,-11.540745002988764,-5.715930416859896,-9.341718410781255,1.3699999999953434
311825.2507,-6.311815743777977,-11.943143980705138,-6.357531245099042,-9.736965655935405,1.3709999999846332
311825.2517,-6.834575235620851,-12.014460420238835,-6.851453011982654,-9.871049073635785,1.3720000000321306
311825.2527,-7.237125351509552,-11.788847931031729,-7.217539334015204,-9.771732849209021,1.3730000000214204
311825.2537,-7.555071481863646,-11.316194998125086,-7.4851492633689025,-9.479694074433922,1.3740000000107102
311825.2547,-7.828606188804927,-10.656586788008942,-7.688855566639294,-9.04380899340566,1.375
311825.2557,-8.097203727510193,-9.874071304517132,-7.863667049987789,-8.515864974493514,1.3759999999892898
311825.2567,-8.394390730993383,-9.030344308193705,-8.040274930535501,-7.945224562277471,1.3770000000367872
311825.2577,-8.743133915493463,-8.178967616928587,-8.240820073840817,-7.373966195912335,1.378000000026077
311825.2587,-9.152327236817436,-7.360676007862334,-8.475625558549266,-6.832973487383219,1.3790000000153668
311825.2597,-9.614754728460518,-6.600214900261971,-8.74124260963274,-6.339346667652789,1.3800000000046566
311825.2607,-10.106761493722628,-5.904995483931885,-9.02002688561339,-5.895375673098632,1.3809999999939464
311825.2617,-10.589697906985826,-5.265671255871252,-9.281309229022847,-5.4891575576198,1.3819999999832362
311825.2627,-11.013027247253047,-4.6585479582143865,-9.484065255191366,-5.0967768450224975,1.3830000000307336
311825.2637,-11.318821751109546,-4.049556475206739,-9.580837214256464,-4.685812121197627,1.3840000000200234
311825.2647,-11.447232557645979,-3.3993631962135438,-9.522534231294703,-4.219800755606248,1.3850000000093132
311825.2657,-11.34241889226045,-2.6690798390813257,-9.26364584309906,-3.663198921552561,1.385999999998603
311825.2667,-10.958370973613457,-1.8259757275994126,-8.767357729991534,-2.986325231139292,1.3869999999878928
311825.2677,-10.264064638847731,-0.8485957473322997,-8.010062311063619,-2.1697779902917635,1.3880000000353903
311825.2687,-9.247443406092357,0.26925343178583183,-6.984810196500085,-1.2078680368116095,1.38900000002468
311825.2697,-7.917830204868097,1.5160736848593717,-5.703346292354489,-0.11070615610476009,1.3900000000139698
311825.2707,-6.306516134220838,2.862072442696162,-4.196507198648657,1.0952834236677045,1.3910000000032596
311825.2717,-4.465443425475429,4.2604749907689055,-2.5129115633068495,2.36849703031911,1.3919999999925494
311825.2727,-2.464077956314332,5.6506502013482836,-0.7160372079463928,3.654844502462618,1.3929999999818392
311825.2737,-0.38473603644558374,6.962767200198518,1.1200676194448052,4.891759173762836,1.3940000000293367
311825.2747,1.683225527897568,8.123547420504904,2.9160614888516405,6.013153315421374,1.3950000000186265
311825.2757,3.6498417255647997,9.062566085449829,4.593104248433525,6.954854227406441,1.3960000000079162
311825.2767,5.431023240425979,9.718500216756693,6.078648688297457,7.6600083983616285,1.396999999997206
311825.2777,6.954519078005216,10.044722344394005,7.311710471824771,8.08394342853413,1.3979999999864958
311825.2787,8.164837147732264,10.01369993318196,8.24714804432953,8.1980293815442,1.3990000000339933
311825.2797,9.026703114950585,9.619774107892592,8.858579369216544,7.992177671178955,1.400000000023283
311825.2807,9.526777891574415,8.880046340690823,9.139692575540227,7.475746915607687,1.4010000000125729
311825.2817,9.673519411690766,7.833283098805126,9.103860135808464,6.676778419156967,1.4020000000018626
311825.2827,9.495248708265088,6.536938229119852,8.782126112543994,5.639643972466854,1.4029999999911524
311825.2837,9.036646844418886,5.062572490685645,8.21978774736624,4.421339775896103,1.4040000000386499
311825.2847,8.354051899011418,3.490101596763872,7.471921526504363,3.086787699826886,1.4050000000279397
311825.2857,7.510030339679505,1.9014136290384533,6.5982974688720715,1.7035963986200091,1.4060000000172295
311825.2867,6.567754876410045,0.3739531896437031,5.658174898217661,0.33678119869370693,1.4070000000065193
311825.2877,5.585726124539549,-1.0251321454786169,4.705473908984356,-0.956061142085229,1.407999999995809
311825.2887,4.6133281584956505,-2.2437471777043596,3.7847694444630138,-2.128678202899684,1.4089999999850988
311825.2897,3.687613506610713,-3.2480817641514212,2.9284644478113107,-3.14883839857054,1.4100000000325963
311825.2907,2.8315811422401107,-4.024048332221723,2.1553742161821114,-3.9995368865531575,1.411000000021886
311825.2917,2.054055013070244,-4.576829173875997,1.4708084665831067,-4.678658776616288,1.4120000000111759
311825.2927,1.3511063453496623,-4.928623786337535,0.8680853199430935,-5.197182552200155,1.4130000000004657
311825.2937,0.7088068043439165,-5.1148614723869015,0.3312676151786116,-5.5761519650578535,1.4139999999897555
311825.2947,0.10696711298892327,-5.179291813456086,-0.16120906153301992,-5.842765910604956,1.415000000037253
311825.2957,-0.47657999541486745,-5.168471093870941,-0.6324335804492647,-6.026020933617056,1.4160000000265427
311825.2967,-1.061643246907666,-5.126216085415668,-1.1029018766597791,-6.152381689074102,1.4170000000158325
311825.2977,-1.6617723232653165,-5.088592779378312,-1.5868411630420052,-6.241946983321568,1.4180000000051223
311825.2987,-2.2812314629946937,-5.079947320264296,-2.0893814172697924,-6.30552387272009,1.418999999994412
311825.2997,-2.9131887993660333,-5.110375775145298,-2.604888005943833,-6.34292535915879,1.4199999999837019
311825.3007,-3.5393316474840537,-5.174879643073118,-3.1166456172906365,-6.342678313719554,1.4210000000311993
311825.3017,-4.1309649899665075,-5.254280188541498,-3.5979406535874547,-6.283180379043811,1.422000000020489
311825.3027,-4.651491483350035,-5.317784141005854,-4.0144413532335035,-6.13519262716707,1.4230000000097789
311825.3037,-5.060022579883436,-5.326924040982637,-4.327637107582301,-5.8654139636473746,1.4239999999990687
311825.3047,-5.315746971857475,-5.2404553887785,-4.498984630546245,-5.440767834635292,1.4249999999883585
311825.3057,-5.382597122493819,-5.019693812354884,-4.494330351691825,-4.832953352374134,1.426000000035856
311825.3067,-5.233715959166546,-4.633728570661605,-4.2881436152580825,-4.022779470848104,1.4270000000251457
311825.3077,-4.855238006071114,-4.063958538367308,-3.8671076227784615,-3.003815815251257,1.4280000000144355
311825.3087,-4.248961365286872,-3.307462442494808,-3.232673503507843,-1.7849558821830922,1.4290000000037253
311825.3097,-3.433593051618244,-2.3788300745009843,-2.4022817881142338,-0.391591583729741,1.429999999993015
311825.3107,-2.444389858377662,-1.3102341230114645,-1.4090852124447597,1.1347675831655624,1.4309999999823049
311825.3117,-1.3311763878157667,-0.14969803011329025,-0.3001544211691159,2.73844529015318,1.4320000000298023
311825.3127,-0.15488528931682793,1.042303545475455,0.8667008184880142,4.352978558855903,1.4330000000190921
311825.3137,1.0170841984471632,2.1976064488783833,2.0272228269849375,5.905644273765781,1.434000000008382
311825.3147,2.116269780817766,3.2460364193323,3.1157236029769186,7.322732900574126,1.4349999999976717
311825.3157,3.07880862959508,4.121465557037791,4.07036568442825,8.535092380232017,1.4359999999869615
311825.3167,3.850821040384564,4.7676620838062265,4.838210860208727,9.483433228873432,1.437000000034459
311825.3177,4.392995180533918,5.1433637835388435,5.379557231259165,10.1229032405811,1.4380000000237487
311825.3187,4.6839219902424825,5.226075860617591,5.671148021095375,10.426505376555713,1.4390000000130385
311825.3197,4.72184336606583,5.014213777796582,5.70793955631534,10.387039248776176,1.4400000000023283
311825.3207,4.5246249905132725,4.527369333180974,5.503251064762388,10.017384789158761,1.440999999991618
311825.3217,4.127933367454617,3.804658458157851,5.087272362330338,9.34910285846799,1.4419999999809079
311825.3227,3.5817685377064907,2.9012943631218415,4.504062275186567,8.429486520860713,1.4430000000284053
311825.3237,2.9456628839467376,1.8837015974134328,3.807315538060413,7.31734300722635,1.4440000000176951
311825.3247,2.2829868650328957,0.8236284484564763,3.0552947821945864,6.077905736854813,1.445000000006985
311825.3257,1.6548916175359976,-0.20818708159958838,2.3054054184778052,4.7773564945053035,1.4459999999962747
311825.3267,1.114457253350994,-1.1481983924667225,1.6089266968497096,3.477472059639412,1.4469999999855645
311825.3277,0.7016003272931658,-1.9454932304938,1.0063983671759669,2.2308938905315197,1.448000000033062
311825.3287,0.43922555101077515,-2.5659841607502734,0.5241003502754257,1.0774553953546857,1.4490000000223517
311825.3297,0.3309917330376523,-2.994953300274544,0.1719585062528766,0.04189513613399739,1.4500000000116415
311825.3307,0.36091100920936686,-3.2377174095000716,-0.056927058426298256,-0.8668535917124606,1.4510000000009313
311825.3317,0.4948280613906,-3.3183616197983046,-0.18509053156093802,-1.6547624598477733,1.4519999999902211
311825.3327,0.6836486737560965,-3.276677309995011,-0.2479651512549649,-2.340321715240324,1.4530000000377186
311825.3337,0.8680216185904913,-3.1636136546424236,-0.28987222446648947,-2.9509385518806437,1.4540000000270084
311825.3347,0.9840403333684847,-3.0356961476166364,-0.3591254536832069,-3.5185102054574187,1.4550000000162981
311825.3357,0.9694343123020769,-2.948964893485447,-0.5027270308531059,-4.074641982199461,1.456000000005588
311825.3367,0.7696738095299427,-2.953030914154616,-0.761171514174344,-4.646013913239046,1.4569999999948777
311825.3377,0.3434197263938383,-3.0858356755897955,-1.1638633664738416,-5.250383105593799,1.4579999999841675
311825.3387,-0.3331874305765442,-3.369628753637414,-1.7255951750027128,-5.893643734818459,1.459000000031665
311825.3397,-1.263795904126537,-3.808557883657729,-2.4444316752307182,-6.568259360312858,1.4600000000209548
311825.3407,-2.4309178832088842,-4.388106363360345,-3.3012096091149328,-7.253243364440837,1.4610000000102445
311825.3417,-3.7968912282769325,-5.0764304728772,-4.260708208975159,-7.915706471146338,1.4619999999995343
311825.3427,-5.306630874599002,-5.827462075320409,-5.274384697606717,-8.513830932468608,1.4629999999888241
311825.3437,-6.891906722392953,-6.585467221497157,-6.284419105340389,-9.000984808472683,1.4640000000363216
311825.3447,-8.476744521611812,-7.29060748964622,-7.228687383924113,-9.330571275638363,1.4650000000256114
311825.3457,-9.983445273384124,-7.884951089936447,-8.046193291053534,-9.461128871323467,1.4660000000149012
311825.3467,-11.3386664319837,-8.318335275278757,-8.6824462965893,-9.361166971818223,1.467000000004191
311825.3477,-12.479009392872154,-8.553494860581825,-9.094278896834782,-9.013239941189955,1.4679999999934807
311825.3487,-13.355611909187937,-8.569942465218643,-9.253651508655143,-8.416831652886936,1.4689999999827705
311825.3497,-13.937345595654218,-8.36620763945347,-9.150091134855387,-7.589733041626484,1.470000000030268
311825.3507,-14.212357409356255,-7.960202531168577,-8.791541654288778,-6.567738361657708,1.4710000000195578
311825.3517,-14.18785624375815,-7.387665585135648,-8.203556063328257,-5.402647112925389,1.4720000000088476
311825.3527,-13.88821562676755,-6.698824020236367,-7.426919458807986,-4.158722519576231,1.4729999999981374
311825.3537,-13.351624406416207,-5.953592002088828,-6.513940638267647,-2.907908059286363,1.4739999999874271
311825.3547,-12.62565362169896,-5.215767243738743,-5.523775480545187,-1.7242261348453427,1.4750000000349246
311825.3557,-11.762206344104918,-4.546789856578011,-4.517234686925342,-0.6778655091183794,1.4760000000242144
311825.3567,-10.81236873660547,-3.999673583401404,-3.5515734609136964,0.1705016001850357,1.4770000000135042
311825.3577,-9.821680168430325,-3.613706330791966,-2.6757570862281583,0.7746493779850917,1.478000000002794
311825.3587,-8.826288318349814,-3.410445226588173,-1.9266446885001953,1.106519633746504,1.4789999999920838
311825.3597,-7.850357242560654,-3.3914080223965546,-1.326438996042443,1.1583905062998026,1.4799999999813735
311825.3607,-6.904962357462149,-3.5376993833197488,-0.8816220890859301,0.9432937091577528,1.481000000028871
311825.3617,-5.9885497267468235,-3.8116232462663593,-0.5834486383403651,0.49364561147063213,1.4820000000181608
311825.3627,-5.088873698729855,-4.160139195014943,-0.409913681813955,-0.14177486074778423,1.4830000000074506
311825.3637,-4.186173228973443,-4.519840556372415,-0.3289668339032093,-0.9022135944246308,1.4839999999967404
311825.3647,-3.257218598134214,-4.8229823359156665,-0.3026232827625573,-1.7202788678394025,1.4849999999860302
311825.3657,-2.279769651641591,-5.0039829220255045,-0.29153597943225606,-2.52772701414212,1.4860000000335276
311825.3667,-1.2369433125712865,-5.005775042078141,-0.2595514908377091,-3.2611555056844876,1.4870000000228174
311825.3677,-0.12099640689588669,-4.785393680118485,-0.1777781463641076,-3.8670764738213856,1.4880000000121072
311825.3687,1.0639109221298415,-4.318260557893794,-0.027748648681549453,-4.305908177485962,1.489000000001397
311825.3697,2.300301572844816,-3.600749485981549,0.19664516981307198,-4.55453088173621,1.4899999999906868
311825.3707,3.557508871107603,-2.6507823568534246,0.48863987404010867,-4.607196282245842,1.4910000000381842
311825.3717,4.793376285795414,-1.506395697233249,0.8295572202638988,-4.474741987378518,1.492000000027474
311825.3727,5.957396041932928,-0.22241398617566188,1.1911249859809128,-4.182228692314667,1.4930000000167638
311825.3737,6.99500030014953,1.134450798088228,1.5389149068633898,-3.765271236677089,1.4940000000060536
311825.3747,7.8525930265827215,2.4916016449839784,1.8365338773336268,-3.2654606623568805,1.4949999999953434
311825.3757,8.482825354452713,3.7770828191732777,2.0501242646443703,-2.725360348576653,1.4959999999846332
311825.3767,8.849581056520604,4.926001732382763,2.152693688470471,-2.1835969132815567,1.4970000000321306
311825.3777,8.932155772569518,5.8862292289180775,2.1278076804920287,-1.6705522278564493,1.4980000000214204
311825.3787,8.728182656554884,6.622832405359829,1.972239178340493,-1.2050981231526927,1.4990000000107102
311825.3797,8.254971735527588,7.120818519701795,1.697271002921389,-0.7927066771367408,1.5
311825.3807,7.549079556116978,7.385933951676319,1.3284813209839472,-0.4251272128636253,1.5009999999892898
311825.3817,6.664095190560371,7.443452351316356,0.9039944167488757,-0.08166040813481991,1.5020000000367872
311825.3827,5.666801862957501,7.335082436711232,0.4713348052039409,0.26810379784376226,1.503000000026077
311825.3837,4.632033364768603,7.1143091665314655,0.0831663289530873,0.6603682523153648,1.5040000000153668
311825.3847,3.636675300411456,6.840634307514414,-0.2076849692738443,1.1324365467324757,1.5050000000046566
311825.3857,2.7533500504113704,6.573288882554793,-0.3534465261287443,1.7177346450033295,1.5059999999939464
311825.3867,2.0443622190678963,6.36504026542353,-0.3163432968317145,2.4410671690287717,1.5069999999832362
311825.3877,1.5564642340379768,6.256705938072203,-0.07277736414405338,3.314610584727961,1.5080000000307336
311825.3887,1.316931005124195,6.272915276472268,0.38368367635309747,4.3350765488616165,1.5090000000200234
311825.3897,1.3313146579303816,6.4195371668021215,1.0408278600181382,5.482366135228714,1.5100000000093132
311825.3907,1.583096446448865,6.6830269237444595,1.8680071421682818,6.719890531414176,1.510999999998603
311825.3917,2.035277637289947,7.031757001478697,2.8180510417237876,7.996570272801871,1.5119999999878928
311825.3927,2.6337711616782733,7.41920085645853,3.8307410908165687,9.250359172058559,1.5130000000353903
311825.3937,3.312288341570067,7.788657116039652,4.837551188003556,10.41298707931485,1.51400000002468
311825.3947,3.9982760210390316,8.07904971872747,5.767235614118143,11.415492405910095,1.5150000000139698
311825.3957,4.619362251352054,8.23123369062352,6.551762188964682,12.194033104658251,1.5160000000032596
311825.3967,5.109722556317547,8.194186023350401,7.132051124226321,12.695431686166092,1.5169999999925494
311825.3977,5.415788111951395,7.930471581580028,7.462994309592076,12.881929254480832,1.5179999999818392
311825.3987,5.500780963542094,7.420444032994196,7.517293878415195,12.734693753468605,1.5190000000293367
311825.3997,5.347673507135335,6.6647645903019095,7.28776694380388,12.255741977814184,1.5200000000186265
311825.4007,4.96031909555212,5.684984880616318,6.7879051420205725,11.46808247760731,1.5210000000079162
311825.4017,4.362673430129715,4.52212854964754,6.050639576612247,10.414053100868951,1.521999999997206
311825.4027,3.596205818007618,3.23340090282374,5.125428475829311,9.151996545094596,1.5229999999864958
311825.4037,2.715768266229543,1.8873380065125682,4.073940441799337,7.751573594386092,1.5240000000339933
311825.4047,1.784332659274024,0.5578584792722177,2.964735734065288,6.288141648936859,1.525000000023283
311825.4057,0.8671084393522648,-0.6822120833902376,1.8674392438012064,4.836713390871772,1.5260000000125729
311825.4067,0.025605689044807162,-1.767522866195829,0.8469430209468833,3.4660485860860053,1.5270000000018626
311825.4077,-0.6877934725037379,-2.6458737899736158,-0.04183071645445791,2.2334174479127498,1.5279999999911524
311825.4087,-1.2342482362378289,-3.282642404056281,-0.7581324409701642,1.1805081303661749,1.5290000000386499
311825.4097,-1.5914544988283363,-3.663539968798002,-1.2781823824156933,0.3308401733403472,1.5300000000279397
311825.4107,-1.7549618014416533,-3.795437420675484,-1.5963269094028418,-0.31109918269928927,1.5310000000172295
311825.4117,-1.737717452238204,-3.7051894134483385,-1.7244776127381736,-0.7589439411628962,1.5320000000065193
311825.4127,-1.5679173245959122,-3.436578889200316,-1.6899209601542744,-1.0418809197118606,1.532999999995809
311825.4137,-1.2854074345077746,-3.0456866947845174,-1.5317412054930755,-1.200698409333493,1.5339999999850988
311825.4147,-0.9370197845905026,-2.595142861517,-1.2962294857140253,-1.282856203506204,1.5350000000325963
311825.4157,-0.5713266436678983,-2.147823482591388,-1.0317452514568084,-1.337071351762649,1.536000000021886
311825.4167,-0.2333497575532505,-1.7606092136392293,-0.7835435041968262,-1.4079557269825065,1.5370000000111759
311825.4177,0.0402399344607345,-1.4788132573686759,-0.5890783898068288,-1.5312310098283546,1.5380000000004657
311825.4187,0.2249503335232587,-1.3318191482929789,-0.4742410585688428,-1.7299851879923258,1.5389999999897555
311825.4197,0.3109434327848651,-1.33034842354173,-0.4508927190957846,-2.0123283074159968,1.540000000037253
311825.4207,0.30391567494560245,-1.4656172097637195,-0.5159221698546275,-2.3706645218187408,1.5410000000265427
311825.4217,0.22430312848100728,-1.710454731874262,-0.6519038241780776,-2.7826363187937657,1.5420000000158325
311825.4227,0.1049003423347697,-2.022264052926126,-0.829272465336733,-3.2136309803865677,1.5430000000051223
311825.4237,-0.012858558868923797,-2.3475249182314575,-1.0097803826576341,-3.6205851101429767,1.543999999994412
311825.4247,-0.08357352030726639,-2.627388104367579,-1.1508759059992448,-3.9566955038542346,1.5449999999837019
311825.4257,-0.0630279887633289,-2.803804894329062,-1.2105520397743468,-4.176556187985535,1.5460000000311993
311825.4267,0.08671279556608505,-2.8255845191126934,-1.1521686633870638,-4.24120066632722,1.547000000020489
311825.4277,0.39277690079234384,-2.653781492767389,-0.9487559219471056,-4.122539173069531,1.5480000000097789
311825.4287,0.8679996714207997,-2.265882683095137,-0.5863594202765123,-3.8067418318035533,1.5489999999990687
311825.4297,1.5088388415565683,-1.6583838686015024,-0.06608429211606637,-3.296223926093505,1.5499999999883585
311825.4307,2.2949137463719755,-0.8475054890174868,0.5953744830794998,-2.6100285314172735,1.551000000035856
311825.4317,3.190229973691642,0.13201856326069203,1.3667769395503544,-1.7825607831033026,1.5520000000251457
311825.4327,4.145982936537853,1.2299551512945213,2.2048624470916804,-0.8607913709350632,1.5530000000144355
311825.4337,5.10467637491106,2.385087813784447,3.058110235906754,0.09980161873719332,1.5540000000037253
311825.4347,6.005160307078692,3.5307860182661353,3.871369465985975,1.0401585346217948,1.554999999993015
311825.4357,6.7881004629980275,4.60107694621339,4.590905086324258,1.9029517398228313,1.5559999999823049
311825.4367,7.401346899667967,5.536621257134058,5.169363503418399,2.637768372593171,1.5570000000298023
311825.4377,7.8046777149320725,6.290005792219672,5.570168866339518,3.2056561281288096,1.5580000000190921
311825.4387,7.973453749017894,6.8298357056785814,5.770915895673266,3.5825880772859757,1.559000000008382
311825.4397,7.9008259923652435,7.143229089987827,5.765423201465836,3.7615083267193383,1.5599999999976717
311825.4407,7.598278682557913,7.23647680733529,5.564242301244704,3.7527592955607596,1.5609999999869615
311825.4417,7.094453856806882,7.1338131356731775,5.193569147125133,3.582849860066201,1.562000000034459
311825.4427,6.432371390322281,6.874430889035973,4.692661986651559,3.2916860201527975,1.5630000000237487
311825.4437,5.665315711359777,6.508049285541819,4.110016365910127,2.9285361159021046,1.5640000000130385
311825.4447,4.851790944840936,6.089486750181217,3.4986705662972852,2.5471262028113846,1.5650000000023283
311825.4457,4.050037315810773,5.672789816948423,2.9111006784272644,2.2003458539978875,1.565999999991618
311825.4467,3.312644241756546,5.305513525913853,2.3942053725519488,1.935082094598753,1.5669999999809079
311825.4477,2.6817854293392114,5.023733776550539,1.9848721572295513,1.7876857281835514,1.5680000000284053
311825.4487,2.1855394257902723,4.848299407636436,1.7065602788992507,1.7805113270474597,1.5690000000176951
311825.4497,1.8356515152107593,4.782708426972535,1.5672359051982803,1.9198658359751188,1.570000000006985
311825.4507,1.6269501574780199,4.812830909552179,1.5588625675744379,2.1955615491869978,1.5709999999962747
311825.4517,1.5384673740017145,4.908516532810716,1.6584969909758662,2.5821108601099185,1.5719999999855645
311825.4527,1.5361437139727308,5.026935689208998,1.830882381898186,3.04143823638217,1.573000000033062
311825.4537,1.5768413195445727,5.11732825131072,2.032283482509784,3.5268352765786974,1.5740000000223517
311825.4547,1.6132586553128467,5.126690651156066,2.215184741923619,3.987762189305137,1.5750000000116415
311825.4557,1.5992505322045603,5.005834212713632,2.3333869101228206,4.375015672138392,1.5760000000009313
311825.4567,1.495016076707473,4.7152054326482835,2.3469967324554393,4.645747187642222,1.5769999999902211
311825.4577,1.2716294108455173,4.229876514613718,2.226813285725448,4.767830614733979,1.5780000000377186
311825.4587,0.9144519400981199,3.543190447625058,1.9576720851626572,4.723142768665113,1.5790000000270084
311825.4597,0.4250751028314764,2.66867208393452,1.540408869474217,4.509428035038087,1.5800000000162981
311825.4607,-0.17841249423030292,1.6399827958321993,0.9922391680390447,4.1405587994813455,1.581000000005588
311825.4617,-0.8628736291430481,0.5088853135093231,0.34550431337076776,3.645162695126141,1.5819999999948777
311825.4627,-1.5831561256401812,-0.6586210723826237,-0.35510558791882046,3.0637502746098884,1.5829999999841675
311825.4637,-2.286422505415429,-1.7876554545480516,-1.0565916867294842,2.444626532211684,1.584000000031665
311825.4647,-2.9173557315296166,-2.800813376667325,-1.7025648197683956,1.8389919625577382,1.5850000000209548
311825.4657,-3.4237310656662916,-3.6249396902466757,-2.2385703417448632,1.2957214202714593,1.5860000000102445
311825.4667,-3.7618036960742818,-4.197682769146268,-2.617305771790188,0.8563436745812683,1.5869999999995343
311825.4677,-3.900975300735083,-4.473212326123592,-2.803226008607329,0.5507276457425975,1.5879999999888241
311825.4687,-3.827268992680371,-4.426558195345096,-2.776088432946632,0.39391431755156286,1.5890000000363216
311825.4697,-3.545254884642664,-4.056154912189257,-2.533091468814074,0.38442260592604455,1.5900000000256114
311825.4707,-3.0782169719428656,-3.384344554444838,-2.089395307732657,0.5042136969770903,1.5910000000149012
311825.4717,-2.466521805715687,-2.455782013813151,-1.476969379549016,0.7203354967432745,1.592000000004191
311825.4727,-1.7643240225290893,-1.3338841959271415,-0.74187259932513,0.988102734365125,1.5929999999934807
311825.4737,-1.0349061945479214,-0.09564858734048577,0.05977630939191123,1.2555151922132244,1.5939999999827705
311825.4747,-0.34508478498800454,1.174680554314334,0.8667547832258049,1.4684915621338213,1.595000000030268
311825.4757,0.24079295501155554,2.3925131639892316,1.618145993843763,1.5764119346489238,1.5960000000195578
311825.4767,0.6666937349420647,3.479745436036205,2.2586862664325023,1.5374264128362805,1.5970000000088476
311825.4777,0.8900294110203805,4.370897098205041,2.743541683881214,1.3230045624671725,1.5979999999981374
311825.4787,0.885585366214226,5.017998057097367,3.0420617981121274,0.9212689991677726,1.5989999999874271
311825.4797,0.6478702960001784,5.393791650866058,3.1401588715320936,0.33876999508901123,1.6000000000349246
311825.4807,0.19166164634577104,5.492985787250558,3.0410956402039666,-0.3994942247688179,1.6010000000242144
311825.4817,-0.4493069345352937,5.331472246507953,2.7646200346974457,-1.2518389954877711,1.6020000000135042
311825.4827,-1.225392248966482,4.943629970834738,2.344546382143709,-2.163292331265948,1.603000000002794
311825.4837,-2.075532725467627,4.378011218842415,1.825033566089464,-3.070328488923664,1.6039999999920838
311825.4847,-2.932756748420555,3.6918622619820725,1.2559366657157085,-3.9065020419116467,1.6049999999813735
311825.4857,-3.7301842849597127,2.9450380537543133,0.68769741297644,-4.6084587102149515,1.606000000028871
311825.4867,-4.40695213454224,2.1939226563462544,0.16628173639203175,-5.121759163572868,1.6070000000181608
311825.4877,-4.913502417033466,1.4859592447749803,-0.2713344475457084,-5.405965828244775,1.6080000000074506
311825.4887,-5.215737383880139,0.8553262195560157,-0.6006864200478569,-5.438509232860309,1.6089999999967404
311825.4897,-5.29765507614605,0.3201761471670089,-0.8120041178382564,-5.2169633830103095,1.6099999999860302
311825.4907,-5.162228882170541,-0.11830614918647153,-0.9108470383415108,-4.759508314418028,1.6110000000335276
311825.4917,-4.830465174528837,-0.47495510802630925,-0.9171342707608563,-4.103528133288568,1.6120000000228174
311825.4927,-4.338750242084399,-0.7779057827638933,-0.8626732526832253,-3.3024682098303617,1.6130000000121072
311825.4937,-3.734763421584938,-1.0644041966512967,-0.787440457501692,-2.421238931902406,1.614000000001397
311825.4947,-3.0723715347091662,-1.3755946220045903,-0.7349917885455799,-1.5305898491957903,1.6149999999906868
311825.4957,-2.4060170039391626,-1.7508355911464855,-0.7474677281580329,-0.7009740795490034,1.6160000000381842
311825.4967,-1.7851589135827168,-2.2221451939369956,-0.8606996594786689,0.0035306537401986245,1.617000000027474
311825.4977,-1.2493182882581666,-2.8093649837174524,-1.0999151433998584,0.5306854028130136,1.6180000000167638
311825.4987,-0.8242168357892639,-3.51656165710036,-1.4764820965871004,0.8444393377177132,1.6190000000060536
311825.4997,-0.5193884832310337,-4.330063448336012,-1.9860304097631856,0.9277742019261077,1.6199999999953434
311825.5007,-0.3274960429759209,-5.218365868671672,-2.608154476516396,0.783797256859149,1.6209999999846332
311825.5017,-0.2254157207194336,-6.13395496258633,-3.3077445862169244,0.43500292830484344,1.6220000000321306
311825.5027,-0.1769765654184331,-7.016903977285575,-4.037834397480155,-0.07920332371761245,1.6230000000214204
311825.5037,-0.1370775874260067,-7.799920178661626,-4.743701500249559,-0.7064623120698303,1.6240000000107102
311825.5047,-0.0567682508434174,-8.414370168623487,-5.367833124776875,-1.3865057981022337,1.625
311825.5057,0.11121818818422646,-8.796709149278891,-5.855281633836703,-2.0567964454378864,1.6259999999892898
311825.5067,0.40703503852670947,-8.894692395109649,-6.158893149591512,-2.658220824960475,1.6270000000367872
311825.5077,0.8589440413090298,-8.672760557607017,-6.243901626675333,-3.1402957513041243,1.628000000026077
311825.5087,1.479673934470441,-8.11606325237353,-6.0914390947040085,-3.4654027462421473,1.6290000000153668
311825.5097,2.264290483036045,-7.23271077577105,-5.700615039811251,-3.611666263550804,1.6300000000046566
311825.5107,3.189805316257294,-6.05400974018261,-5.08895408523343,-3.574228320566153,1.6309999999939464
311825.5117,4.216580876737187,-4.632628911192179,-4.291138066328637,-3.3648317538389767,1.6319999999832362
311825.5127,5.291412751024347,-3.0388381738126378,-3.3561610556590837,-3.009790726516128,1.6330000000307336
311825.5137,6.352005812274197,-1.3551473261115679,-2.3431581213210615,-2.5465840697603874,1.6340000000200234
311825.5147,7.332423068074412,0.33017549406721236,-1.3162958363616526,-2.019439268262683,1.6350000000093132
311825.5157,8.168989311915276,1.930118330108355,-0.3392024727990153,-1.474369637234149,1.635999999998603
311825.5167,8.806085092658106,3.365833763547951,0.5305402826851454,-0.9541754646427991,1.6369999999878928
311825.5177,9.201274714167695,4.5728112344600484,1.2463285789961178,-0.49391719499368125,1.6380000000353903
311825.5187,9.329274188350773,5.505752734062073,1.776430989152641,-0.11731571585366227,1.63900000002468
311825.5197,9.184375257665247,6.141713899070598,2.106486770819696,0.165562979652795,1.6400000000139698
311825.5207,8.781089073988136,6.4812366379425175,2.2403824109061747,0.3591141218991081,1.6410000000032596
311825.5217,8.15294353951832,6.547389138769729,2.19943658111956,0.4814210404386849,1.6419999999925494
311825.5227,7.349545124816936,6.382826130664969,2.0199852609322986,0.5619925019269236,1.6429999999818392
311825.5237,6.43218201004572,6.0451676060170785,1.7496108434849118,0.6382510347418744,1.6440000000293367
311825.5247,5.468384541533435,5.601150046205431,1.442386811817966,0.7511387136455441,1.6450000000186265
311825.5257,4.525957783389334,5.1201156208161756,1.1536007453348294,0.9402957390309129,1.6460000000079162
311825.5267,3.667049844769603,4.667461294678305,0.9344642813638522,1.239310189503684,1.646999999997206
311825.5277,2.9428140213942746,4.2986660934309855,0.8273149549943489,1.6715303753353736,1.6479999999864958
311825.5287,2.3891632708215633,4.054451625121216,0.861762169780141,2.2468750500556274,1.6490000000339933
311825.5297,2.024008061749824,3.9575147918933435,1.0521332977272977,2.959976995186908,1.650000000023283
311825.5307,1.8462237814562785,4.01111404549523,1.396445702622497,3.7898621331530684,1.6510000000125729
311825.5317,1.8364258606004908,4.199607122427566,1.8769792519677877,4.701212620026088,1.6520000000018626
311825.5327,1.9594560188366854,4.490846969386844,2.462366570139384,5.647103603728299,1.6529999999911524
311825.5337,2.1683186031752233,4.840162247635691,3.1109703711931243,6.572955281108208,1.6540000000386499
311825.5347,2.4091678856171796,5.195496944265206,3.775193194513422,7.421319262555929,1.6550000000279397
311825.5357,2.6268487904380384,5.503174910588592,4.406276844745,8.137033252886576,1.6560000000172295
311825.5367,2.7704442928945756,5.713699989429284,4.959105312514967,8.672239158571886,1.6570000000065193
311825.5377,2.7982872840761335,5.787005880951092,5.396530006749237,8.990770852292636,1.657999999995809
311825.5387,2.6819523582076474,5.696631346905135,5.692789031157628,9.071477938661037,1.6589999999850988
311825.5397,2.4088478660983594,5.4324093864658005,5.835687522600844,8.910155096649556,1.6600000000325963
311825.5407,1.983170187223576,5.001412202543433,5.827334089584643,8.51988278385874,1.661000000021886
311825.5417,1.425146418455136,4.427071771140296,5.683376274078882,7.9297408651533035,1.6620000000111759
311825.5427,0.7686622860574456,3.746580888591063,5.430830893607906,7.182016714874978,1.6630000000004657
311825.5437,0.057532200787069845,3.0068533188781417,5.104747812431851,6.328177744012876,1.6639999999897555
311825.5447,-0.6591977901478506,2.2594668786666245,4.744063890668705,5.424000449008204,1.665000000037253
311825.5457,-1.3324290038189694,1.555115623861898,4.387085771329013,4.52433186348967,1.6660000000265427
311825.5467,-1.9181402055642967,0.9381466498523575,4.06707761237764,3.6779963781235203,1.6670000000158325
311825.5477,-2.381945283631874,0.4417485561436411,3.8084191114210197,2.923347526058084,1.6680000000051223
311825.5487,-2.7026146603261716,0.08429324857982289,3.6237412656795414,2.284901724755961,1.668999999994412
311825.5497,-2.874202485776376,-0.13278301623170385,3.512348020521256,1.7713851814506572,1.6699999999837019
311825.5507,-2.9065632518710895,-0.22532809160807044,3.4601011770467607,1.3753865294734333,1.6710000000311993
311825.5517,-2.824204648875638,-0.22499883693586514,3.440796695129688,1.0746498346247426,1.672000000020489
311825.5527,-2.6635920320469437,-0.17609341254853844,3.4189077443996303,0.8348808804931002,1.6730000000097789
311825.5537,-2.4691770016257624,-0.13099355321972572,3.3534288058952533,0.6137899928301884,1.6739999999990687
311825.5547,-2.28855267821969,-0.14466154992631686,3.202439961987546,0.365971817420261,1.6749999999883585
311825.5557,-2.1672282936711875,-0.26873519830358594,2.9279328433485965,0.048138536196203494,1.676000000035856
311825.5567,-2.143556682184574,-0.5458090175472071,2.5004074467461583,-0.37581369484240296,1.6770000000251457
311825.5577,-2.2443359621405747,-1.0044770076919711,1.9027656288316839,-0.930411082235044,1.6780000000144355
311825.5587,-2.4815422275337586,-1.6556422181734467,1.133091118679594,-1.6253234544454227,1.6790000000037253
311825.5597,-2.8505396700640087,-2.4904781802842355,0.20601127265914537,-2.453535273415703,1.679999999993015
311825.5607,-3.3299690394087462,-3.4802684967627115,-0.8475276916031148,-3.391160859497301,1.6809999999823049
311825.5617,-3.883349031166147,-4.5781690750472785,-1.9820859177551375,-4.3989385413622255,1.6820000000298023
311825.5627,-4.462254473675022,-5.722750413187448,-3.141012500182365,-5.425274889112711,1.6830000000190921
311825.5637,-5.010776948001617,-6.843003315068209,-4.260898058766177,-6.410558794567367,1.684000000008382
311825.5647,-5.470843413412412,-7.864347482267059,-5.276792585757621,-7.2923407130879525,1.6849999999976717
311825.5657,-5.787879478809162,-8.71508272953298,-6.1277051062333125,-8.010887036653015,1.6859999999869615
311825.5667,-5.9162650936757135,-9.332676909006416,-6.761869414753602,-8.514581672811845,1.687000000034459
311825.5677,-5.824045657634077,-9.669297537567592,-7.141277696725279,-8.7646601710314,1.6880000000237487
311825.5687,-5.496429582106614,-9.696064416083512,-7.2450497152997935,-8.738824884383503,1.6890000000130385
311825.5697,-4.937717704860659,-9.405621422962275,-7.0713132286873615,-8.43339653029706,1.6900000000023283
311825.5707,-4.171459619900112,-8.812785438561805,-6.6374110677500875,-7.863797704855606,1.690999999991618
311825.5717,-3.238802418994996,-7.953213508536906,-5.978408404618343,-7.06332375319095,1.6919999999809079
311825.5727,-2.1951719622798986,-6.88021811241386,-5.144034926061676,-6.080320340585361,1.6930000000284053
311825.5737,-1.1055885803104382,-5.660036465954427,-4.194345309965434,-4.9740391590048505,1.6940000000176951
311825.5747,-0.03905226338764145,-4.366006102408649,-3.1945031968878643,-3.8095686723733038,1.695000000006985
311825.5757,0.9374761054300045,-3.0722014107096576,-2.209176946184687,-2.652323499836706,1.6959999999962747
311825.5767,1.7649300432432242,-1.8471345041305878,-1.2970717985888052,-1.5626156108030824,1.6969999999855645
311825.5777,2.397275658729191,-0.7481141327448634,-0.5061090872061992,-0.5908192223666568,1.698000000033062
311825.5787,2.8054463275604906,0.18321060506965106,0.130299832567839,0.2264196175423149,1.6990000000223517
311825.5797,2.979701602343345,0.9237126319335817,0.595543164691067,0.868582234906351,1.7000000000116415
311825.5807,2.9301882082891635,1.4698030020592283,0.8904586106542893,1.3320764894145463,1.7010000000009313
311825.5817,2.6856525125174335,1.8365290254988826,1.0322984572376743,1.6293844494269432,1.7019999999902211
311825.5827,2.2904302564128156,2.054869516600972,1.0521266408620535,1.7866688010549,1.7030000000377186
311825.5837,1.8000035743429728,2.1675171578722034,0.9909150964894382,1.840098314781219,1.7040000000270084
311825.5847,1.2755515461749063,2.2235838966778587,0.8947311098940892,1.8312765816007073,1.7050000000162981
311825.5857,0.77801562709391,2.2727681039857233,0.8094937416883544,1.80224383053114,1.706000000005588
311825.5867,0.36224613908810455,2.3595719733033045,0.7758173732940685,1.7905606431603647,1.7069999999948777
311825.5877,0.0717863376879535,2.5181495545009085,0.8244502199027648,1.824971055663085,1.7079999999841675
311825.5887,-0.06521259318756183,2.7683007759399283,0.9727563000137364,1.9220820886749184,1.709000000031665
311825.5897,-0.03856272016068286,3.113011245449461,1.2225866368868445,2.084393193258272,1.7100000000209548
311825.5907,0.14313920171574104,3.537782910158025,1.5597493794556352,2.2998726987645526,1.7110000000102445
311825.5917,0.4535067225202021,4.011822002429761,1.95513228054405,2.543122573394982,1.7119999999995343
311825.5927,0.851066768218224,4.490965658849509,2.3673697162536484,2.7780130442655695,1.7129999999888241
311825.5937,1.2833985283904439,4.9220553605439505,2.7467958062941875,2.9615206518858277,1.7140000000363216
311825.5947,1.6922989835817859,5.248320949654152,3.040299795330577,3.0483817633390053,1.7150000000256114
311825.5957,2.0194691692639184,5.415237654758465,3.1966118193102675,2.9960904776029893,1.7160000000149012
311825.5967,2.2121680135863393,5.376270317397959,3.171505014417764,2.769733486467557,1.717000000004191
311825.5977,2.2282872397829263,5.097928657264857,2.9324076777094157,2.3461684712871325,1.7179999999934807
311825.5987,2.0403605835777374,4.563624063753649,2.4619760546655582,1.7171157221978663,1.7189999999827705
311825.5997,1.6381274609498253,3.7759355648593553,1.760278734468031,0.8908387212369872,1.720000000030268
311825.6007,1.029414666109658,2.757048825458541,0.8453777732747106,-0.1077719558553278,1.7210000000195578
311825.6017,0.23926556559561554,1.5473119242035374,-0.247753542231601,-1.2387395167258453,1.7220000000088476
311825.6027,-0.692581706668803,0.20203754444572056,-1.4698760172312932,-2.4500337476453713,1.7229999999981374
311825.6037,-1.7156042222148646,-1.2131452450222784,-2.761442366244878,-3.6818143948634305,1.7239999999874271
311825.6047,-2.77339474496839,-2.6279424065524597,-4.057491282745875,-4.871482521340182,1.7250000000349246
311825.6057,-3.8090599290587726,-3.9735020867984896,-5.293012728777113,-5.959055202372215,1.7260000000242144
311825.6067,-4.770577205609305,-5.188383585101449,-6.408276068133303,-6.892344370114542,1.7270000000135042
311825.6077,-5.615578487226279,-6.223806256195605,-7.3536188930371065,-7.631437093778633,1.728000000002794
311825.6087,-6.315088524233019,-7.047665959440426,-8.09324945749022,-8.15204062417187,1.7289999999920838
311825.6097,-6.85585202130313,-7.646926892503571,-8.60771401106463,-8.44736478266903,1.7299999999813735
311825.6107,-7.241025901044551,-8.028155864537851,-8.89481226389869,-8.528356105387244,1.731000000028871
311825.6117,-7.489177276476703,-8.216148657859701,-8.968896666801712,-8.42225869677956,1.7320000000181608
311825.6127,-7.631697510615265,-8.250786142476098,-8.858649125171315,-8.169640259822987,1.7330000000074506
311825.6137,-7.708901391939373,-8.182432714468252,-8.60357663509896,-7.820172179124814,1.7339999999967404
311825.6147,-7.765212238147658,-8.066334148722078,-8.249590608005208,-7.4275750167335595,1.7349999999860302
311825.6157,-7.84392560851409,-7.956571767508448,-7.844121261856315,-7.044223228342929,1.7360000000335276
311825.6167,-7.982087147349493,-7.900174981505745,-7.431259969384056,-6.715937117619095,1.7370000000228174
311825.6177,-8.206009625389196,-7.931980172843333,-7.047414904417514,-6.477472536659437,1.7380000000121072
311825.6187,-8.527891480980445,-8.070751796211846,-6.717909611820366,-6.349151199629685,1.739000000001397
311825.6197,-8.943890243387148,-8.31695841918553,-6.454855904240903,-6.334963216161065,1.7399999999906868
311825.6207,-9.433859863808634,-8.652434187241207,-6.256501619432128,-6.422329375899646,1.7410000000381842
311825.6217,-9.962795413533426,-9.041970728687652,-6.108103335607598,-6.58354787191208,1.742000000027474
311825.6227,-10.483858172451441,-9.436693970649884,-5.984219143666963,-6.778784455697533,1.7430000000167638
311825.6237,-10.942695668735622,-9.778903415231442,-5.852172456926817,-6.9603127029914935,1.7440000000060536
311825.6247,-11.282640431679667,-10.007905522154989,-5.676318953899553,-7.0775870965809204,1.7449999999953434
311825.6257,-11.450281073798676,-10.066272351113138,-5.422666940300529,-7.082648218901228,1.7459999999846332
311825.6267,-11.400858831956885,-9.90591150320537,-5.063364844044229,-6.935324770744476,1.7470000000321306
311825.6277,-11.10295600250936,-9.493348232183886,-4.580581894095716,-6.607714911513401,1.7480000000214204
311825.6287,-10.542008646461897,-8.813694081362025,-3.9693681010919564,-6.0874979573162324,1.7490000000107102
311825.6297,-9.722288180160984,-7.872901511062866,-3.2391815386499165,-5.3797402156340635,1.75
311825.6307,-8.667144101719543,-6.698068626228036,-2.413904550104935,-4.507004784339895,1.7509999999892898
311825.6317,-7.417468728442987,-5.335746322790384,-1.530322646670586,-3.5077403248620525,1.7520000000367872
311825.6327,-6.028517938670363,-3.848393644960213,-0.6351954343092,-2.4330920599080934,1.753000000026077
311825.6337,-4.565382548554551,-2.309307039368631,0.21880754626140625,-1.3424331360086927,1.7540000000153668
311825.6347,-3.0975373233539596,-0.796497955270513,0.977915958456662,-0.2980408865776815,1.7550000000046566
311825.6357,-1.692985673446057,0.613903670931513,1.5923435138812994,0.6405719659606822,1.7559999999939464
311825.6367,-0.41255878736233104,1.8540952083743103,2.0211461498368406,1.4221249589452065,1.7569999999832362
311825.6377,0.6950858104218106,2.8702847460497916,2.2363676302560975,2.008306989177653,1.7580000000307336
311825.6387,1.5972883140016754,3.627072949021489,2.226051304173851,2.37732175362453,1.7590000000200234
311825.6397,2.2796692017077747,4.11011898033648,1.995803462131758,2.525893676982597,1.7600000000093132
311825.6407,2.7466558886391312,4.326841175294758,1.5687322268670947,2.4695337943786995,1.760999999998603
311825.6417,3.0202099820155,4.305092475827899,0.9837427732576473,2.241032218157717,1.7619999999878928
311825.6427,3.1368871930829703,4.08994583286625,0.2923296192832656,1.887314639636081,1.7630000000353903
311825.6437,3.1435249396016465,3.738906894685993,-0.4458458686234051,1.4649582451715286,1.76400000002468
311825.6447,3.0919871269795003,3.316022608012532,-1.1681842228361217,1.0347921372244957,1.7650000000139698
311825.6457,3.033488304069284,2.885460139498633,-1.8146928502354496,0.6560962424390038,1.7660000000032596
311825.6467,3.013061177795751,2.505180473922126,-2.333322760627502,0.3809521045311664,1.7669999999925494
311825.6477,3.0647181162642925,2.221320288347638,-2.684588752923687,0.24928503511673283,1.7679999999818392
311825.6487,3.2077899244185804,2.063825274914369,-2.8450302583548255,0.2850711352826392,1.7690000000293367
311825.6497,3.444810266238442,2.0437548392451608,-2.8091787299401823,0.49407105596948314,1.7700000000186265
311825.6507,3.7611627207348444,2.152514038507185,-2.5898390148848125,0.8633058205652977,1.7710000000079162
311825.6517,4.126534275528962,2.363079730850844,-2.216652982202511,1.3623227618441087,1.771999999997206
311825.6527,4.498040931939564,2.6330926056543866,-1.733078306936454,1.946127815167888,1.7729999999864958
311825.6537,4.824725403115639,2.9095041089233766,-1.1920678116919312,2.5595006910974836,1.7740000000339933
311825.6547,5.052989855572755,3.13431510733894,-0.6508603281613247,3.142277280126412,1.775000000023283
311825.6557,5.132431752238138,3.2508363226298016,-0.165380415543574,3.635091799825623,1.7760000000125729
311825.6567,5.02150751021138,3.209849571746816,0.21521703470663175,3.985028538076176,1.7770000000018626
311825.6577,4.692461297503607,2.9750586785460587,0.453334166198483,4.150643647578786,1.7779999999911524
311825.6587,4.135023823482138,2.5272886466159865,0.5265897318855006,4.105880195638515,1.7790000000386499
311825.6597,3.358502031405366,1.867014506453974,0.42999898253447877,3.8425083834274445,1.7800000000279397
311825.6607,2.3920340323949287,1.014965173812709,0.17646401804238732,3.370866863536759,1.7810000000172295
311825.6617,1.2829596095773648,0.010736641589731893,-0.20447270816166246,2.718846317051977,1.7820000000065193
311825.6627,0.09343811639962675,-1.090455636049808,-0.6694916898715247,1.9292267629404682,1.782999999995809
311825.6637,-1.1043850301236235,-2.222572394364932,-1.1657004602037688,1.0556388512918717,1.7839999999850988
311825.6647,-2.2342212770161183,-3.3146291328261137,-1.635772982599621,0.15755117811405084,1.7850000000325963
311825.6657,-3.2219508225786324,-4.297085714333773,-2.023528428540039,-0.7052223423047052,1.786000000021886
311825.6667,-4.0018164394059275,-5.1081243658794,-2.2794108590948716,-1.4779576811170232,1.7870000000111759
311825.6677,-4.521922121206391,-5.699203823899407,-2.365340760811828,-2.1158705450901367,1.7880000000004657
311825.6687,-4.748524891855007,-6.039347856021355,-2.2584699354390905,-2.587914069390486,1.7889999999897555
311825.6697,-4.668722762107969,-6.117750132922124,-1.9534770590037205,-2.879164221364639,1.790000000037253
311825.6707,-4.291294534873471,-5.944442319491992,-1.4631820671941098,-2.991574404468602,1.7910000000265427
311825.6717,-3.64562311773933,-5.5489621556008455,-0.8174197512226086,-2.9430433134846674,1.7920000000158325
311825.6727,-2.77881612681944,-4.977154589258996,-0.060280849760892645,-2.764907557586444,1.7930000000051223
311825.6737,-1.7513082033896765,-4.286422451732319,0.7540137582039554,-2.498126444605394,1.793999999994412
311825.6747,-0.6313721007846419,-3.539895712087735,1.5662086390368228,-2.188555280162565,1.7949999999837019
311825.6757,0.5109335288530291,-2.80009501409229,2.3175890440708526,-1.881792917589616,1.7960000000311993
311825.6767,1.6098022835943295,-2.122715458741665,2.955500148072898,-1.6181303422481423,1.797000000020489
311825.6777,2.609133382074577,-1.551145443080585,3.4382809217438566,-1.4281157901470904,1.7980000000097789
311825.6787,3.466891451181807,-1.1122638024015603,3.7391406983139324,-1.3291894361768053,1.7989999999990687
311825.6797,4.157974890737472,-0.8139334483183758,3.8486094045241277,-1.3237332231264858,1.7999999999883585
311825.6807,4.675344014155333,-0.6444433172308006,3.775330762720812,-1.3987395422999156,1.801000000035856
311825.6817,5.029332608436284,-0.5739589739446029,3.5451280462314263,-1.52714020449262,1.8020000000251457
311825.6827,5.245245478510047,-0.5578443670791612,3.1984385847124828,-1.6706704506682764,1.8030000000144355
311825.6837,5.359512410169567,-0.5415323745732664,2.7863699781148403,-1.7839880812535391,1.8040000000037253
311825.6847,5.414809384301198,-0.46646803822302596,2.3657626826264178,-1.819640398741126,1.804999999993015
311825.6857,5.454657100334919,-0.27654087995972926,1.993737544238231,-1.7333841608099838,1.8059999999823049
311825.6867,5.518055271573209,0.07562796524286393,1.7222539510617492,-1.4893248271612023,1.8070000000298023
311825.6877,5.634704090294552,0.6231668042990409,1.5932001190638472,-1.0643549898372044,1.8080000000190921
311825.6887,5.821302529593025,1.3807534342460188,1.6344822005517279,-0.45143679126372005,1.809000000008382
311825.6897,6.079302927533489,2.3421587950158442,1.8574789487478565,0.3386168915825503,1.8099999999976717
311825.6907,6.394353528602725,3.4797908826151636,2.2560935290493305,1.2770633601818133,1.8109999999869615
311825.6917,6.737489969255837,4.746302195002096,2.807477105380722,2.31888928520682,1.812000000034459
311825.6927,7.067959972216293,6.078124006761186,3.474335520353841,3.4060754156326927,1.8130000000237487
311825.6937,7.337400232884266,7.400603694625622,4.208576781755733,4.472177349802958,1.8140000000130385
311825.6947,7.494946986800397,8.634265408128213,4.955928213574797,5.4478037720638275,1.8150000000023283
311825.6957,7.49276564751056,9.701604804108035,5.661060591678365,6.266484601899967,1.815999999991618
311825.6967,7.2914397293305795,10.53377601902574,6.272711208433518,6.870381429603533,1.8169999999809079
311825.6977,6.864669533772429,11.07653864639265,6.748302860160738,7.215305347533959,1.8180000000284053
311825.6987,6.202795837721947,11.294903258162917,7.057610497013868,7.27457159696793,1.8190000000176951
311825.6997,5.314776768767074,11.17603903127747,7.185126080373607,7.041330076909157,1.820000000006985
311825.7007,4.228396141500278,10.730174103563346,7.130905085575322,6.529155035335479,1.8209999999962747
311825.7017,2.988654060123626,9.989412095122928,6.909831756996991,5.770842162338468,1.8219999999855645
311825.7027,1.6544686637209913,9.004588017115188,6.549399344189063,4.815530828078766,1.823000000033062
311825.7037,0.2939840517943041,7.840474128964808,6.086250304298812,3.724426945282401,1.8240000000223517
311825.7047,-1.02108260560101,6.569803028708434,5.5618451002746045,2.5655326657116815,1.8250000000116415
311825.7057,-2.2215255231247895,5.266686222719899,5.017714532864681,1.4078802924998721,1.8260000000009313
311825.7067,-3.246591993855982,4.000060967226526,4.490791018494748,0.3158107392546899,1.8269999999902211
311825.7077,-4.049217535086791,2.8277911742727424,4.0093049211823235,-0.6561723590519121,1.8280000000377186
311825.7087,-4.600055878707928,1.7919805088841119,3.589673956420345,-1.4675020473311717,1.8290000000270084
311825.7097,-4.889918709655425,0.915934262057296,3.234712628747195,-2.094235352013432,1.8300000000162981
311825.7107,-4.9303908879584855,0.20304318885283532,2.9333547098947794,-2.530102616829136,1.831000000005588
311825.7117,-4.752560407537743,-0.3623266783193652,2.6619282271090383,-2.7858535225961663,1.8319999999948777
311825.7127,-4.403981720655353,-0.8120506578639877,2.3868645600643497,-2.887000010328768,1.8329999999841675
311825.7137,-3.944158915956855,-1.1898653934226702,2.068576716224916,-2.870210803066955,1.834000000031665
311825.7147,-3.4389753529270455,-1.5458436694795117,1.6661212280438362,-2.7787406031499193,1.8350000000209548
311825.7157,-2.954595225631554,-1.9302852741491265,1.1421754001918656,-2.6573669312576826,1.8360000000102445
311825.7167,-2.551410689328834,-2.387639400573877,0.4678251087099022,-2.547350380440934,1.8369999999995343
311825.7177,-2.2786011184759403,-2.9510678438395623,-0.373328250567588,-2.4819258250633727,1.8379999999888241
311825.7187,-2.169809631723832,-3.6381923352675005,-1.3821709277441483,-2.482773900732315,1.8390000000363216
311825.7197,-2.2403323515809843,-4.448450432764048,-2.542514451665565,-2.5578197980005886,1.8400000000256114
311825.7207,-2.4860687580117373,-5.362324288841572,-3.8211545816125096,-2.7005703298648873,1.8410000000149012
311825.7217,-2.8843113369850117,-6.342521168844401,-5.169581728903044,-2.8910438688466833,1.842000000004191
311825.7227,-3.396276091765364,-7.336992039530596,-6.52721238874825,-3.0981865897024856,1.8429999999934807
311825.7237,-3.971109515877627,-8.283493774399522,-7.825862294773716,-3.283518423260204,1.8439999999827705
311825.7247,-4.550968356668289,-9.115249191858972,-8.995059524232259,-3.4056280284048994,1.845000000030268
311825.7257,-5.076669300357397,-9.76715197757615,-9.967711646557062,-3.4250501542531695,1.8460000000195578
311825.7267,-5.493356002414517,-10.181910890134112,-10.685603498209193,-3.309019455618133,1.8470000000088476
311825.7277,-5.755635231850237,-10.315534481905988,-11.104215021683121,-3.0356060076999993,1.8479999999981374
311825.7287,-5.831691569100076,-10.141623013177627,-11.196410661716248,-2.5967983320734263,1.8489999999874271
311825.7297,-5.705995170991164,-9.654051685574975,-10.954657113035918,-2.0002037232445615,1.8500000000349246
311825.7307,-5.380359066041329,-8.867787086009868,-10.391564598247491,-1.2691728047683697,1.8510000000242144
311825.7317,-4.873267181611771,-7.817761217543804,-9.538704940752005,-0.4413120281405758,1.8520000000135042
311825.7327,-4.217565570667232,-6.555916729578779,-8.443822191189096,0.4344912036550294,1.853000000002794
311825.7337,-3.4567702629106547,-5.146714372744788,-7.166702748043528,1.3022568373231789,1.8539999999920838
311825.7347,-2.6403800482665556,-3.661541936382468,-5.774097170736135,2.103917125058283,1.8549999999813735
311825.7357,-1.8186781588908627,-2.1725685346011763,-4.3341731308175735,2.7846572607096336,1.856000000028871
311825.7367,-1.0375539932364144,-0.7466389672660454,-2.911019799559337,3.298073520541918,1.8570000000181608
311825.7377,-0.3338702599209077,0.5602048261353694,-1.5597145597743656,3.6106443168477402,1.8580000000074506
311825.7387,0.26815703119998885,1.707053536920835,-0.3224042779439977,3.70507274535183,1.8589999999967404
311825.7397,0.7592025434532796,2.670906159101845,0.7742487090347435,3.5821659039340243,1.8599999999860302
311825.7407,1.1454764522668677,3.447642019622714,1.7200412158661893,3.2610561364322335,1.8610000000335276
311825.7417,1.447709020185534,4.051119360079831,2.5205653574805855,2.7777287952766576,1.8620000000228174
311825.7427,1.6985815384901806,4.510516556767254,3.1950076234395435,2.181984562530112,1.8630000000121072
311825.7437,1.9388671569880807,4.866205733435037,3.7726619510251758,1.533115842722072,1.864000000001397
311825.7447,2.2126755792001616,5.164592803787587,4.288532110898408,0.8947014111125111,1.8649999999906868
311825.7457,2.5622866745138286,5.452458635602094,4.778485403908472,0.3290091393425845,1.8660000000381842
311825.7467,3.023100705989663,5.771383134256007,5.274460364166305,-0.1084651942957146,1.867000000027474
311825.7477,3.6192228415306973,6.152822982547615,5.80022196153959,-0.3738080525462284,1.8680000000167638
311825.7487,4.36013787346096,6.614345690432377,6.368099694087531,-0.43839533865550634,1.8690000000060536
311825.7497,5.238823707593329,7.157404299326358,6.9770427671988,-0.2911516614479373,1.8699999999953434
311825.7507,6.231509811488451,7.766880330403,7.612192321892494,0.060842964357438814,1.8709999999846332
311825.7517,7.299123521830401,8.412442964220242,8.24601670219249,0.5934435327038764,1.8720000000321306
311825.7527,8.390299074326611,9.051587867928287,8.840897284686175,1.2681079667270432,1.8730000000214204
311825.7537,9.445668092017593,9.63404793497438,9.352905116691858,2.0358707447206847,1.8740000000107102
311825.7547,10.403021542774447,10.10712755122181,9.736387103237906,2.8422250803971365,1.875
311825.7557,11.202844653643696,10.42141593222346,9.948896788438644,3.632430240022119,1.8759999999892898
311825.7567,11.793686788785399,10.536293275432426,9.955967210937802,4.356721809826832,1.8770000000367872
311825.7577,12.136841865060546,10.424660266263926,9.735235650858094,4.974915212245126,1.878000000026077
311825.7587,12.20988026845591,10.076395401556127,9.279491188724586,5.459955241365398,1.8790000000153668
311825.7597,12.008684103859457,9.500168521591439,8.59831992480431,5.800070676730068,1.8800000000046566
311825.7607,11.547783123961747,8.723400777815563,7.718159300746553,5.999332671068222,1.8809999999939464
311825.7617,10.858954571982181,7.7903451263580905,6.680728841905027,6.0765748473131085,1.8819999999832362
311825.7627,9.988220137282704,6.758449214493498,5.539964504615976,6.062796209519912,1.8830000000307336
311825.7637,8.99153053084456,5.693335650749206,4.357731961646554,5.997319003913111,1.8840000000200234
311825.7647,7.9295573193762205,4.662875922234517,3.198716010847886,5.923097676099589,1.8850000000093132
311825.7657,6.862099831834229,3.7309295123729433,2.1249668216591675,5.881659819558154,1.885999999998603
311825.7667,5.842653389060164,2.951359408546146,1.190620650933663,5.908197109800978,1.8869999999878928
311825.7677,4.9136698944178105,2.362914928784266,0.43729922230746293,6.027309957308422,1.8880000000353903
311825.7687,4.102974313324751,1.9854942578869716,-0.10937064950603136,6.249845328150058,1.88900000002468
311825.7697,3.4216872584798126,1.818169608763352,-0.4417814084231689,6.571159135228488,1.8900000000139698
311825.7707,2.863855799670687,1.8391898829523938,-0.5707160698642135,6.970993371140683,1.8910000000032596
311825.7717,2.407826194979854,2.00798529798421,-0.5240277729754865,7.414997593107638,1.8919999999925494
311825.7727,2.0192199943876172,2.26900414471593,-0.34375127408786205,7.8577602635200146,1.8929999999818392
311825.7737,1.6552158210995633,2.5570325678462433,-0.08192084452561377,8.247063956206713,1.8940000000293367
311825.7747,1.2697087777518326,2.8035015786756348,0.20450655282318206,8.528954509727111,1.8950000000186265
311825.7757,0.8188307616035703,2.943185861546353,0.4591380048832926,8.653130117888166,1.8960000000079162
311825.7767,0.2662768583754059,2.9206562534968414,0.6315174501594867,8.578120481013798,1.896999999997206
311825.7777,-0.4121006619846981,2.6958664849756775,0.6818723325415565,8.275742171469203,1.8979999999864958
311825.7787,-1.2248998148255723,2.248333339474937,0.5847831392147829,7.73438288491753,1.8990000000339933
311825.7797,-2.163331056609781,1.5795004720839545,0.33142973813581705,6.9607778969423615,1.900000000023283
311825.7807,-3.2011362552163027,0.7130472509346661,-0.06979324901700372,5.980086133179474,1.9010000000125729
311825.7817,-4.296294938697138,-0.3069012383105354,-0.5943415131923686,4.83423681041118,1.9020000000018626
311825.7827,-5.3943727811442646,-1.419507179469015,-1.2041531953594158,3.578684712193163,1.9029999999911524
311825.7837,-6.433205089313213,-2.552554765029175,-1.8515831856073406,2.2778665515040655,1.9040000000386499
311825.7847,-7.348475063236753,-3.6288922548750087,-2.484249181622557,0.9997774917314639,1.9050000000279397
311825.7857,-8.079655897810607,-4.573380727054435,-3.050311854471935,-0.1898266140220821,1.9060000000172295
311825.7867,-8.57574635081217,-5.319699963330102,-3.503670915719637,-1.2330578059333803,1.9070000000065193
311825.7877,-8.80024522281534,-5.816374982638439,-3.8085689071332474,-2.08482638529713,1.907999999995809
311825.7887,-8.73487989067071,-6.0314605476511804,-3.9431540834445045,-2.716609414449092,1.9089999999850988
311825.7897,-8.381720968640748,-5.955448392648659,-3.901656933528905,-3.118703728626233,1.9100000000325963
311825.7907,-7.763468086355635,-5.602130644952486,-3.6949715334482605,-3.300753867358827,1.911000000021886
311825.7917,-6.921865895818742,-5.007346645486542,-3.3495896346749383,-3.2905094065979172,1.9120000000111759
311825.7927,-5.914387892400556,-4.2257404280355,-2.904996807975113,-3.130934408714176,1.9130000000004657
311825.7937,-4.809491157420333,-3.325843223891738,-2.4097902952625123,-2.8759478374385363,1.9139999999897555
311825.7947,-3.680881648447897,-2.3839515457035474,-1.9169027842020054,-2.5852027408589255,1.915000000037253
311825.7957,-2.6013239362233453,-1.477381738632655,-1.4784029745846965,-2.318401386310696,1.9160000000265427
311825.7967,-1.6365721782018041,-0.6777359235507874,-1.1403841435536932,-2.1296848051856174,1.9170000000158325
311825.7977,-0.8399864909780121,-0.04480704711266677,-0.9384420802247793,-2.0626245364991,1.9180000000051223
311825.7987,-0.24833200336405895,0.37831668575049804,-0.8941848118107116,-2.146282967574427,1.918999999994412
311825.7997,0.1208567156012802,0.5685085207507798,-1.013114355249232,-2.392702709370969,1.9199999999837019
311825.8007,0.27011426908345987,0.5239436521406559,-1.2840853992259902,-2.796045381496569,1.9210000000311993
311825.8017,0.22102740305103885,0.2634335931216156,-1.6803906799126649,-3.3334397726185645,1.922000000020489
311825.8027,0.01148151509445079,-0.1761411609345042,-2.162363106735975,-3.967434276186314,1.9230000000097789
311825.8037,-0.30854458570603904,-0.7440135204059342,-2.6812360908534316,-4.649794868039391,1.9239999999990687
311825.8047,-0.6822138080933718,-1.3808881787866647,-3.183880584448931,-5.3262626062206415,1.9249999999883585
311825.8057,-1.0515784316498933,-2.0249290641256237,-3.6179520733903527,-5.941795979316491,1.926000000035856
311825.8067,-1.3632782162839636,-2.6177759264535823,-3.9369414913264356,-6.445781868207371,1.9270000000251457
311825.8077,-1.5736371834988037,-3.1099967710139502,-4.104634536421157,-6.796708233345199,1.9280000000144355
311825.8087,-1.6526713484920363,-3.4654481060619786,-4.098543087429121,-6.965850703968568,1.9290000000037253
311825.8097,-1.5866310665928138,-3.664132006323899,-3.9119744771638025,-6.9396279550353634,1.929999999993015
311825.8107,-1.3788492851172285,-3.703295872665983,-3.554539235987911,-6.720416765248756,1.9309999999823049
311825.8117,-1.048836258838381,-3.5967016697805088,-3.0510523010233594,-6.325773357874022,1.9320000000298023
311825.8127,-0.6297354994059239,-3.3721781943586615,-2.438941418540001,-5.78616752946583,1.9330000000190921
311825.8137,-0.164417739098731,-3.067743886457878,-1.7644239369844197,-5.141484285689375,1.934000000008382
311825.8147,0.29937642105059914,-2.726731489263538,-1.0778348829473297,-4.4366695309427495,1.9349999999976717
311825.8157,0.7143418689590757,-2.3924451704127616,-0.42857313811054987,-3.7169797388697896,1.9359999999869615
311825.8167,1.0388167000583695,-2.1029256819826885,0.13982960428085608,-3.0233322302620036,1.937000000034459
311825.8177,1.2413587149289211,-1.8863853295033803,0.594024409383877,-2.3882391103112894,1.9380000000237487
311825.8187,1.304222308902183,-1.7578033871329533,0.9141132181930537,-1.8327454742794285,1.9390000000130385
311825.8197,1.2253791914269867,-1.7170513082865466,1.0955410715152596,-1.3646874491735412,1.9400000000023283
311825.8207,1.0188737317327634,-1.7487578275169928,1.1494202312546156,-0.9784485188335114,1.940999999991618
311825.8217,0.7134720187734727,-1.8239428283575296,1.101249551143545,-0.6562371163589191,1.9419999999809079
311825.8227,0.3497362762544283,-1.90326388387741,0.9881520481135551,-0.37075025747158696,1.9430000000284053
311825.8237,-0.024184015371419072,-1.9415492971926802,0.8549015411779878,-0.08894294646235458,1.9440000000176951
311825.8247,-0.3576219215536903,-1.8931534771424525,0.7491308509430978,0.22349413189038447,1.945000000006985
311825.8257,-0.6028121325830798,-1.7175786319523996,0.7161973362417605,0.5974235798456997,1.9459999999962747
311825.8267,-0.7201090719080069,-1.3847705552628438,0.7942181735557174,1.055821537930088,1.9469999999855645
311825.8277,-0.6824698325408772,-0.8795197177520728,1.0097740144940164,1.6100924503262426,1.948000000033062
311825.8287,-0.4787370137597536,-0.2044800548176018,1.3747166839935274,2.2575508909231172,1.9490000000223517
311825.8297,-0.11537236693566956,0.618550894106119,1.8844104392529182,2.980369726344743,1.9500000000116415
311825.8307,0.38355670836348527,1.5492781422106743,2.5175972810603633,3.746149019598207,1.9510000000009313
311825.8317,0.9781641207901974,2.5314796597586744,3.2379184310757227,4.510097798748635,1.9519999999902211
311825.8327,1.6161564519918428,3.497306889453081,3.996961827190476,5.2186571475585515,1.9530000000377186
311825.8337,2.2375578928776436,4.3729457130033405,4.738555228473918,5.8142442839901625,1.9540000000270084
311825.8347,2.7803056412139977,5.0851267012521815,5.403901006914651,6.240678281471412,1.9550000000162981
311825.8357,3.1861830110485996,5.567880205926765,5.937064094382607,6.448770919250206,1.956000000005588
311825.8367,3.4065194686993263,5.768896387248427,6.290287226293653,6.401538837064317,1.9569999999948777
311825.8377,3.407104312101481,5.6548765914895975,6.428621344251899,6.078518871887494,1.9579999999841675
311825.8387,3.1718322511832193,5.215348549468283,6.333422567417461,5.478745132717178,1.959000000031665
311825.8397,2.7047179293218697,4.464555766984413,6.004374420796398,4.622066967290918,1.9600000000209548
311825.8407,2.0300710099677275,3.4412082266969066,5.459834638594902,3.548640089989961,1.9610000000102445
311825.8417,1.1907988689950026,2.2060802719468224,4.735466190977779,2.3165941266720904,1.9619999999995343
311825.8427,0.24498314561378218,0.8376432303082445,3.881276624155494,0.9980522242451021,1.9629999999888241
311825.8437,-0.7389580240107151,-0.5738944745676963,2.9573423555809226,-0.32616450685634435,1.9640000000363216
311825.8447,-1.6880744641149363,-1.9336161842145927,2.028620381523892,-1.5726883579772373,1.9650000000256114
311825.8457,-2.5311146861498073,-3.1493695372767316,1.159336695238843,-2.6620691167665633,1.9660000000149012
311825.8467,-3.204601723911668,-4.13901454530662,0.4074801489552137,-3.5249751818979393,1.967000000004191
311825.8477,-3.658188203385244,-4.83679942691873,-0.18008127774962604,-4.107577730561579,1.9679999999934807
311825.8487,-3.8587945934398733,-5.198298040463144,-0.5714066145367737,-4.375638109258288,1.9689999999827705
311825.8497,-3.7931521210671146,-5.203477853329245,-0.7518609454831405,-4.316938107060186,1.970000000030268
311825.8507,-3.4685256248235126,-4.857642969409609,-0.724857107947541,-3.9418461784872934,1.9710000000195578
311825.8517,-2.9115666699818643,-4.190195905789734,-0.51090894449683,-3.2819853057167947,1.9720000000088476
311825.8527,-2.1654265069936365,-3.251365397750163,-0.14510850726044985,-2.387143479529948,1.9729999999981374
311825.8537,-1.2854244787975735,-2.107235947124731,0.326708513342802,-1.320728954008313,1.9739999999874271
311825.8547,-0.33370414372937074,-0.8335700431593779,0.8527194340431388,-0.15420410623523034,1.9750000000349246
311825.8557,0.6265965609632815,0.49097883613256454,1.3803168190479618,1.0389785891089045,1.9760000000242144
311825.8567,1.537092396259572,1.7916153115178026,1.8612401179540363,2.18937568338213,1.9770000000135042
311825.8577,2.3492596931693033,3.0034797342673993,2.256131632167759,3.236938817441436,1.978000000002794
311825.8587,3.0284190689302752,4.076495373054915,2.538072511819443,4.135306376890683,1.9789999999920838
311825.8597,3.556219012973592,4.978554135449757,2.6947588259975355,4.854631614824128,1.9799999999813735
311825.8607,3.9313984442126753,5.696778457770365,2.729115314165261,5.38272461434166,1.981000000028871
311825.8617,4.1687786176890835,6.236789692287397,2.6583016134531996,5.724451816715819,1.9820000000181608
311825.8627,4.296611273455252,6.620111124735254,2.5112270411918614,5.899506773766447,1.9830000000074506
311825.8637,4.352573310846362,6.8800172999751705,2.324839473434378,5.938822745733335,1.9839999999967404
311825.8647,4.378832473175533,7.056292706809028,2.1395767442103404,5.880026552492602,1.9849999999860302
311825.8657,4.4167003500917925,7.189467362636778,1.9944531600720892,5.7624213118354,1.9860000000335276
311825.8667,4.50142942110431,7.315144364331051,1.9222908543380295,5.622025000685106,1.9870000000228174
311825.8677,4.657695897617053,7.459020559463002,1.9455920996933302,5.487178615581764,1.9880000000121072
311825.8687,4.896241235699302,7.633127700605157,2.073485655103782,5.375173704046539,1.989000000001397
311825.8697,5.2120291484600125,7.833695202168528,2.300073909315956,5.290240783815702,1.9899999999906868
311825.8707,5.584123141827615,8.04086948290039,2.604368426866854,5.223098573827376,1.9910000000381842
311825.8717,5.977316947839595,8.220335301106534,2.951843170840116,5.152103173745073,1.992000000027474
311825.8727,6.345373713051753,8.326690206520224,3.2974727351784936,5.045872328811313,1.9930000000167638
311825.8737,6.635566793490236,8.308243419230717,3.589973305589941,4.867108949283042,1.9940000000060536
311825.8747,6.794081587327466,8.112762846981534,3.776841528695523,4.577225034087593,1.9949999999953434
311825.8757,6.771747202574666,7.693593146604465,3.8097031146984155,4.141284202337837,1.9959999999846332
311825.8767,6.529527941780177,7.0155237144914695,3.6494471171759924,3.532746316532829,1.9970000000321306
311825.8777,6.043221567311912,6.0598026852310785,3.270637077114614,2.737514575560706,1.9980000000214204
311825.8787,5.306882621651366,4.827769867935425,2.664755246157456,1.7568522640908026,1.9990000000107102
311825.8797,4.334607943524561,3.3427106646487244,1.8419447125227824,0.60884645565425,2.0
311825.8807,3.160476520649231,1.6497018954977112,0.8310559816110659,-0.6717614877092226,2.00099999998929
311825.8817,1.8366119942566574,-0.1865872828679049,-0.32203428397409445,-2.0353978465978866,2.0020000000367872
311825.8827,0.4295164387701508,-2.0859792043128076,-1.557699678203013,-3.4209866715169546,2.003000000026077
311825.8837,-0.9850089819966693,-3.9584135507071116,-2.8071500942806296,-4.76049397405496,2.004000000015367
311825.8847,-2.3279034222422013,-5.710622127582592,-3.9979159735256027,-5.984270279892187,2.0050000000046566
311825.8857,-3.5232981673547568,-7.2532558183097535,-5.059732561540286,-7.026694582811258,2.0059999999939464
311825.8867,-4.504790655615298,-8.507820192882534,-5.930286702251142,-7.831589821880696,2.006999999983236
311825.8877,-5.2209641939155205,-9.412790864799415,-6.56030071310959,-8.356898721020046,2.0080000000307336
311825.8887,-5.6396454860522045,-9.9283543155358,-6.917489990628164,-8.578177413242193,2.0090000000200234
311825.8897,-5.750509095189372,-10.039347337591268,-6.989037159625476,-8.490576065604845,2.0100000000093132
311825.8907,-5.565792088050427,-9.75613617623528,-6.782365515050359,-8.109119833045455,2.010999999998603
311825.8917,-5.119058537374157,-9.113368664029457,-6.324154676956676,-7.46726583561584,2.011999999987893
311825.8927,-4.462135337224375,-8.166730600259639,-5.657706321253217,-6.613876613596712,2.0130000000353903
311825.8937,-3.6605104693135933,-6.988022262406514,-4.838921667159355,-5.608901564055998,2.01400000002468
311825.8947,-2.7876262045435594,-5.65902450627704,-3.93128031660208,-4.518180430206388,2.01500000001397
311825.8957,-1.9185992620880319,-4.2647317192560985,-3.000299817115692,-3.407865014497255,2.0160000000032596
311825.8967,-1.1239482823606863,-2.886580712530084,-2.1079984546266815,-2.3389888929938616,2.0169999999925494
311825.8977,-0.46390168275096666,-1.5962957098203323,-1.3078763239853624,-1.362696751519688,2.017999999981839
311825.8987,0.016202962778904196,-0.450901069103528,-0.6408726516280381,-0.5165768530038162,2.0190000000293367
311825.8997,0.2890271736702533,0.5106677808630364,-0.13265646366480718,0.1775712013434114,2.0200000000186265
311825.9007,0.34659431256893136,1.2690864184754413,0.20752693152685447,0.7143448650958484,2.0210000000079162
311825.9017,0.199824305501864,1.8242140078604205,0.38638621033502907,1.1036963648479712,2.021999999997206
311825.9027,-0.12366542014934692,2.192826293407733,0.4245837608153675,1.3683768063714123,2.022999999986496
311825.9037,-0.5832328176305606,2.4047985934052933,0.3534470813627873,1.5401536239721187,2.0240000000339933
311825.9047,-1.1299593919335311,2.4981776486181246,0.21075824879142346,1.6552094188619146,2.025000000023283
311825.9057,-1.711977066393283,2.5136854580789065,0.0360745793329637,1.749210541703729,2.026000000012573
311825.9067,-2.27982892835457,2.489247381792493,-0.13392555038558457,1.8525653286465824,2.0270000000018626
311825.9077,-2.7913250609469085,2.4551261404556946,-0.2695866669339422,1.986371519274793,2.0279999999911524
311825.9087,-3.2154139976747524,2.430174150509903,-0.3514825027083332,2.1594820019648564,2.02900000003865
311825.9097,-3.534696793603619,2.419595951300882,-0.3723576195731169,2.36700451047704,2.0300000000279397
311825.9107,-3.746353494385251,2.414452463116615,-0.33761045750085433,2.5904053630493773,2.0310000000172295
311825.9117,-3.8614165589929508,2.392955514968593,-0.2642763633259866,2.7992241004201732,2.0320000000065193
311825.9127,-3.90249608206353,2.323412870271639,-0.1786256476379234,2.9542410352571165,2.032999999995809
311825.9137,-3.9002204910821683,2.1685097304613494,-0.11263655433534583,3.0117895771970935,2.033999999985099
311825.9147,-3.888787953760626,1.890469921187184,-0.0997216518422259,2.9287846645611633,2.0350000000325963
311825.9157,-3.9011149367948765,1.456543076381982,-0.17016659753259217,2.667959784449772,2.036000000021886
311825.9167,-3.964110134883758,0.8442230181751756,-0.3467742937222999,2.202775924260176,2.037000000011176
311825.9177,-4.094590168966533,0.04562155735537606,-0.6411915468107078,1.5214895555772319,2.0380000000004657
311825.9187,-4.296289180927579,-0.9295004763478507,-1.051330826371886,0.6299414223332961,2.0389999999897555
311825.9197,-4.558304077853099,-2.052414424878347,-1.5601928049687,-0.44725348767793904,2.040000000037253
311825.9207,-4.85517163143799,-3.2760192714411267,-2.1362564891309876,-1.6672831704964908,2.0410000000265427
311825.9217,-5.148607351807603,-4.537363785628542,-2.7354465929368814,-2.9714820892884335,2.0420000000158325
311825.9227,-5.390765549820156,-5.76191447083357,-3.3045279003286456,-4.289268927756317,2.0430000000051223
311825.9237,-5.528722257284837,-6.869210668481905,-3.7856295990721773,-5.543350479836024,2.043999999994412
311825.9247,-5.509753456429954,-7.779403570978725,-4.121483613708491,-6.655737514704115,2.044999999983702
311825.9257,-5.286893375016187,-8.420078957699344,-4.2608818073547345,-7.554034909142774,2.0460000000311993
311825.9267,-4.824220372809844,-8.732724080183214,-4.1638256856473514,-8.177435552555567,2.047000000020489
311825.9277,-4.101335174142925,-8.678221571599861,-3.8058623615490945,-8.48186889019781,2.048000000009779
311825.9287,-3.1165665336061945,-8.24083579376502,-3.1811704315166813,-8.443828632665179,2.0489999999990687
311825.9297,-1.8885562679208137,-7.430292031229929,-2.3040725796325763,-8.062523219190942,2.0499999999883585
311825.9307,-0.45602775662186273,-6.281723610577173,-1.2087974010990987,-7.360145777854166,2.051000000035856
311825.9317,1.124285197129379,-4.853459659881217,0.052522874722724044,-6.380232973881238,2.0520000000251457
311825.9327,2.781395631573693,-3.2228278283329295,1.4134652383396196,-5.184257787148914,2.0530000000144355
311825.9337,4.435190070430233,-1.4803324144270285,2.79823248464459,-3.846763133326826,2.0540000000037253
311825.9347,6.002473930634013,0.2772789887109697,4.127441783996326,-2.4494759010092957,2.054999999993015
311825.9357,7.403393728642503,1.9544428096864623,5.324269200271795,-1.074931816987564,2.055999999982305
311825.9367,8.56765432872004,3.4640372112479,6.320398673289703,0.19981797360391995,2.0570000000298023
311825.9377,9.439965273453584,4.733823427020447,7.0612409078779015,1.3088612844923178,2.058000000019092
311825.9387,9.984220240115379,5.711501964712174,7.509955337790571,2.201948930571285,2.059000000008382
311825.9397,10.18603121110463,6.367946602881152,7.649920362869878,2.847509036644101,2.0599999999976717
311825.9407,10.053392731380619,6.698351723872687,7.4854426008028305,3.233918942990787,2.0609999999869615
311825.9417,9.615426816168858,6.721225386234248,7.0406609196242895,3.3689692617441764,2.062000000034459
311825.9427,8.919338750020799,6.4753626466534735,6.356769624056581,3.2776261039116634,2.0630000000237487
311825.9437,8.025880834581143,6.01512153643176,5.487841140125298,2.998356630707293,2.0640000000130385
311825.9447,7.003759012158649,5.404479760818533,4.495656920965629,2.578414604232917,2.0650000000023283
311825.9457,5.923512964276422,4.710458791416975,3.444043837331852,2.068574018917391,2.065999999991618
311825.9467,4.8514446330784615,3.9965533590489684,2.393253670293683,1.5178416692714016,2.066999999980908
311825.9477,3.844159025354912,3.31679383061415,1.3949118400096865,0.9686699331332678,2.0680000000284053
311825.9487,2.9442159284175338,2.7109980086564205,0.48799957235845487,0.45313054453102153,2.069000000017695
311825.9497,2.1772783619826312,2.2016448405072895,-0.3037723957814334,-0.0095949044843067,2.070000000006985
311825.9507,1.5509944009630612,1.7926378157917209,-0.972980196829108,-0.4141908321945633,2.0709999999962747
311825.9517,1.0556781398674897,1.4700368165875592,-1.5278345010869698,-0.7685916661767658,2.0719999999855645
311825.9527,0.6666798107463797,1.2046424968237255,-1.9899644635821896,-1.0918783689499376,2.073000000033062
311825.9537,0.34817161554249015,0.9561359892817444,-2.3908949475915353,-1.410942347127442,2.0740000000223517
311825.9547,0.05794062584851885,0.678326530659463,-2.76759948358587,-1.7562950270753939,2.0750000000116415
311825.9557,-0.24731375416017254,0.32495497156268266,-3.1575982217225222,-2.15748566025892,2.0760000000009313
311825.9567,-0.6067237740526287,-0.14454794344229882,-3.594109993552633,-2.638626875742668,2.076999999990221
311825.9577,-1.0505739293766387,-0.7599387362490392,-4.101756862925117,-3.214513669875449,2.0780000000377186
311825.9587,-1.5966694478661618,-1.5361945971913922,-4.693259538365424,-3.887758507287524,2.0790000000270084
311825.9597,-2.2481136478061194,-2.4711031495610087,-5.367458889029998,-4.647259472299664,2.080000000016298
311825.9607,-2.9927095282318286,-3.5446489987430323,-6.108862915272094,-5.468180648634707,2.081000000005588
311825.9617,-3.8040346106771765,-4.720254813551485,-6.888763419474901,-6.313467968032096,2.0819999999948777
311825.9627,-4.644067587691027,-5.947747277611139,-7.667807698145366,-7.136765287547628,2.0829999999841675
311825.9637,-5.467087710717464,-7.167744736722214,-8.399763561089557,-7.8864502986536715,2.084000000031665
311825.9647,-6.224438730761015,-8.317020942565268,-9.036095395853481,-8.510392573689927,2.0850000000209548
311825.9657,-6.869661402622778,-9.33430200807528,-9.53088671969468,-8.960958384399333,2.0860000000102445
311825.9667,-7.363460780598565,-10.165911088311999,-9.845608784686867,-9.199756722790209,2.0869999999995343
311825.9677,-7.677990508266474,-10.770691484446523,-9.953248826046519,-9.201641354467638,2.087999999988824
311825.9687,-7.800004444173733,-11.123712105291977,-9.84137404727706,-8.957552864919732,2.0890000000363216
311825.9697,-7.732539504003405,-11.218382125996998,-9.513812217113886,-8.475895816601406,2.0900000000256114
311825.9707,-7.494941270166309,-11.066761957524408,-8.990766446320201,-7.782288443720072,2.091000000014901
311825.9717,-7.121211062345703,-10.698039288903868,-8.307336808414593,-6.917681793297499,2.092000000004191
311825.9727,-6.656823172210754,-10.155323880176025,-7.510579646920963,-5.935006166372104,2.0929999999934807
311825.9737,-6.154316928957626,-9.491084537719845,-6.655381048639418,-4.894649228202278,2.0939999999827705
311825.9747,-5.668094626344729,-8.761689363157375,-5.799539667337689,-3.8591877265989263,2.095000000030268
311825.9757,-5.248940448685708,-8.021602170426108,-4.998534113515707,-2.8878716782314426,2.0960000000195578
311825.9767,-4.938808871538485,-7.317824681729465,-4.300483544343902,-2.0313884139189664,2.0970000000088476
311825.9777,-4.766410061484795,-6.6851519557127945,-3.741793535968116,-1.3274110069857186,2.0979999999981374
311825.9787,-4.744046381050324,-6.142729507401081,-3.343914350645847,-0.7973633692270512,2.098999999987427
311825.9797,-4.86603521441823,-5.692272414555437,-3.111531632612648,-0.4447195553432072,2.1000000000349246
311825.9807,-5.108900455138777,-5.318141913998996,-3.0323708248048864,-0.25500861422431703,2.1010000000242144
311825.9817,-5.433342999201105,-4.989289769144656,-3.078639751412592,-0.19753281099727646,2.102000000013504
311825.9827,-5.787826247301466,-4.662893292579993,-3.2099742003963105,-0.22864208581102588,2.103000000002794
311825.9837,-6.113453000807547,-4.289332859425005,-3.3776045889896906,-0.29625725541294456,2.1039999999920838
311825.9847,-6.349680909253595,-3.8180260194256657,-3.52934227968534,-0.3452133494354329,2.1049999999813735
311825.9857,-6.4403375409535775,-3.2035416551413385,-3.614903555285747,-0.322914427621193,2.106000000028871
311825.9867,-6.339361774509855,-2.4113832049630037,-3.5910555773842527,-0.18476008799788635,2.107000000018161
311825.9877,-6.015719099526409,-1.4228554452072482,-3.4260851814325224,0.10117525996734932,2.1080000000074506
311825.9887,-5.457012746439764,-0.23851251019065736,-3.103156532286066,0.5506583841171511,2.1089999999967404
311825.9897,-4.671433308979872,1.1201821397964185,-2.6222311465913646,1.1613424067600175,2.10999999998603
311825.9907,-3.687845121266911,2.6111829912999625,-2.00036310915886,1.9125288350143834,2.1110000000335276
311825.9917,-2.553983140458297,4.1741854598341375,-1.2703398749376136,2.7666698588430694,2.1120000000228174
311825.9927,-1.3329125479638264,5.734760237607997,-0.4777994693564561,3.6724680179708655,2.113000000012107
311825.9937,-0.09806749453597934,7.209938552048505,0.3228974958106583,4.569278088201234,2.114000000001397
311825.9947,1.0726804733449316,8.514745690937724,1.0736422102428944,5.392392601620136,2.1149999999906868
311825.9957,2.1033826885103557,9.569085839532331,1.7179183122113755,6.078709730991059,2.1160000000381842
311825.9967,2.926221427221864,10.304344162567824,2.2059942270138566,6.572248291378289,2.117000000027474
311825.9977,3.487001059779843,10.669095906998864,2.499468483323951,6.828992536028858,2.118000000016764
311825.9987,3.7494276262063173,10.633394915599851,2.5747338346012048,6.820617369473783,2.1190000000060536
311825.9997,3.697799147879699,10.19124740377396,2.425032869570861,6.536755799823083,2.1199999999953434
311826.0007,3.3378814398508014,9.361048265109023,2.0609164460221985,5.985613909775195,2.120999999984633
311826.0017,2.695917247317702,8.183949919601465,1.5090730815558606,5.192900200679666,2.1220000000321306
311826.0027,1.8158933463939941,6.720329088938672,0.8096569575554354,4.1991999568540495,2.1230000000214204
311826.0037,0.7553536552570783,5.0446958946906575,0.01238874680529716,3.0560751935538555,2.12400000001071
