TimeStamp,ECR,FCR,ECU,FCU,time_index
311854.8797,13.361579569753449,12.166186461203795,15.559973858126305,14.931836222606693,31.0
311854.8807,14.14452071529856,13.052615588230992,15.887070766871055,16.1762982456132,31.00099999998929
311854.8817,14.873386691221704,13.909085613177503,16.174483938717948,17.457935109028373,31.002000000036787
311854.8827,15.562683610573172,14.743124837594854,16.43929776466987,18.762544734461738,31.003000000026077
311854.8837,16.208153023398033,15.542461535473059,16.681866412387613,20.05726638045469,31.004000000015367
311854.8847,16.786110874349664,16.27472536914902,16.885414916136156,21.291143103155026,31.005000000004657
311854.8857,17.25487015634886,16.889315569083408,17.017458197817653,22.397554168182054,31.005999999993946
311854.8867,17.558105705694157,17.321270350847374,17.032892245851002,23.29833846850345,31.006999999983236
311854.8877,17.629839138514363,17.496782191956214,16.878453891918372,23.909270801766837,31.008000000030734
311854.8887,17.400573263896458,17.33984812982681,16.498117660339933,24.14642506649137,31.009000000020023
311854.8897,16.80400209810761,16.77943779859836,15.838912024737647,23.932874031786103,31.010000000009313
311854.8907,15.78367410443782,15.756514367202753,14.85660104735673,23.20514212782805,31.010999999998603
311854.8917,14.298996483327915,14.230259054196816,13.520693955920102,21.918848597574527,31.011999999987893
311854.8927,12.330035612887517,12.18292658612856,11.81831280272574,20.053051085508248,31.01300000003539
311854.8937,9.880686046299159,9.622889081692412,9.756560135386135,17.612917135868276,31.01400000002468
311854.8947,6.979936059773446,6.585596540283362,7.363173554543018,14.630501740877113,31.01500000001397
311854.8957,3.68113632046157,3.1323767235913236,4.68541796407257,11.16357853647374,31.01600000000326
311854.8967,0.059362474501242435,-0.652803114781125,1.7873332915024205,7.292644325813909,31.01699999999255
311854.8977,-3.7928653420218725,-4.668304679228839,-1.2543906874392614,3.1163750451134193,31.01799999998184
311854.8987,-7.771099206942916,-8.80105560263009,-4.355514848814216,-1.2540587381192514,31.019000000029337
311854.8997,-11.765207322661336,-12.933485865753875,-7.4298429628845835,-5.701319108380015,31.020000000018626
311854.9007,-15.665784839326639,-16.950543265823505,-10.394784058595349,-10.108331857470844,31.021000000007916
311854.9017,-19.370174932595926,-20.74617653725591,-13.176376529754167,-14.364292379504704,31.021999999997206
311854.9027,-22.78760066331926,-24.228742362533485,-15.713328374112459,-18.369777048665007,31.022999999986496
311854.9037,-25.84301225733179,-27.324911342384517,-17.959733647389125,-22.04059309474293,31.024000000033993
311854.9047,-28.479394310696776,-29.981805623065405,-19.88626301337488,-25.310134363687787,31.025000000023283
311854.9057,-30.65843848528176,-32.16728120399717,-21.47978225063515,-28.130162935999156,31.026000000012573
311854.9067,-32.359653032580084,-33.86845279006466,-22.741511079666438,-30.470091989902695,31.027000000001863
311854.9077,-33.57813423591459,-35.08872996514972,-23.68397987418755,-32.31498809590345,31.027999999991152
311854.9087,-34.3213512752721,-35.84377357167751,-24.327159288654396,-33.662627346041255,31.02900000003865
311854.9097,-34.605382713183076,-36.15687684383294,-24.69421597069862,-34.52001823363038,31.03000000002794
311854.9107,-34.451081542270366,-36.05431798561439,-24.8073787027254,-34.89983781024143,31.03100000001723
311854.9117,-33.88063323461679,-35.56121587375621,-24.684380619314574,-34.817213759918666,31.03200000000652
311854.9127,-32.91490943326895,-34.69835052954347,-24.33587665709399,-34.287225863733156,31.03299999999581
311854.9137,-31.571915772621367,-33.48029258946544,-23.764127963816385,-33.323402644474285,31.0339999999851
311854.9147,-29.866497024947538,-31.915033581819618,-22.963107553189054,-31.93736337410931,31.035000000032596
311854.9157,-27.811310681915636,-30.005137217215157,-21.920027951381005,-30.139615425371016,31.036000000021886
311854.9167,-25.41892718917148,-27.750258823872002,-20.61813744026803,-27.94137686610578,31.037000000011176
311854.9177,-22.70477739603251,-25.150723293152264,-19.04049230901131,-25.357168845214883,31.038000000000466
311854.9187,-19.690559821224376,-22.211727551207268,-17.174302332290043,-22.40782475757223,31.038999999989755
311854.9197,-16.407653498565903,-18.94765445630922,-15.015376669867415,-19.123503601823465,31.040000000037253
311854.9207,-12.90006370448349,-15.385959398559956,-12.572174716191212,-15.546279696081346,31.041000000026543
311854.9217,-9.226460127238983,-11.570121637104478,-9.868993625760062,-11.731911844147406,31.042000000015832
311854.9227,-5.460947216791225,-7.561236782593657,-6.94789888398796,-7.750469337267424,31.043000000005122
311854.9237,-1.692326883642486,-3.4379566718967394,-3.869119290200352,-3.685602635942306,31.043999999994412
311854.9247,1.9782373936201112,0.7053545376344441,-0.7097719949939232,0.36761767542488505,31.044999999983702
311854.9257,5.44108338545423,4.762199959199543,2.4390571837768134,4.306222526983985,31.0460000000312
311854.9267,8.5832081158032,8.619039007885148,5.476693563473574,8.024010919706939,31.04700000002049
311854.9277,11.294347934911974,12.16150040391834,8.298385278599227,11.417018822287586,31.04800000000978
311854.9287,13.473499302544276,15.281209440180602,10.80150476635734,14.389351610162064,31.04899999999907
311854.9297,15.035335139141882,17.882643269387422,12.891925146086589,16.858885852082114,31.04999999998836
311854.9307,15.915959301744085,19.889407242026287,14.490032004684368,18.762337901177503,31.051000000035856
311854.9317,16.077482943716973,21.24936309388528,15.535857363357806,20.059237095912362,31.052000000025146
311854.9327,15.510997993330388,21.938132996331547,15.992897359324331,20.734427291107327,31.053000000014435
311854.9337,14.237656536111428,21.960643640010733,15.85029136775257,20.79884427103024,31.054000000003725
311854.9347,12.307728109363937,21.350548466852036,15.123186816003383,20.288466887041718,31.054999999993015
311854.9357,9.797684403192186,20.167557352795594,13.851276746035115,19.261502335316276,31.055999999982305
311854.9367,6.805535683011918,18.492893148970783,12.095660614502881,17.794025320693244,31.057000000029802
311854.9377,3.444798611437028,16.423265190932504,9.934327177751873,15.974431579072991,31.058000000019092
311854.9387,-0.1624039571630023,14.063884659930483,7.456677365434073,13.897174661447245,31.059000000008382
311854.9397,-3.892535955743477,11.521132422646739,4.7575834533704064,11.656320347986448,31.05999999999767
311854.9407,-7.627537458587475,8.895518293637009,1.9315112454988739,9.339468974813869,31.06099999998696
311854.9417,-11.260848560898584,6.275538710095048,-0.9327882804103345,7.022560483461493,31.06200000003446
311854.9427,-14.702092946277757,3.7329505705743236,-3.7565799972358964,4.765993261520578,31.06300000002375
311854.9437,-17.88007745317515,1.3198410145869355,-6.474110324521821,2.6123636244313952,31.06400000001304
311854.9447,-20.743926617668016,-0.9323005106720439,-9.03404965538826,0.5859798213043864,31.06500000000233
311854.9457,-23.262349660409857,-3.011493709333854,-11.399379799039876,-1.305862725149865,31.065999999991618
311854.9467,-25.42121445888232,-4.922340573337675,-13.54585154523664,-3.070023656163266,31.066999999980908
311854.9477,-27.21976159342621,-6.681612302046411,-15.459279296917025,-4.723403944568258,31.068000000028405
311854.9487,-28.665916273035258,-8.312840907053822,-17.13205253180409,-6.2880188377457715,31.069000000017695
311854.9497,-29.77123483441409,-9.84049669726061,-18.559316525925478,-7.785773335852283,31.070000000006985
311854.9507,-30.5460480462218,-11.284366010647677,-19.73530021260266,-9.233479397803363,31.070999999996275
311854.9517,-30.995333339978718,-12.654716557581361,-20.650244902686296,-10.638625325202785,31.071999999985565
311854.9527,-31.115765474514383,-13.948753377325444,-21.288316464598545,-11.996329798028201,31.073000000033062
311854.9537,-30.89426830027505,-15.148735081458025,-21.626772770954066,-13.287793430800377,31.07400000002235
311854.9547,-30.30823181871174,-16.221950924249015,-21.636519054309968,-14.480411121541927,31.07500000001164
311854.9557,-29.327384302862352,-17.12257093433202,-21.284030422256556,-15.529543421073974,31.07600000000093
311854.9567,-27.917136067205874,-17.795192345327823,-20.534468748214948,-16.381780694811223,31.07699999999022
311854.9577,-26.04305660521671,-18.179734397249245,-19.35568595312314,-16.97938595691442,31.07800000003772
311854.9587,-23.676025487703694,-18.21719699758371,-17.722701141035156,-17.26548528206266,31.07900000002701
311854.9597,-20.797521561396344,-17.855710075980316,-15.622175924488252,-17.189499978689284,31.080000000016298
311854.9607,-17.40449206487271,-17.056268373790097,-13.05639722665953,-16.712289447810534,31.081000000005588
311854.9617,-13.513275560414057,-15.797573960679086,-10.046311734173264,-15.810500229185566,31.081999999994878
311854.9627,-9.162136941738789,-14.079493196114997,-6.633237861978532,-14.479692461076471,31.082999999984168
311854.9637,-4.412101016673472,-11.924767811463973,-2.879001754598894,-12.73593235937267,31.084000000031665
311854.9647,0.6540691865241381,-9.378788187959309,1.1356082585397123,-10.615686800166888,31.085000000020955
311854.9657,5.934727686753365,-6.507424198282332,5.314013712517537,-8.174019184692371,31.086000000010245
311854.9667,11.313838260785378,-3.3930967869797777,9.548431982401603,-5.481248494185378,31.086999999999534
311854.9677,16.666752058232728,-0.1294433853038889,13.725524714731561,-2.6183798936549323,31.087999999988824
311854.9687,21.866794317473463,3.184934333588658,17.732650758484937,0.32826885983944165,31.08900000003632
311854.9697,26.792106152088845,6.453064171952143,21.464202151468168,3.2727468536479685,31.09000000002561
311854.9707,31.332161711114008,9.585930986501927,24.827487612776387,6.134931776416461,31.0910000000149
311854.9717,35.39341034991595,12.507958364801187,27.747664816976208,8.845276525241358,31.09200000000419
311854.9727,38.90357491293323,15.161148962826287,30.1713070507204,11.348417752975251,31.09299999999348
311854.9737,41.81426293537551,17.507520569564953,32.068313617878694,13.6053390396974,31.09399999998277
311854.9747,44.10170537575613,19.529642628841128,33.4320246777159,15.593926519153944,31.095000000030268
311854.9757,45.765612172164076,21.229264331713033,34.27756552850465,17.307915127916637,31.096000000019558
311854.9767,46.826308635756284,22.62421222131443,34.638606907562064,18.754383334824144,31.097000000008848
311854.9777,47.320474624391096,23.743904201042316,34.56287118514965,19.950097486660493,31.097999999998137
311854.9787,47.295934374142966,24.623961314605058,34.106825688521816,20.917119621988686,31.098999999987427
311854.9797,46.80602669914796,25.30048543290451,33.33007320673491,21.67816360581398,31.100000000034925
311854.9807,45.904115165747655,25.804601448970995,32.2899695069688,22.25220666490325,31.101000000024214
311854.9817,44.638773012574646,26.15783366122956,31.03696667109464,22.650834593959207,31.102000000013504
311854.9827,43.05010056042914,26.368800452056146,29.611102356043283,22.875721824395733,31.103000000002794
311854.9837,41.16751127104444,26.431577452846117,28.039936401146118,22.91752974459252,31.103999999992084
311854.9847,39.009168481543625,26.3259102206176,26.338089113211687,22.75635973030611,31.104999999981374
311854.9857,36.5830833842503,26.01926964200491,24.50837437157538,22.363735810633003,31.10600000002887
311854.9867,33.88971299309537,25.470555332316223,22.544361109371316,21.705931790339,31.10700000001816
311854.9877,30.925741660667523,24.635082795779006,20.434054315111496,20.748314936866237,31.10800000000745
311854.9887,27.688606597263703,23.470355893261164,18.16427539655117,19.4602673375007,31.10899999999674
311854.9897,24.181249071553236,21.942040642176398,15.725252497559088,17.820177988459236,31.10999999998603
311854.9907,20.416546457586545,20.029528211083893,13.11491102378593,15.819980649127245,31.111000000033528
311854.9917,16.420908794187312,17.73050720334597,10.34238531340346,13.468746629432317,31.112000000022817
311854.9927,12.236604355864541,15.064055041658472,7.430351186959719,10.794924984928835,31.113000000012107
311854.9937,7.922504023032967,12.071896887553438,4.415898386810824,7.846947217636422,31.114000000001397
311854.9947,3.553091682441213,8.81765463662055,1.3498100154835675,4.692067559817049,31.114999999990687
311854.9957,-0.7842380331013511,5.384101173635883,-1.7057215480192809,1.413478349544148,31.116000000038184
311854.9967,-4.993399853969652,1.8686274405194467,-4.68075216833736,-1.8940934971462524,31.117000000027474
311854.9977,-8.975005298296637,-1.6226968617500723,-7.502283928954681,-5.129954619811571,31.118000000016764
311854.9987,-12.632444437753517,-4.9819509349508735,-10.099559688921675,-8.193708114116818,31.119000000006054
311854.9997,-15.878112133989342,-8.106473285119279,-12.409442679719572,-10.9916699701079,31.119999999995343
311855.0007,-18.639205330591768,-10.905619805363951,-14.381352184071154,-13.442877702638262,31.120999999984633
311855.0017,-20.862550366290765,-13.306566163882724,-15.981261288537178,-15.484163126826044,31.12200000003213
311855.0027,-22.51800465663974,-15.258640857255706,-17.194346986966412,-17.073844883713416,31.12300000002142
311855.0037,-23.60010732813681,-16.735814322632287,-18.026008622151203,-18.19372235564013,31.12400000001071
311855.0047,-24.127815907844774,-17.737144243354024,-18.501125750813806,-18.849208918928724,31.125
311855.0057,-24.14234520379883,-18.285170546116543,-18.66159599862466,-19.067614000275174,31.12599999998929
311855.0067,-23.70330263889702,-18.42244667927817,-18.562360826373546,-18.894753588744827,31.127000000036787
311855.0077,-22.883474168366586,-18.206567740897192,-18.266275951241685,-18.390221303354316,31.128000000026077
311855.0087,-21.762740931968906,-17.704193963685135,-17.838298770722528,-17.621772170540293,31.129000000015367
311855.0097,-20.421686681140276,-16.984656614851943,-17.33953599831521,-16.659347453630584,31.130000000004657
311855.0107,-18.93548199900285,-16.113764075814974,-16.82171362420317,-15.569294029679243,31.130999999993946
311855.0117,-17.368600885727222,-15.148395989721728,-16.322596075970488,-14.40930375933332,31.131999999983236
311855.0127,-15.770841410273414,-14.132386135729153,-15.862795151801153,-13.224520074335675,31.133000000030734
311855.0137,-14.174993038525024,-13.094058977358404,-15.444279988412672,-12.04513853290607,31.134000000020023
311855.0147,-12.596331543114816,-12.04561425393706,-15.050739272383689,-10.885677375702837,31.135000000009313
311855.0157,-11.033943848815252,-10.984365545670963,-14.64977139345336,-9.74592806167213,31.135999999998603
311855.0167,-9.473707153705986,-9.895651156144686,-14.19670409994793,-8.613430703131574,31.136999999987893
311855.0177,-7.892586495230334,-8.757067491208794,-13.63968918594519,-7.467171395551413,31.13800000003539
311855.0187,-6.263788142023834,-7.543542971843949,-12.925594836545738,-6.2820820228250565,31.13900000002468
311855.0197,-4.562225054034183,-6.232687405854578,-12.006140326901484,-5.0338494153786,31.14000000001397
311855.0207,-2.7697229715775595,-4.809825797556643,-10.843692336067654,-3.7035166933890413,31.14100000000326
311855.0217,-0.8794240636364059,-3.272159277522239,-9.416171674768968,-2.2813872715441397,31.14199999999255
311855.0227,1.1010733734114448,-1.6315857760803079,-7.720600932608188,-0.7698182734075372,31.14299999998184
311855.0237,3.148173952851717,0.08414971415411655,-5.774949620214191,0.8153928284511401,31.144000000029337
311855.0247,5.222518283690078,1.8321345628661,-3.6180917742900753,2.445178476714885,31.145000000018626
311855.0257,7.27098877671847,3.556769300949707,-1.307866604027749,4.0789179034428145,31.146000000007916
311855.0267,9.230310263094566,5.193835786900172,1.0825911169364864,5.667531495752516,31.146999999997206
311855.0277,11.031908210471524,6.675773371013517,3.4699242557910135,7.157642066826665,31.147999999986496
311855.0287,12.607560794288222,7.937655112147835,5.76657475420433,8.49638232459588,31.149000000033993
311855.0297,13.895299639439411,8.923277171572225,7.887212462281238,9.63635991298352,31.150000000023283
311855.0307,14.844985599386803,9.590753218524227,9.754996155869597,10.54027235444071,31.151000000012573
311855.0317,15.423013237170045,9.917044376501737,11.307111103854416,11.184695882724938,31.152000000001863
311855.0327,15.615678050511464,9.900950377929805,12.499098849919836,11.562651358019835,31.152999999991152
311855.0337,15.430866128420442,9.564230097807291,13.307610721031086,11.68466936453094,31.15400000003865
311855.0347,14.897884647769699,8.950695771722375,13.731365625784857,11.57822347128349,31.15500000002794
311855.0357,14.065428037264358,8.12331792655903,13.790260549718143,11.285561021428256,31.15600000001723
311855.0367,12.997851687191812,7.159568671680257,13.522752721735502,10.860118920277946,31.15700000000652
311855.0377,11.770085670377318,6.145400996068208,12.981789536604309,10.361852163492387,31.15799999999581
311855.0387,10.461649592723063,5.168394549352936,12.229691231516291,9.851911477752655,31.1589999999851
311855.0397,9.150314060175708,4.310681090483126,11.332480123254506,9.387172722521909,31.160000000032596
311855.0407,7.905986290998173,3.6422872462695683,10.35419095872878,9.015138043524736,31.161000000021886
311855.0417,6.785374154490757,3.2154959429639507,9.351686334832479,8.769695373167238,31.162000000011176
311855.0427,5.827906773866553,3.0607342438509066,8.37044087583916,8.668141892934974,31.163000000000466
311855.0437,5.053268304476496,3.184353286612504,7.441654342968332,8.709756316824464,31.163999999989755
311855.0447,4.460746486798541,3.5684892058127327,6.580917615478478,8.876056037567912,31.165000000037253
311855.0457,4.03042420129464,4.1729993720609695,5.788500105393626,9.132712787299235,31.166000000026543
311855.0467,3.726067398694405,4.939274743070754,5.051167951619064,9.43294035882862,31.167000000015832
311855.0477,3.4994034331931094,5.795555285806064,4.345294817088592,9.722025794726914,31.168000000005122
311855.0487,3.295355426858541,6.663238078420582,3.6409055393030916,9.942565250277248,31.168999999994412
311855.0497,3.0577132208893163,7.463580083599231,2.906208856212843,10.039898357902844,31.169999999983702
311855.0507,2.7346878296985118,8.124168111005705,2.1121367667441246,9.96721708244068,31.1710000000312
311855.0517,2.283817144374732,8.584559895106663,1.2364180892598895,9.68985863094781,31.17200000002049
311855.0527,1.6757636025380256,8.800589294260055,0.26677093225418325,9.18837378944795,31.17300000000978
311855.0537,0.8966621839994868,8.746966507603812,-0.7971030776495093,8.460084163702893,31.17399999999907
311855.0547,-0.05117246261958933,8.41797725634524,-1.9429110408971493,7.518992262790264,31.17499999998836
311855.0557,-1.1502028051640063,7.82627597191874,-3.1465891982938348,6.394072400420003,31.176000000035856
311855.0567,-2.370143143283527,6.999958272756785,-4.374443924043307,5.126131815275268,31.177000000025146
311855.0577,-3.6716532790496124,5.978268556813521,-5.586368745226282,3.7635742290070797,31.178000000014435
311855.0587,-5.010830506934845,4.806432469886803,-6.739781959122187,2.3575080312831966,31.179000000003725
311855.0597,-6.344001133615997,3.5301880021119123,-7.793855743531927,0.9567073415399171,31.179999999993015
311855.0607,-7.632285928539147,2.190614604724886,-8.713578522007785,-0.3970504355059161,31.180999999982305
311855.0617,-8.845441149862463,0.819824358006539,-9.473210604857151,-1.6727840761732624,31.182000000029802
311855.0627,-9.964555386531236,-0.5620137414255703,-10.058756850459243,-2.8528447984331384,31.183000000019092
311855.0637,-10.983304549413837,-1.947986734020455,-10.469182770401492,-3.9339162131907406,31.184000000008382
311855.0647,-11.90762068860057,-3.343934150978862,-10.716231698358996,-4.926360500093581,31.18499999999767
311855.0657,-12.753799486478202,-4.7661671095278955,-10.822847038028986,-5.851962237960519,31.18599999998696
311855.0667,-13.545239202905465,-6.237639785975886,-10.820350338145989,-6.740286807307623,31.18700000003446
311855.0677,-14.308153503555342,-7.782972160915447,-10.744658100401814,-7.624015917376385,31.18800000002375
311855.0687,-15.066716705043518,-9.422853516769566,-10.631924343156049,-8.533733995775988,31.18900000001304
311855.0697,-15.838170514033253,-11.168434762758173,-10.514061351093993,-9.492704612842612,31.19000000000233
311855.0707,-16.628438792818454,-13.01633590571687,-10.414610934184033,-10.51218891454987,31.190999999991618
311855.0717,-17.428758960122366,-14.944850419982751,-10.34541063831695,-11.587816444064616,31.191999999980908
311855.0727,-18.213748523719445,-16.91182460837664,-10.304426203729282,-12.69742629092386,31.193000000028405
311855.0737,-18.941191315852553,-18.85453683183824,-10.27501018367928,-13.80066175115654,31.194000000017695
311855.0747,-19.55366301555076,-20.69171317873573,-10.226707864992097,-14.840437314397663,31.195000000006985
311855.0757,-19.98193538823005,-22.327610732320377,-10.11757907362368,-15.74621846539015,31.195999999996275
311855.0767,-20.149920846726143,-23.657896847776385,-9.897853110320476,-16.4388795836071,31.196999999985565
311855.0777,-19.9807608348988,-24.576872410709864,-9.514598883443176,-16.836750015932658,31.198000000033062
311855.0787,-19.403538761505008,-24.985446524200547,-8.916986691841803,-16.862338203232905,31.19900000002235
311855.0797,-18.36002306471696,-24.799183325130947,-8.061652612884364,-16.449150275777086,31.20000000001164
311855.0807,-16.810826248907034,-23.955717432593513,-6.917657735274302,-15.548000064327514,31.20100000000093
311855.0817,-14.740403900749156,-22.420875700037914,-5.470564666661439,-14.132244119654109,31.20199999999022
311855.0827,-12.160410703549251,-20.192946059192472,-3.725230209937896,-12.201464844840123,31.20300000003772
311855.0837,-9.11106998243435,-17.304689965373157,-1.7070286998245447,-9.783258915349467,31.20400000002701
311855.0847,-5.660386473106685,-13.8228888993319,0.5386357388453322,-6.932954221492649,31.205000000016298
311855.0857,-1.9012226601012776,-9.845429498725476,2.948511536368802,-3.731260990226021,31.206000000005588
311855.0867,2.053550737730081,-5.496146182688881,5.44520266727838,-0.28004434714943144,31.206999999994878
311855.0877,6.077447708728841,-0.9178345581769459,7.942076718683785,3.3034307182546296,31.207999999984168
311855.0887,10.037783709349448,3.7359947023114533,10.348950414042,6.893300563368876,31.209000000031665
311855.0897,13.803507149319591,8.309947986799552,12.578053309502096,10.362383771716114,31.210000000020955
311855.0907,17.25280321693405,12.655451609458284,14.549746104034382,13.589343223028184,31.211000000010245
311855.0917,20.279853712966677,16.638634112564482,16.197495531756328,16.465154645040492,31.211999999999534
311855.0927,22.80021941471342,20.14678369775094,17.47168073740333,18.89838369974472,31.212999999988824
311855.0937,24.75444314834657,23.092917836539478,18.341919367609243,20.818895573299645,31.21400000003632
311855.0947,26.109639515957422,25.418183987256057,18.797744384954267,22.17977594995571,31.21500000002561
311855.0957,26.859024937342006,27.092015079964188,18.84762096868901,22.957414867223925,31.2160000000149
311855.0967,27.019531250838863,28.11017125512226,18.51645138104768,23.149878352206002,31.21700000000419
311855.0977,26.62781934531319,28.49099030370481,17.84185886400321,22.77385003389379,31.21799999999348
311855.0987,25.735149563854748,28.270325159806365,16.86965545813215,21.860550899943146,31.21899999998277
311855.0997,24.401659571480156,27.495752964653924,15.648971916851554,20.451127973762496,31.220000000030268
311855.1007,22.690639208029605,26.22068691562036,14.227553399080849,18.592034227524657,31.221000000019558
311855.1017,20.663372160109848,24.499005468982883,12.647699825470506,16.330899909449794,31.222000000008848
311855.1027,18.375038432475854,22.380735842038547,10.943257103837064,13.71332237801617,31.222999999998137
311855.1037,15.872047440274043,19.909198492370063,9.137952038042036,10.780885289020118,31.223999999987427
311855.1047,13.191011675481386,17.11984980553879,7.245220855391849,7.570570642489655,31.225000000034925
311855.1057,10.359391415253308,14.040868854631542,5.2695231058203555,4.115563916802826,31.226000000024214
311855.1067,7.397659838943258,10.695340145516095,3.208974956939185,0.4472900283670521,31.227000000013504
311855.1077,4.3226733443910925,7.104707243748475,1.0589944070120014,-3.401627190493359,31.228000000002794
311855.1087,1.1518002942958832,3.293029859939158,-1.183460101144843,-7.393901983120957,31.228999999992084
311855.1097,-2.092723901185602,-0.708516372446546,-3.5155454718954133,-11.484108723005972,31.229999999981374
311855.1107,-5.379777905705304,-4.857493167869842,-5.92459228730984,-15.615694826534055,31.23100000002887
311855.1117,-8.666206674397536,-9.096974664618886,-8.385042758439042,-19.71895390509017,31.23200000001816
311855.1127,-11.89499645092728,-13.353726670308106,-10.856665589739391,-23.710341645368384,31.23300000000745
311855.1137,-14.99509348874014,-17.538135078730416,-13.28432397513791,-27.493387733163903,31.23399999999674
311855.1147,-17.883021924589322,-21.546053614690724,-15.599422142595161,-30.96129814576492,31.23499999998603
311855.1157,-20.466272156065646,-25.262545949474045,-17.722989879107732,-34.0011688530523,31.236000000033528
311855.1167,-22.648246540096277,-28.567301097399884,-19.570199422842432,-36.49956145237664,31.237000000022817
311855.1177,-24.33438244898311,-31.341323255950964,-21.055961138189957,-38.349040456229346,31.238000000012107
311855.1187,-25.438940238068742,-33.47435554426878,-22.10112806753424,-39.45515600707564,31.239000000001397
311855.1197,-25.89185875203522,-34.87240561072166,-22.638766371136082,-39.7432865861861,31.239999999990687
311855.1207,-25.645052301726945,-35.46470914439839,-22.61992629388398,-39.16474123860013,31.241000000038184
311855.1217,-24.67755382924132,-35.20949849277508,-22.01837924628316,-37.70156218899086,31.242000000027474
311855.1227,-22.99899675090439,-34.09803529643749,-20.833868342827746,-35.36956328032216,31.243000000016764
311855.1237,-20.65106473047725,-32.15650987177996,-19.093544894855512,-32.21927910073344,31.244000000006054
311855.1247,-17.706711671576766,-29.44559252682904,-16.85142030953648,-28.33467130259971,31.244999999995343
311855.1257,-14.267147325420837,-26.057625869713046,-14.185836928526276,-23.829626660050327,31.245999999984633
311855.1267,-10.456778967483906,-22.111653184754942,-11.195136211047323,-18.84246844320144,31.24700000003213
311855.1277,-6.416478317283564,-17.74666663289671,-7.991861895589383,-13.528871352922602,31.24800000002142
311855.1287,-2.2956885634881146,-13.113612594769599,-4.6959644169436245,-8.05370492398997,31.24900000001071
311855.1297,1.7560144963009727,-8.366795533647345,-1.4275588856571935,-2.5824185455790856,31.25
311855.1307,5.597249625419762,-3.6553667130586684,1.7001756003767696,2.7273849627350293,31.25099999998929
311855.1317,9.102403795989858,0.8844339438482468,4.587385778478767,7.733563828593753,31.252000000036787
311855.1327,12.16788363047673,5.135693473432931,7.152723596919009,12.315694836746255,31.253000000026077
311855.1337,14.716599179354613,9.005441396066153,9.33693034361571,16.37955439317531,31.254000000015367
311855.1347,16.700395881201498,12.427179302387588,11.104589219819857,19.85956435525161,31.255000000004657
311855.1357,18.100334437928943,15.361233599840846,12.44397799549039,22.71912444097909,31.255999999993946
311855.1367,18.924907332299977,17.793039867542014,13.365124763961811,24.948936571553723,31.256999999983236
311855.1377,19.206457056512605,19.729651957664174,13.896328407136089,26.563595903554635,31.258000000030734
311855.1387,18.996208470070307,21.19492153289374,14.07953632142502,27.59686301313587,31.259000000020023
311855.1397,18.358432702424455,22.223899934986083,13.965063152731835,28.09612914298679,31.260000000009313
311855.1407,17.364313538425936,22.857064562093655,13.60617758955288,28.116633224351798,31.260999999998603
311855.1417,16.08608522631413,23.134962247065836,13.054076203244076,27.715982093494482,31.261999999987893
311855.1427,14.591954500391454,23.093794321226795,12.353705437658586,26.94946571862346,31.26300000003539
311855.1437,12.942215916725946,22.762349640210193,11.540791487683364,25.86655413958466,31.26400000002468
311855.1447,11.18682950139984,22.160535270923553,10.640303488770098,24.50882331671537,31.26500000001397
311855.1457,9.364567755353605,21.299575886632596,9.666421809512677,22.909397510963363,31.26600000000326
311855.1467,7.503671745996686,20.183770349973425,8.623925710950576,21.093832285775854,31.26699999999255
311855.1477,5.623800150988981,18.81352590602104,7.510768878558613,19.082211044112572,31.26799999998184
311855.1487,3.7389261580195923,17.18925372629177,6.321491731365801,16.892104103423122,31.269000000029337
311855.1497,1.8607476453881528,15.315617881809002,5.051037660779537,14.541954722605452,31.270000000018626
311855.1507,0.002134546540123153,13.205592249328033,3.6985043095102053,12.054419253660123,31.271000000007916
311855.1517,-1.8198527094485035,10.883799974547085,2.2703739330492034,9.45920192199773,31.271999999997206
311855.1527,-3.5817799827604446,8.388685718881556,0.7828271534710027,6.794986771899995,31.272999999986496
311855.1537,-5.252794848311836,5.7731942028555805,-0.7371543485373343,4.1101732892171094,31.274000000033993
311855.1547,-6.794889192562583,3.1037869244718235,-2.2520589038359904,1.4622571793713326,31.275000000023283
311855.1557,-8.164484918433333,0.45780622574099594,-3.7155036067062652,-1.0841503048441552,31.276000000012573
311855.1567,-9.315204435402475,-2.0806259743780657,-5.075144043501558,-3.460517940046463,31.277000000001863
311855.1577,-10.201547859949041,-4.425826668605638,-6.276561188972506,-5.598519897239933,31.277999999991152
311855.1587,-10.783088275184653,-6.496412419394979,-7.267742090221161,-7.434696117671186,31.27900000003865
311855.1597,-11.02872667741162,-8.221247196657375,-8.003700184485869,-8.915183578392684,31.28000000002794
311855.1607,-10.920526881201656,-9.544897943092309,-8.450756508769736,-10.00003263920778,31.28100000001723
311855.1617,-10.456680239941567,-10.432052365829307,-8.590027425912403,-10.66665116380381,31.28200000000652
311855.1627,-9.653227939907884,-10.87044291013742,-8.41973567656272,-10.91199525945426,31.28299999999581
311855.1637,-8.544287266730654,-10.871957354014418,-7.956072726860035,-10.753241918289842,31.2839999999851
311855.1647,-7.180675845007783,-10.471786743290501,-7.232480634952088,-10.226824105355334,31.285000000032596
311855.1657,-5.6269896034730795,-9.72564878793466,-6.297377152170559,-9.385868496599864,31.286000000021886
311855.1667,-3.957349751203087,-8.705310878612629,-5.210503048183976,-8.296234164803217,31.287000000011176
311855.1677,-2.250175075580995,-7.492803096996332,-4.038210169501337,-7.031491143086352,31.288000000000466
311855.1687,-0.5824438139028694,-6.173841374411411,-2.84811843917376,-5.6672867105561675,31.288999999989755
311855.1697,0.9760271854179327,-4.831061195783911,-1.7036386824898095,-4.275613264355347,31.290000000037253
311855.1707,2.3677463589090064,-3.5376846595433404,-0.6588786107190144,-2.91950779033963,31.291000000026543
311855.1717,3.551656290218095,-2.35220565484612,0.24558097028335185,-1.648677158521679,31.292000000015832
311855.1727,4.505781168677931,-1.3145827120731113,0.9856311248068664,-0.49645882805318514,31.293000000005122
311855.1737,5.228139993446799,-0.4442856704833597,1.5550117012502496,0.5215990128083592,31.293999999994412
311855.1747,5.7358153926800926,0.2596355747192222,1.9649798927003292,1.40740829219596,31.294999999983702
311855.1757,6.062244228556328,0.8164871390636153,2.2422942535298582,2.178301684904302,31.2960000000312
311855.1767,6.252968912730586,1.2600923713372378,2.4257013425967044,2.863487726914614,31.29700000002049
311855.1777,6.360240599206412,1.6335714079409693,2.561258803077658,3.499352277741267,31.29800000000978
311855.1787,6.436982021814618,1.9832674732583506,2.6969441744619678,4.124072120659544,31.29899999999907
311855.1797,6.530686901663833,2.3524326039688512,2.8770715931609483,4.772075866672055,31.29999999998836
311855.1807,6.677847278070739,2.7753103133852033,3.1370614024615566,5.468905150292592,31.301000000035856
311855.1817,6.899457784081856,3.2722154470113374,3.4990780243669057,6.226993381066925,31.302000000025146
311855.1827,7.198050257478529,3.846115490491801,3.968971810896959,7.0427932700283415,31.303000000014435
311855.1837,7.556571806686631,4.481071997441198,4.534838423608138,7.895556125894413,31.304000000003725
311855.1847,7.939247581679567,5.142719596988537,5.167356176774214,8.747907781920278,31.304999999993015
311855.1857,8.294382225361321,5.780760723408238,5.821892349775289,9.548193179642022,31.305999999982305
311855.1867,8.558869093902306,6.333256101859043,6.442199979058186,10.23439076878974,31.307000000029802
311855.1877,8.66401151756891,6.732313379126277,6.965373380016028,10.739245489935499,31.308000000019092
311855.1887,8.54213149212848,6.910636419790324,7.327608394182668,10.996149926150588,31.309000000008382
311855.1897,8.133360755819702,6.808309380024841,7.470233914862462,10.945228777858901,31.30999999999767
311855.1907,7.3919851558999605,6.379161439350817,7.3454523150672175,10.539059342434237,31.31099999998696
311855.1917,6.291748125431844,5.596092907992418,6.9212508309593765,9.747492352553987,31.31200000003446
311855.1927,4.829609937747403,4.454838113507109,6.185021454757429,8.561120293003645,31.31300000002375
311855.1937,3.0275977990065512,2.9757859754890763,5.14554626205031,6.993066182643902,31.31400000001304
311855.1947,0.9325548388231102,1.203661532268236,3.833156918705692,5.078922622621189,31.31500000000233
311855.1957,-1.3862125986815605,-0.7949266688125296,2.298046844335853,2.874843539965799,31.315999999991618
311855.1967,-3.8411983094269755,-2.9358669096628702,0.6068859036448533,0.45396285599190994,31.316999999980908
311855.1977,-6.33250529087406,-5.123464058172893,-1.1619558343485734,-2.098531249928121,31.318000000028405
311855.1987,-8.75469583920557,-7.257365676962201,-2.924141727818445,-4.691215543138274,31.319000000017695
311855.1997,-11.004085552268858,-9.23986776004937,-4.595540757827378,-7.232615030150341,31.320000000006985
311855.2007,-12.985847523898476,-10.982939809190114,-6.09828388419424,-9.637193746835074,31.320999999996275
311855.2017,-14.620315560628198,-12.414338650448482,-7.366167451368047,-11.830622787964035,31.321999999985565
311855.2027,-15.84795453100857,-13.48227034843642,-8.348934735275625,-13.753872412534275,31.323000000033062
311855.2037,-16.632594161470593,-14.15820096160512,-9.015078938928472,-15.365795093757956,31.32400000002235
311855.2047,-16.96268725971572,-14.437595866139793,-9.35295603912423,-16.64401741493133,31.32500000001164
311855.2057,-16.850538574638573,-14.338566486285872,-9.370159570667882,-17.58412579840402,31.32600000000093
311855.2067,-16.32963849039682,-13.898603099542703,-9.091275673772486,-18.197297726220686,31.32699999999022
311855.2077,-15.450408528536853,-13.169753494369697,-8.55428931843717,-18.506679992664495,31.32800000003772
311855.2087,-14.274806790805608,-12.212752069949648,-7.806036768334261,-18.542933947020774,31.32900000002701
311855.2097,-12.870337763479402,-11.090698490850366,-6.897183133916837,-18.339443106831464,31.330000000016298
311855.2107,-11.304053494991544,-9.862920203714706,-5.877239397322468,-17.927703686741047,31.331000000005588
311855.2117,-9.637118489977945,-8.579625777658869,-4.790117469794001,-17.333391214892746,31.331999999994878
311855.2127,-7.920440757052986,-7.2778690684611576,-3.670656645157363,-16.573519413718596,31.332999999984168
311855.2137,-6.1917536844951835,-5.9792063879455375,-2.5424470840466515,-15.654988721517842,31.334000000031665
311855.2147,-4.474379783765796,-4.689253907314552,-1.4171367155046517,-14.574673163790054,31.335000000020955
311855.2157,-2.777733230044223,-3.399157767522641,-0.29525125204545644,-13.321030625646186,31.336000000010245
311855.2167,-1.0994408202829118,-2.0887940444336515,0.8316013801866257,-11.877059274514457,31.336999999999534
311855.2177,0.571202074297552,-0.7313390714545603,1.9774151529238633,-10.224278140941335,31.337999999988824
311855.2187,2.2488568218875735,0.701289956286476,3.157747290453943,-8.347297158118442,31.33900000003632
311855.2197,3.9473541300579105,2.23271485384591,4.385421297861222,-6.238472613100623,31.34000000002561
311855.2207,5.675038067916461,3.8767194014153903,5.666464303292866,-3.9021250464279658,31.3410000000149
311855.2217,7.430768668661035,5.6328078248150675,6.996749267946005,-1.3578302830207263,31.34200000000419
311855.2227,9.201040172420221,7.483201936196128,8.359742439219835,1.3576225298601627,31.34299999999348
311855.2237,10.958555923858068,9.391640251726889,9.725645110348252,4.189887131026744,31.34399999998277
311855.2247,12.662450596101001,11.304165626411624,11.052077318977162,7.068457265602136,31.345000000030268
311855.2257,14.260180744315742,13.151891363459763,12.28629355295911,9.90976197502046,31.346000000019558
311855.2267,15.69093252501918,14.855538460544754,13.368762417994803,12.621748486537738,31.347000000008848
311855.2277,16.890237790304024,16.331357839293382,14.237799219122566,15.109592203295447,31.347999999998137
311855.2287,17.795362275919416,17.49790850629383,14.83482672840896,17.282055934671053,31.348999999987427
311855.2297,18.35094488840189,18.283069619511686,15.109766435782143,19.057947310547068,31.350000000034925
311855.2307,18.514333615887974,18.630630604749197,15.026037751541674,20.372101692726638,31.351000000024214
311855.2317,18.2600847901844,18.50583232709417,14.564668723786449,21.180350306979253,31.352000000013504
311855.2327,17.5831664174993,17.899321390304845,13.727096681992244,21.46301706162328,31.353000000002794
311855.2337,16.500526004115162,16.82912063314194,12.536353900126807,21.226614940880904,31.353999999992084
311855.2347,15.050837169372821,15.34039852420448,11.036480875591343,20.503572084771054,31.354999999981374
311855.2357,13.292412421788569,13.503021391765685,9.290174088494659,19.349993715822876,31.35600000002887
311855.2367,11.299444906688427,11.407076118934878,7.374840392414906,17.84164230666152,31.35700000001816
311855.2377,9.156902563409151,9.156737675329621,5.377380574860309,16.06847809991171,31.35800000000745
311855.2387,6.954528201566779,6.863007836289042,3.388145567849949,14.128230143331795,31.35899999999674
311855.2397,4.780485711812677,4.635954177195068,1.4945885313028728,12.11955225945846,31.35999999998603
311855.2407,2.715227375558512,2.5771221704825034,-0.22483323912510947,10.135350899262537,31.361000000033528
311855.2417,0.8261365120506781,0.7727738786161772,-1.7059740128287808,8.256849670745135,31.362000000022817
311855.2427,-0.8365745868025362,-0.7114736797370924,-2.9030719390294224,6.5488807777938,31.363000000012107
311855.2437,-2.242352166108198,-1.8341710446816322,-3.7912319654064257,5.056773971123513,31.364000000001397
311855.2447,-3.380970048367509,-2.5794541427691087,-4.367120774159433,3.805060530685893,31.364999999990687
311855.2457,-4.261351185285598,-2.9562891762723784,-4.647840904295128,2.798038069115558,31.366000000038184
311855.2467,-4.908690084821917,-2.9956780801710807,-4.668119443369557,2.0220680985761272,31.367000000027474
311855.2477,-5.360187050569808,-2.746144907108554,-4.476101251284254,1.4493189882743822,31.368000000016764
311855.2487,-5.6598370872058865,-2.267977646317036,-4.128162870262053,1.042537310560647,31.369000000006054
311855.2497,-5.852804743103226,-1.6268068758633822,-3.683249098462004,0.7603428239601772,31.369999999995343
311855.2507,-5.979952495438159,-0.8871524043471901,-3.197271610027842,0.5625045367148981,31.370999999984633
311855.2517,-6.073071043679678,-0.10655739143676067,-2.718094644899176,0.4146706084639738,31.37200000003213
311855.2527,-6.151287000949282,0.6691419561300747,-2.2815683358511416,0.2920912813628421,31.37300000002142
311855.2537,-6.219004126592738,1.4089866508167512,-1.9089621944966102,0.18198463548854626,31.37400000001071
311855.2547,-6.265580119176258,2.098244054721976,-1.606010339746656,0.08433853945883214,31.375
311855.2557,-6.266767159014316,2.737861574914255,-1.3636200570507964,0.011104383028055897,31.37599999998929
311855.2567,-6.187767835457861,3.342142384793644,-1.1601318444859765,-0.016097023064520034,31.377000000036787
311855.2577,-5.987596056405394,3.9349385122996123,-0.9648681141459354,0.03051417671035356,31.378000000026077
311855.2587,-5.6243008385907824,4.5448032600599895,-0.7425837754537473,0.18054454799126748,31.379000000015367
311855.2597,-5.060522387404844,5.19964607070081,-0.45834693891960676,0.4607498171680167,31.380000000004657
311855.2607,-4.268813264158617,5.921478929472328,-0.08234001270675498,0.8905230274510709,31.380999999993946
311855.2617,-3.2361763356812756,6.721829969884325,0.4059160219305061,1.4780420952937103,31.381999999983236
311855.2627,-1.9673438413391322,7.5983287328122575,1.014349850873478,2.217503737414263,31.383000000030734
311855.2637,-0.4864413069165136,8.532845820853202,1.7364720023629996,3.0877612679411515,31.384000000020023
311855.2647,1.163165355551542,9.491409734984666,2.5510457530072412,4.052542480642491,31.385000000009313
311855.2657,2.920866370800419,10.425941470764519,3.423336133517164,5.062264766258959,31.385999999998603
311855.2667,4.712496916659103,11.277661147116415,4.307817531708861,6.057303526354431,31.386999999987893
311855.2677,6.4554027727245105,11.981849085751081,5.152073745956392,6.9724227675328585,31.38800000003539
311855.2687,8.064433162979961,12.473503453535136,5.901504376297779,7.741958043111557,31.38900000002468
311855.2697,9.45831997484172,12.693341792925434,6.504369967129396,8.305263389928916,31.39000000001397
311855.2707,10.565863221483498,12.593553953770481,6.916673350774845,8.611903355619228,31.39100000000326
311855.2717,11.331358977459706,12.142733109091692,7.106389611501051,8.626091664528213,31.39199999999255
311855.2727,11.718776448114394,11.3294878415682,7.0566204901964955,8.329947535445635,31.39299999998184
311855.2737,11.714308448076215,10.164364206253921,6.767354589656035,7.725252313816239,31.394000000029337
311855.2747,11.327072883059056,8.679869756396881,6.255651958772722,6.833531926924271,31.395000000018626
311855.2757,10.587916902198309,6.928575611795231,5.554226932642451,5.6944506501798,31.396000000007916
311855.2767,9.546453265551563,4.979459504790116,4.708561092785214,4.3626630398849,31.396999999997206
311855.2777,8.266622871115308,2.912823825482335,3.7728232262461496,2.903417770777204,31.397999999986496
311855.2787,6.821212392587586,0.8142610309596392,2.8049908268966495,1.3873250879590178,31.399000000033993
311855.2797,5.285848607441068,-1.231769344539236,1.8616463303451876,-0.11522291295131665,31.400000000023283
311855.2807,3.7330324594069846,-3.148151556434997,0.9929531088015486,-1.5394604679374417,31.401000000012573
311855.2817,2.2267624691343864,-4.870534770581905,0.23829812204147846,-2.8309873758712687,31.402000000001863
311855.2827,0.818230457338453,-6.351466618935905,-0.3769781684097492,-3.9494117079494955,31.402999999991152
311855.2837,-0.4570404234828295,-7.562870149803218,-0.8434518772726103,-4.870579762588002,31.40400000003865
311855.2847,-1.5803932125275517,-8.496660092068332,-1.1679117469561722,-5.5872187183291135,31.40500000002794
311855.2857,-2.549516023216171,-9.163479104769284,-1.3720629721104867,-6.1079753297550665,31.40600000001723
311855.2867,-3.376319386531614,-9.589720868729154,-1.489778044151605,-6.454992386430047,31.40700000000652
311855.2877,-4.083486836110154,-9.81317598561838,-1.5631773172476484,-6.660307765001981,31.40799999999581
311855.2887,-4.700102022197021,-9.877771853897222,-1.6379372300513193,-6.7614745426910865,31.4089999999851
311855.2897,-5.2568423736358625,-9.827965511381397,-1.7582997017819517,-6.796873549548214,31.410000000032596
311855.2907,-5.78126587215603,-9.703380076114998,-1.9622846645486616,-6.801214727061477,31.411000000021886
311855.2917,-6.293700456271144,-9.53424764507765,-2.2775861785929274,-6.801698322418901,31.412000000011176
311855.2927,-6.804176860770382,-9.338136974267622,-2.7185632389052476,-6.815233892390242,31.413000000000466
311855.2937,-7.310732382778885,-9.118311248727087,-3.2846260970309062,-6.8470016944199665,31.413999999989755
311855.2947,-7.799266636781601,-8.863892871235425,-3.960178628531293,-6.8904987182784,31.415000000037253
311855.2957,-8.244965600080493,-8.551825116552457,-4.716120892747265,-6.929054682251655,31.416000000026543
311855.2967,-8.615143767552691,-8.150433294547561,-5.51275908150503,-6.938647598598697,31.417000000015832
311855.2977,-8.873202827540966,-7.624219414504612,-6.303828134492234,-6.891709743533401,31.418000000005122
311855.2987,-8.983284259150002,-6.939391173990928,-7.041219540592126,-6.761507146138014,31.418999999994412
311855.2997,-8.91511495548009,-6.069541919903631,-7.679934510676277,-6.526610087938454,31.419999999983702
311855.3007,-8.648517487407084,-5.0008717933194395,-8.182758080868776,-6.174955468466918,31.4210000000312
311855.3017,-8.177082981106466,-3.7363746717417525,-8.524175361796232,-5.707036263970362,31.42200000002049
311855.3027,-7.510582464380472,-2.298507878207456,-8.69312469480164,-5.137835617090252,31.42300000000978
311855.3037,-6.6758144588413115,-0.7300033227459464,-8.694296773256037,-4.4972454633996755,31.42399999999907
311855.3047,-5.715740638912514,0.9073437480727834,-8.547832649802224,-3.828860091976729,31.42499999998836
311855.3057,-4.686932357890813,2.535876026097319,-8.287432838534786,-3.1871988316469784,31.426000000035856
311855.3067,-3.655521798198992,4.067037272856357,-7.957048729363226,-2.633572906707834,31.427000000025146
311855.3077,-2.69200538841423,5.407692874332822,-7.606470535389191,-2.230953355173289,31.428000000014435
311855.3087,-1.8653684991404476,6.467263995054416,-7.286238800018655,-2.0383054722296627,31.429000000003725
311855.3097,-1.2370769851641932,7.1650428080398365,-7.042377840108161,-2.104919467182817,31.429999999993015
311855.3107,-0.855504963742746,7.437027203823602,-6.911472185913522,-2.4652801641768183,31.430999999982305
311855.3117,-0.751336568332374,7.241647095110617,-6.916578656448115,-3.1349789058100184,31.432000000029802
311855.3127,-0.9343950180356149,6.5638480011688705,-7.064389754254388,-4.108081802595481,31.433000000019092
311855.3137,-1.3922231273750136,5.417142271978699,-7.343945921413594,-5.356238447098584,31.434000000008382
311855.3147,-2.0905777141691804,3.843420388055351,-7.727046270303129,-6.829656573252504,31.43499999999767
311855.3157,-2.9758218315461513,1.91051691410003,-8.170344033474803,-8.459896124435293,31.43599999998696
311855.3167,-3.9790206294349812,-0.29227137515980733,-8.618950054344715,-10.164267379947068,31.43700000003446
311855.3177,-5.021386209545919,-2.6603332666733177,-9.011221039587054,-11.851468477385081,31.43800000002375
311855.3187,-6.020589640684485,-5.081026470065398,-9.28429332506553,-13.427982274191738,31.43900000001304
311855.3197,-6.8973766822484,-7.441467904288659,-9.379848912308518,-14.804682135470077,31.44000000000233
311855.3207,-7.581895617665712,-9.636163036319255,-9.249575774412765,-15.903077653944976,31.440999999991618
311855.3217,-8.019173610895761,-11.573829720231865,-8.859811377040488,-16.66066620120154,31.441999999980908
311855.3227,-8.173259384528702,-13.182855180374752,-8.194934440522072,-17.034941081932804,31.443000000028405
311855.3237,-8.029676806538541,-14.414959429897005,-7.259187820823706,-17.005733579642797,31.444000000017695
311855.3247,-7.595993796265672,-15.24681117533342,-6.07676357641541,-16.575721997878695,31.445000000006985
311855.3257,-6.900488275086515,-15.679536192149438,-4.690145428920734,-15.769110782881517,31.445999999996275
311855.3267,-5.9890705055989235,-15.73625440059226,-3.156867990110896,-14.628650533770736,31.446999999985565
311855.3277,-4.920781941684105,-15.457961486844372,-1.545000408891514,-13.211319055854,31.448000000033062
311855.3287,-3.7623192303652893,-14.898216741013952,0.07221983820919416,-11.583100375345095,31.44900000002235
311855.3297,-2.5821160705242288,-14.117197110265595,1.622100776123205,-9.813371866490114,31.45000000001164
311855.3307,-1.4445474530636957,-13.175719355240398,3.0380274418460638,-7.969432724187405,31.45100000000093
311855.3317,-0.4047977359617942,-12.129814333841088,4.264304714083163,-6.111678266825359,31.45199999999022
311855.3327,0.49514122531782995,-11.026362408923381,5.259877396120385,-4.289847365541653,31.45300000003772
311855.3337,1.2289952606464403,-9.900174985368091,6.000607194536781,-2.540652759351998,31.45400000002701
311855.3347,1.7870616061379703,-8.772747186311502,6.479930026790221,-0.8869580984204611,31.455000000016298
311855.3357,2.1753653480541297,-7.652727080603645,6.707876738712907,0.6614940942823179,31.456000000005588
311855.3367,2.4132621023198553,-6.53796587356307,6.708600105433018,2.1059568664834263,31.456999999994878
311855.3377,2.529783475221071,-5.418849254807468,6.516695270324429,3.4554488427631864,31.457999999984168
311855.3387,2.5591436297804098,-4.282479029723227,6.172715481070815,4.72282141013255,31.459000000031665
311855.3397,2.5359040047520485,-3.1171891916063905,5.718359005750609,5.920591261902036,31.460000000020955
311855.3407,2.4903213915582727,-1.9168499826758565,5.191829386550563,7.057024802377953,31.461000000010245
311855.3417,2.4443796699717133,-0.6844400307728662,4.623847356901597,8.132929437931354,31.461999999999534
311855.3427,2.4089302690199386,0.5655526051592791,4.034721376308012,9.139528851031553,31.462999999988824
311855.3437,2.382248533969604,1.8062130468464777,3.4327720496877268,10.057682888740061,31.46400000003632
311855.3447,2.350164501031004,2.9989188992905507,2.8142648560452628,10.858569394697193,31.46500000002561
311855.3457,2.287761975102003,4.0956730174233,2.16484961369963,11.505789507614061,31.4660000000149
311855.3467,2.162475687166787,5.042851397295487,1.4623494193832087,11.958705207544611,31.46700000000419
311855.3477,1.9382690306527215,5.786011663757086,0.680601831073946,12.17668349588282,31.46799999999348
311855.3487,1.5804591310091693,6.275286279302514,-0.2060553203422961,12.123819049801059,31.46899999998277
311855.3497,1.0606833786986631,6.4708105723344405,-1.2181309550530763,11.773646899862605,31.470000000030268
311855.3507,0.36147940255782784,6.347616778948023,-2.366660407268595,11.113344919864133,31.471000000019558
311855.3517,-0.5200188338221781,5.899463852253014,-3.6496900414973554,10.146964220578687,31.472000000008848
311855.3527,-1.5696853774872683,5.141165454880656,-5.049964388312378,8.897310520526249,31.472999999998137
311855.3537,-2.7556005808179527,4.109116564363821,-6.534098563314308,7.406223244313377,31.473999999987427
311855.3547,-4.028983410876438,2.8598891998698592,-8.053375015752176,5.733149653767064,31.475000000034925
311855.3557,-5.326828947169002,1.4669533934750916,-9.546145008931024,3.9520742350436064,31.476000000024214
311855.3567,-6.576054394103977,0.015762528499941978,-10.941657134126732,2.147023044233279,31.477000000013504
311855.3577,-7.698806570942165,-1.4023954410973687,-12.16499304718836,0.4065032027155568,31.478000000002794
311855.3587,-8.618465741242748,-2.697253657493543,-13.142678401055525,-1.1826545522092298,31.478999999992084
311855.3597,-9.26580647664922,-3.7865251880259705,-13.808465643259863,-2.541518081730652,31.479999999981374
311855.3607,-9.584753435736763,-4.602341834029326,-14.10876200156342,-3.6047943094623065,31.48100000002887
311855.3617,-9.537200916296392,-5.096589590373243,-14.007202984078367,-4.3255787076928405,31.48200000001816
311855.3627,-9.106447023835045,-5.244653110154312,-13.487946576472575,-4.678690188072252,31.48300000000745
311855.3637,-8.298918547973855,-5.047224128687853,-12.557378891459205,-4.662293726793019,31.48399999999674
311855.3647,-7.144019202266823,-4.530004829682188,-11.244067235873679,-4.297667445431832,31.48499999998603
311855.3657,-5.692106764613801,-3.741329840152816,-9.59695746877904,-3.627139042387953,31.486000000033528
311855.3667,-4.010777266381722,-2.7479215224150964,-7.681973687524018,-2.7103824184765766,31.487000000022817
311855.3677,-2.17979014917625,-1.6291642356355802,-5.5773242519273065,-1.61941325776624,31.488000000012107
311855.3687,-0.2850922967732967,-0.470417920745294,-3.3679349882228653,-0.43273813686812773,31.489000000001397
311855.3697,1.5875208093541768,0.6440231303305751,-1.139506994958741,0.7708155384793516,31.489999999990687
311855.3707,3.3585395075547675,1.637692241113464,1.0272743941808682,1.9180386580518562,31.491000000038184
311855.3717,4.960127546260704,2.447830634538478,3.061873846909005,2.9465275958222983,31.492000000027474
311855.3727,6.340296756704899,3.0298719828657377,4.907946534229815,3.8086765171376076,31.493000000016764
311855.3737,7.465522911945878,3.3601536094380475,6.525957613244718,4.474151149352756,31.494000000006054
311855.3747,8.321609194475426,3.436647985950566,7.894193199756356,4.93066923443148,31.494999999995343
311855.3757,8.912773287525125,3.2776976674703953,9.00813159996057,5.183076860498796,31.495999999984633
311855.3767,9.259104480142172,2.9189262486572947,9.878301075195573,5.250873060461855,31.49700000003213
311855.3777,9.392691805420707,2.4086690672132476,10.526893876284944,5.164481706980206,31.49800000002142
311855.3787,9.352848161378718,1.8024038084886929,10.983521840631509,4.960685720490613,31.49900000001071
311855.3797,9.180936670619307,1.1567498768580942,11.280575400039819,4.677712861631702,31.5
311855.3807,8.915336481925051,0.523638063851819,11.448678146716539,4.350487917003367,31.50099999998929
311855.3817,8.58706300555928,-0.05477419961859038,11.512710437057747,4.006540688939227,31.502000000036787
311855.3827,8.216484610033662,-0.5499489891361629,11.488809963976221,3.6629856192224595,31.503000000026077
311855.3837,7.811461460416621,-0.9492123792430065,11.382651472405282,3.324874561916911,31.504000000015367
311855.3847,7.367084052956776,-1.256198934048342,11.189172432436907,2.9850805816927966,31.505000000004657
311855.3857,6.867023800731896,-1.4894809683534898,10.893760011337763,2.6257119437794283,31.505999999993946
311855.3867,6.2863421066955585,-1.6795508103362802,10.474762154217096,2.2208973798582647,31.506999999983236
311855.3877,5.595454129154069,-1.864490022474319,9.907047134490115,1.740641872259587,31.508000000030734
311855.3887,4.764823745212544,-2.084791236999287,9.16622531069865,1.1553405934998173,31.509000000020023
311855.3897,3.7698888789248093,-2.3778830153857493,8.233075017916978,0.4404682840422731,31.510000000009313
311855.3907,2.595689036628692,-2.7729376645835813,7.097688693619338,-0.4190607944819371,31.510999999998603
311855.3917,1.240692312468938,-3.286513398462375,5.762878121122943,-1.4253389077910799,31.511999999987893
311855.3927,-0.2806051661255136,-3.9194985049926543,4.2464469092758055,-2.565117485437855,31.51300000003539
311855.3937,-1.936615793519793,-4.655694586564023,2.582047276298123,-3.8089506393910453,31.51400000002468
311855.3947,-3.6792916287493584,-5.462211416191015,0.818476211533837,-5.111968621443075,31.51500000001397
311855.3957,-5.446442290888414,-6.291663772712473,-0.9825803787874702,-6.4162602888313085,31.51600000000326
311855.3967,-7.165565107219129,-7.085978802992477,-2.750192952696954,-7.654684557006958,31.51699999999255
311855.3977,-8.758862468315169,-7.781459000714457,-4.4089211604470675,-8.755788194932464,31.51799999998184
311855.3987,-10.149001705987146,-8.314616986919773,-5.884221463811123,-9.649395135380077,31.519000000029337
311855.3997,-11.265095851311662,-8.628216738034766,-7.108045289474115,-10.272361745181191,31.520000000018626
311855.4007,-12.048356951351842,-8.676929897828238,-8.024118447594255,-10.573970210326713,31.521000000007916
311855.4017,-12.456899910554839,-8.432048044582476,-8.592416600585969,-10.520460607201645,31.521999999997206
311855.4027,-12.46925158384664,-7.8847792549599856,-8.792422466708247,-10.098278688356906,31.522999999986496
311855.4037,-12.086239655276165,-7.047791568021493,-8.624861387346911,-9.315733567409344,31.524000000033993
311855.4047,-11.331087050322147,-5.954833948177979,-8.111752157846558,-8.202906038951435,31.525000000023283
311855.4057,-10.247705539569838,-4.658450673702103,-7.294766030968315,-6.809810049087139,31.526000000012573
311855.4067,-8.897350448602166,-3.2259895960306877,-6.2320434193338885,-5.202971190331443,31.527000000001863
311855.4077,-7.3539506097135225,-1.734270316927661,-4.9937598571265385,-3.4607314233536144,31.527999999991152
311855.4087,-5.698549060831645,-0.2634087183756174,-3.656846467277545,-1.6677044862681132,31.52900000003865
311855.4097,-4.013368725201783,1.1096234296637035,-2.2993445308231664,0.09111945994892184,31.53000000002794
311855.4107,-2.376045786722838,2.317099061783444,-0.9949016392373708,1.736095551943014,31.53100000001723
311855.4117,-0.854549044088091,3.305724875635162,0.19210424317050628,3.197972639699044,31.53200000000652
311855.4127,0.49677127469347065,4.040435998470408,1.2103944278823726,4.421841403571887,31.53299999999581
311855.4137,1.6396794155765713,4.506449574132028,2.0242623851801724,5.3696684646892825,31.5339999999851
311855.4147,2.5529176666902944,4.709400779915441,2.6145164749974366,6.02124534130727,31.535000000032596
311855.4157,3.23142558188468,4.673572355788351,2.977871784276567,6.373538725263872,31.536000000021886
311855.4167,3.6840677072279613,4.438415269694623,3.124923374777512,6.438585547346309,31.537000000011176
311855.4177,3.9301708699334386,4.05372529151634,3.0769715103163353,6.24021706057498,31.538000000000466
311855.4187,3.9952888304769143,3.5739714979622623,2.862079213776873,5.810006719955934,31.538999999989755
311855.4197,3.906685655824262,3.052355058764114,2.51081293440615,5.182906024161925,31.540000000037253
311855.4207,3.689052118094143,2.5352018164007273,2.0521412342355156,4.393053876037125,31.541000000026543
311855.4217,3.3609393737370588,2.0572575277827068,1.5099418906535351,3.470216388465896,31.542000000015832
311855.4227,2.9323140478597276,1.6383634315935807,0.9004971743733935,2.4372384005224768,31.543000000005122
311855.4237,2.4035165829897327,1.281850868511825,0.2312474249886036,1.3087729947318216,31.543999999994412
311855.4247,1.7657525212010692,0.9748205770412777,-0.4990645483370348,0.09141270715768848,31.544999999983702
311855.4257,1.0030795510730899,0.6902819946370218,-1.2988773964624174,-1.2148096022959443,31.5460000000312
311855.4267,0.09568850664154031,0.39093914828728166,-2.181093090625678,-2.6137352284036965,31.54700000002049
311855.4277,-0.9758692117814662,0.034241175808847196,-3.159460257337346,-4.109529019057343,31.54800000000978
311855.4287,-2.22596715423691,-0.421816082503949,-4.244466289542469,-5.702685517539429,31.54899999999907
311855.4297,-3.6592278865605574,-1.012732472926257,-5.439208371457304,-7.386072887505865,31.54999999998836
311855.4307,-5.266424655972974,-1.762008034337302,-6.7357287562437245,-9.141505360311049,31.551000000035856
311855.4317,-7.021458301651177,-2.6766898477794037,-8.112265200493143,-10.937293575474367,31.552000000025146
311855.4327,-8.879814202981317,-3.744445937433448,-9.53178631191319,-12.727133296034662,31.553000000014435
311855.4337,-10.77876829451245,-4.932506849036451,-10.942061290767432,-14.450564904588466,31.554000000003725
311855.4347,-12.639445358252216,-6.18863671949737,-12.27736565580987,-16.035081144696523,31.554999999993015
311855.4357,-14.370652870333917,-7.444099385469124,-13.4617633669508,-17.399793882810272,31.555999999982305
311855.4367,-15.874237103943246,-8.618390397079368,-14.413747027047725,-18.46040866444642,31.557000000029802
311855.4377,-17.0515522768462,-9.625331649196264,-15.051877172639607,-19.135114668433822,31.558000000019092
311855.4387,-17.810513718366085,-10.37998871641695,-15.300952996739227,-19.350891582390716,31.559000000008382
311855.4397,-18.072634373649073,-10.805785276209985,-15.098181103354298,-19.04967488756813,31.55999999999767
311855.4407,-17.779427944919387,-10.841162712111005,-14.398792882743821,-18.193813608112123,31.56099999998696
311855.4417,-16.897603748603302,-10.445168847842266,-13.180596843568257,-16.770301232201117,31.56200000003446
311855.4427,-15.422574544112509,-9.601454501948405,-11.44703677315432,-14.793357482654992,31.56300000002375
311855.4437,-13.379940512319978,-8.320301198724643,-9.228452231317323,-12.305077218567902,31.56400000001304
311855.4447,-10.824787139744744,-6.638484119625646,-6.5813929444485835,-9.374030205057345,31.56500000000233
311855.4457,-7.838825719042435,-4.616973928788939,-3.58600862232221,-6.0918761367512095,31.565999999991618
311855.4467,-4.525594598149963,-2.33668033585759,-0.341704578186824,-2.5682361144160866,31.566999999980908
311855.4477,-1.0041093798790566,0.10737991919382744,3.0385946159195494,1.0757819984579031,31.568000000028405
311855.4487,2.5985150238428605,2.6129647674752925,6.435110653652339,4.714886124583178,31.569000000017695
311855.4497,6.154860910198593,5.077919373380661,9.728265455386943,8.227138379554754,31.570000000006985
311855.4507,9.544782764664381,7.4072668618277415,12.80555467294795,11.501117468633353,31.570999999996275
311855.4517,12.662148924581208,9.519452780627335,15.567695943945617,14.442129316535146,31.571999999985565
311855.4527,15.420222483190875,11.35120633161141,17.933580884841763,16.976978801753255,31.573000000033062
311855.4537,17.755286101241435,12.860619405435532,19.843675967594034,19.05694819941627,31.57400000002235
311855.4547,19.62828251210215,14.028219457145951,21.261664607971273,20.658792167427308,31.57500000001164
311855.4557,21.024428543616914,14.856007166912269,22.174286731573094,21.783739256584468,31.57600000000093
311855.4567,21.95094758156669,15.364625651726415,22.589496963575026,22.45466892575896,31.57699999999022
311855.4577,22.43323567243989,15.58900569103788,22.53321259392488,22.711793999997546,31.57800000003772
311855.4587,22.509913705498708,15.572973769734771,22.04504331639438,22.607306310772234,31.57900000002701
311855.4597,22.22730938311922,15.36340297689873,21.173475059708124,22.199526027580326,31.580000000016298
311855.4607,21.633949552180553,15.004522002752342,19.97101267155524,21.54712542493135,31.581000000005588
311855.4617,20.775622820557658,14.532971416242956,18.489768157035122,20.70397310970689,31.581999999994878
311855.4627,19.69149673398168,13.974111855957403,16.777914959678977,19.715067947578266,31.582999999984168
311855.4637,18.411651018829918,13.339954236847873,14.877321485622854,18.613910972030467,31.584000000031665
311855.4647,16.95623097427188,12.628910976432316,12.822539818457892,17.421510566859325,31.585000000020955
311855.4657,15.336248854250744,11.827376578733032,10.641172392031452,16.14704635863637,31.586000000010245
311855.4667,13.555883655599962,10.91295460991567,8.355485861579147,14.79004727808366,31.586999999999534
311855.4677,11.615968838783505,9.858975155478113,5.985003122953558,13.34378581862917,31.587999999988824
311855.4687,9.51822920495712,8.639809472576587,3.549695419068144,11.79946861675248,31.58900000003632
311855.4697,7.269745251397566,7.236400469760983,1.0733278544933056,10.150724938180028,31.59000000002561
311855.4707,4.887094144531508,5.641397756615959,-1.4135095107592284,8.39786702310774,31.5910000000149
311855.4717,2.3996439898591544,3.8633174952756324,-3.8711241698270955,6.5514220534215895,31.59200000000419
311855.4727,-0.14844026546291622,1.9292373126477909,-6.249560678878043,4.634512034120933,31.59299999999348
311855.4737,-2.6977931534793465,-0.1143235063902105,-8.48880505567785,2.6837774311428686,31.59399999998277
311855.4747,-5.175199672392747,-2.2025119606529073,-10.520458149298822,0.7486910611977542,31.595000000030268
311855.4757,-7.496674266138531,-4.255215205907883,-12.270824314029797,-1.1107244813585802,31.596000000019558
311855.4767,-9.572062008206489,-6.181882376299531,-13.665205881128129,-2.827596202967022,31.597000000008848
311855.4777,-11.31079485990859,-7.887699609481403,-14.633055788924814,-4.332987800740164,31.597999999998137
311855.4787,-12.628308403475025,-9.2805831838536,-15.113534477512603,-5.561327741108667,31.598999999987427
311855.4797,-13.45254369486153,-10.278365651656458,-15.060953914379773,-6.455957550615389,31.600000000034925
311855.4807,-13.72993316162498,-10.815519208670132,-14.449578369979918,-6.974256573352267,31.601000000024214
311855.4817,-13.430301762700722,-10.848792596507186,-13.277290412108384,-7.091830079719668,31.602000000013504
311855.4827,-12.550202253703178,-10.361229826024578,-11.567718527565196,-6.805329105580395,31.603000000002794
311855.4837,-11.114338284967337,-9.364182358278319,-9.370551952281303,-6.1335950350267145,31.603999999992084
311855.4847,-9.174898495105946,-7.897107503705367,-6.75992673213629,-5.116977746394374,31.604999999981374
311855.4857,-6.808812648957912,-6.025147436833525,-3.8309398207585086,-3.8148480712907076,31.60600000002887
311855.4867,-4.113129270728522,-3.8346860968025114,-0.6945187041143708,-2.3014967054718514,31.60700000001816
311855.4877,-1.1988851168249135,-1.4272659367885272,2.528973740612129,-0.6607659027090403,31.60800000000745
311855.4887,1.8160261411922505,1.0876046717415873,5.716900385162377,1.0201177411023499,31.60899999999674
311855.4897,4.814388598598151,3.6001237858144766,8.751703906502247,2.6569632599861084,31.60999999998603
311855.4907,7.686970231306402,6.007679019831748,11.527858443950525,4.174715816273609,31.611000000033528
311855.4917,10.338992763828484,8.221496132055966,13.957855766461234,5.512693807038583,31.612000000022817
311855.4927,12.69523818841527,10.1718919170344,15.976746707358044,6.628498696746864,31.613000000012107
311855.4937,14.703393869683255,11.81170661902982,17.54488632178115,7.500257773081846,31.614000000001397
311855.4947,16.33540317747221,13.117666288785781,18.648690805909713,8.12701619413553,31.614999999990687
311855.4957,17.58677367106697,14.08962249550593,19.299390687519942,8.527267911805248,31.616000000038184
311855.4967,18.47398225783595,14.747816487836936,19.52994156937673,8.7357886457313,31.617000000027474
311855.4977,19.030288591849732,15.128498017124018,19.39041420855735,8.799091373776395,31.618000000016764
311855.4987,19.300407994737284,15.278378050518848,18.942314981634595,8.769950753171315,31.619000000006054
311855.4997,19.334590280600455,15.248495383109361,18.252373893821144,8.701525529891494,31.619999999995343
311855.5007,19.18269238718224,15.088120358109645,17.386372490485993,8.641639609988054,31.620999999984633
311855.5017,18.888817239344547,14.839300843298009,16.403565473766317,8.627760308172371,31.62200000003213
311855.5027,18.487020927169763,14.532578615236405,15.352179818397474,8.68313883312922,31.62300000002142
311855.5037,17.99847250528907,14.184276444561384,14.2663609253861,8.814460756536173,31.62400000001071
311855.5047,17.43029749974148,13.795590462723101,13.164788238061412,9.011204703876903,31.625
311855.5057,16.776162887975712,13.35353546531715,12.051017221413037,9.246740526504853,31.62599999998929
311855.5067,16.018485080584032,12.833601297648213,10.915436769644096,9.48103010999581,31.627000000036787
311855.5077,15.131980613903133,12.203805148463758,9.738577137739325,9.664641101737363,31.628000000026077
311855.5087,14.088147646834521,11.429684519545102,8.495378084430548,9.743660972694805,31.629000000015367
311855.5097,12.860177642156733,10.47968253585644,7.15994185839482,9.665017708407047,31.630000000004657
311855.5107,11.427759183551371,9.33034009163085,5.710258719450143,9.38168162785057,31.630999999993946
311855.5117,9.781252996073189,7.970731486588653,4.132406864857909,8.85724303393946,31.631999999983236
311855.5127,7.924786745709717,6.405659189243572,2.4237919086350717,8.069430142360602,31.633000000030734
311855.5137,5.8779327613273695,4.657251036911815,0.5950966279354376,7.0122436740546945,31.634000000020023
311855.5147,3.675779687964084,2.7647666050525617,-1.32925136049218,5.696527155575928,31.635000000009313
311855.5157,1.3673752342845904,0.782602203881018,-3.312131903513341,4.14895089486031,31.635999999998603
311855.5167,-0.98731513984386,-1.2233323285033664,-5.306186117338062,2.4095467966880495,31.636999999987893
311855.5177,-3.3216363777256235,-3.1805255339762635,-7.257410467771675,0.5280747211017435,31.63800000003539
311855.5187,-5.567239794315584,-5.01559307688535,-9.10951491684615,-1.440385317209501,31.63900000002468
311855.5197,-7.659348734858836,-6.6602662387727305,-10.80859300429107,-3.440148383685429,31.64000000001397
311855.5207,-9.541767271068897,-8.057053481672403,-12.30762220191444,-5.419456359620345,31.64100000000326
311855.5217,-11.17113010590454,-9.16401733666002,-13.570332421047327,-7.334361440797459,31.64199999999255
311855.5227,-12.519967483633163,-9.958193463967078,-14.574046945693715,-9.151570371820586,31.64299999998184
311855.5237,-13.578277706031054,-10.437310556254126,-15.311206423365409,-10.849971952760544,31.644000000029337
311855.5247,-14.353449906149322,-10.619635725484708,-15.789422026172437,-12.420712106698673,31.645000000018626
311855.5257,-14.868545976959634,-10.54195365944847,-16.030054777366825,-13.8658362398013,31.646000000007916
311855.5267,-15.159116320356485,-10.25587094948055,-16.065469099548842,-15.195671881634127,31.646999999997206
311855.5277,-15.268872733990332,-9.822801433042716,-15.935244666595358,-16.42525999214972,31.647999999986496
311855.5287,-15.244658338072044,-9.308117878360608,-15.681737939271013,-17.570246969657674,31.649000000033993
311855.5297,-15.13122718384456,-8.775037044420285,-15.34545252046825,-18.64271056898868,31.650000000023283
311855.5307,-14.966367648518307,-8.278830989637605,-14.96069881680142,-19.647405171739393,31.651000000012573
311855.5317,-14.776871567257865,-7.8619249128660895,-14.551996206335573,-20.57887358520899,31.652000000001863
311855.5327,-14.575768272006599,-7.55035400096809,-14.13159760713174,-21.419787314266543,31.652999999991152
311855.5337,-14.361117335373013,-7.351917389115281,-13.698404230416527,-22.140753335030883,31.65400000003865
311855.5347,-14.116498149872958,-7.2561996659466175,-13.238398476527063,-22.70167502989348,31.65500000002794
311855.5357,-13.813163851891856,-7.236445908025681,-12.726569262545361,-23.054593089234743,31.65600000001723
311855.5367,-13.413658404689343,-7.253093185381394,-12.130151835332105,-23.14777507303266,31.65700000000652
311855.5377,-12.876545632436136,-7.258597874280948,-11.412868493516918,-22.93068582662367,31.65799999999581
311855.5387,-12.161782606062403,-7.20307005469453,-10.539751179156976,-22.359368991025534,31.6589999999851
311855.5397,-11.236198711012287,-7.040146363358975,-9.482062215332126,-21.401713036398952,31.660000000032596
311855.5407,-10.07852323933726,-6.732508784879679,-8.221812170052836,-20.042069771540845,31.661000000021886
311855.5417,-8.683440558811455,-6.256491353601542,-6.755405874954698,-18.284740301074223,31.662000000011176
311855.5427,-7.064239574180351,-5.605306239363647,-5.096026125904475,-16.155938902818075,31.663000000000466
311855.5437,-5.253755018197949,-4.790556440382986,-3.274482082664766,-13.703980474062648,31.663999999989755
311855.5447,-3.3034595632866712,-3.8418710184598033,-1.3383945720552544,-10.997599296322942,31.665000000037253
311855.5457,-1.2807422839438096,-2.8046839742001484,0.6502506402310418,-8.122480437343468,31.666000000026543
311855.5467,0.7354164193541528,-1.7363613544321583,2.618993393310327,-5.1762534896698655,31.667000000015832
311855.5477,2.660007588574654,-0.701045054414534,4.489905076345425,-2.262345301440709,31.668000000005122
311855.5487,4.40830652048983,0.2362900182559045,6.1852719330704735,0.5168003463280719,31.668999999994412
311855.5497,5.902371932222128,1.0159887781216925,7.633449292524272,3.066563367766719,31.669999999983702
311855.5507,7.077144928101122,1.5894782787611277,8.774359822596095,5.306463674699947,31.6710000000312
311855.5517,7.885593837251023,1.9240736192383308,9.564138404918548,7.175410896840804,31.67200000002049
311855.5527,8.302436057987128,2.0063513767227894,9.978502928870341,8.635438047478829,31.67300000000978
311855.5537,8.326097480485325,1.8437508727293483,10.014546871032385,9.673604195206863,31.67399999999907
311855.5547,7.978731531962231,1.4642332999875884,9.690794798836013,10.301914841318364,31.67499999998836
311855.5557,7.30429800665974,0.9140153686099578,9.04552199683962,10.555286047902182,31.676000000035856
311855.5567,6.364879640031612,0.25357959055422047,8.13349894491576,10.487752737022197,31.677000000025146
311855.5577,5.235574957568323,-0.4476703645921048,7.021465147854168,10.167276634107228,31.678000000014435
311855.5587,3.998434055695469,-1.1176097650336552,5.782751150270108,9.669630593077352,31.679000000003725
311855.5597,2.7359875846231083,-1.6878658200925118,4.491541668019837,9.071912314141773,31.679999999993015
311855.5607,1.5249505323378343,-2.099954024209059,3.2172997357475177,8.446264866160167,31.680999999982305
311855.5617,0.4306587266729815,-2.310499927976056,2.0198492813955498,7.854352033879065,31.682000000029802
311855.5627,-0.4972801582644645,-2.2950557042152555,0.9455440384249153,7.343056530279319,31.683000000019092
311855.5637,-1.227760288196852,-2.0501553445058582,0.02484116379739348,6.941746545443458,31.684000000008382
311855.5647,-1.7491691953370088,-1.5934209537616064,-0.7285408521512436,6.661302954605256,31.68499999999767
311855.5657,-2.068562197215714,-0.9617190667788694,-1.31685483804157,6.494930628905027,31.68599999998696
311855.5667,-2.2091579285830676,-0.20755211435598586,-1.7560780736543251,6.420608935427555,31.68700000003446
311855.5677,-2.2064509057771127,0.6059619390524231,-2.072456479426222,6.404884765209197,31.68800000002375
311855.5687,-2.103364110442901,1.411035456302973,-2.2982231358972016,6.407590661037767,31.68900000001304
311855.5697,-1.9449489051451263,2.1415103423324466,-2.466948356826452,6.386992107753946,31.69000000000233
311855.5707,-1.773173291622247,2.7389084147479714,-2.609006790695016,6.304838899775881,31.690999999991618
311855.5717,-1.6223196956946093,3.157659256062648,-2.747627113773483,6.130817972655085,31.691999999980908
311855.5727,-1.515442475916301,3.3690160524525616,-2.8959240656525047,5.845976393619166,31.693000000028405
311855.5737,-1.4622205901303398,3.3633013802522176,-3.055207620489682,5.444795816999342,31.694000000017695
311855.5747,-1.4583939819951108,3.150290619917342,-3.2147305630730103,4.935742099076759,31.695000000006985
311855.5757,-1.486808059101508,2.757724284109379,-3.3528870062235905,4.3402715632558815,31.695999999996275
311855.5767,-1.5199255736419048,2.2281239223044342,-3.4397252660063273,3.690432819712718,31.696999999985565
311855.5777,-1.5235157614417074,1.6142513316573583,-3.4405038278206956,3.0253444228294115,31.698000000033062
311855.5787,-1.4611116169646416,0.9736813145810626,-3.3199122570420854,2.386940027903229,31.69900000002235
311855.5797,-1.2987494753151168,0.3630413666174809,-3.046510425949747,1.8154431781223994,31.70000000001164
311855.5807,-1.009478187772001,-0.16750065055450625,-2.5969161191124015,1.3450566358577194,31.70100000000093
311855.5817,-0.5771506747748636,-0.5789501896818691,-1.9592952292438977,1.0003242815389466,31.70199999999022
311855.5827,0.000914162801520753,-0.8469356722944581,-1.135777936586205,0.7935500267659247,31.70300000003772
311855.5837,0.7126939521690824,-0.9635602738961748,-0.14353157158899324,0.7235455804127534,31.70400000002701
311855.5847,1.5317971346034618,-0.9374865570905246,0.9856444089406783,0.775838816351397,31.705000000016298
311855.5857,2.4193536781306784,-0.792265736063088,2.207187188497295,0.9243212036331359,31.706000000005588
311855.5867,3.327285302333517,-0.5631027689059716,3.466941107785075,1.134161863891234,31.706999999994878
311855.5877,4.20263421447361,-0.29240823924450887,4.7053357368372835,1.365682650035694,31.707999999984168
311855.5887,4.992517348353648,-0.024612067712476832,5.862173996869339,1.5787867380465694,31.709000000031665
311855.5897,5.649204574440346,0.19920999480408694,6.881568797993056,1.7374729858882665,31.710000000020955
311855.5907,6.134801378551998,0.34632607617411276,7.716548409176584,1.8139559469214368,31.711000000010245
311855.5917,6.425051100680869,0.39642096962760054,8.332880257310224,1.791948322705156,31.711999999999534
311855.5927,6.511855736275886,0.34431104091501136,8.711737269446777,1.6687452375146183,31.712999999988824
311855.5937,6.4042393331257665,0.20099763614343918,8.850942959652146,1.4558698441056126,31.71400000003632
311855.5947,6.127631833382599,-0.007075757950604551,8.76467019676262,1.1781854625301584,31.71500000002561
311855.5957,5.721518562626717,-0.2405137571954461,8.48162028355089,0.871536142250109,31.7160000000149
311855.5967,5.235664805929505,-0.45097789564955837,8.041858633261532,0.5791295000424821,31.71700000000419
311855.5977,4.725269638768446,-0.5863268222469646,7.492616123611425,0.3470076128795904,31.71799999999348
311855.5987,4.245513887446526,-0.5963798802938112,6.8834679616599574,0.21905026585808435,31.71899999998277
311855.5997,3.846032596750828,-0.43872507120137105,6.2613643728877095,0.23200987304177845,31.720000000030268
311855.6007,3.565855940463757,-0.08397856849510282,5.666003359890945,0.41108308840168256,31.721000000019558
311855.6017,3.429322494810511,0.4800519907519632,5.126003462797869,0.7664795558574359,31.722000000008848
311855.6027,3.44337885707744,1.2457483275348438,4.656256941205144,1.2913574318963226,31.722999999998137
311855.6037,3.596548307022881,2.184909131128195,4.256728576589065,1.9613668531547221,31.723999999987427
311855.6047,3.8596912387745097,3.2499505639443305,3.9128235645524176,2.7358887601279718,31.725000000034925
311855.6057,4.188506945186752,4.377014947200237,3.5972935412861697,3.560892311555333,31.726000000024214
311855.6067,4.527556858469,5.490736406638832,3.273497747046225,4.373175504604902,31.727000000013504
311855.6077,4.815440075370552,6.510248278453507,2.8997015468713494,5.105616058071385,31.728000000002794
311855.6087,4.990637538767238,7.355891717830708,2.4339902307463293,5.692956645747984,31.728999999992084
311855.6097,4.997472884638491,7.956010621442407,1.839312491276221,6.077590415679592,31.729999999981374
311855.6107,4.791622527003518,8.253202177073874,1.0881515771429193,6.2148053339111895,31.73100000002887
311855.6117,4.34464676375481,8.209436956939967,0.16635463314505972,6.076990303749444,31.73200000001816
311855.6127,3.6471039736863418,7.809563511158277,-0.9242707968386221,5.656398291965651,31.73300000000745
311855.6137,2.7099428123934044,7.062860462053946,-2.164867143207939,4.966193268677199,31.73399999999674
311855.6147,1.564030030417639,6.002480143037862,-3.5200738000751826,4.039666244850862,31.73499999998603
311855.6157,0.2578485293697947,4.682824626421663,-4.940182757386671,2.927676039095307,31.736000000033528
311855.6167,-1.1464254896147827,3.175088718707456,-6.364719036948687,1.6945363927727632,31.737000000022817
311855.6177,-2.5781027612014524,1.5613765739556662,-7.727123221468039,0.4127168078587935,31.738000000012107
311855.6187,-3.9639349226825633,-0.07206758640093035,-8.960105044461748,-0.8431639777143116,31.739000000001397
311855.6197,-5.2342846460091,-1.6418914979049577,-10.001169882308277,-2.002506379591464,31.739999999990687
311855.6207,-6.328933902080915,-3.0742830386920157,-10.797800738251851,-3.0044995551837825,31.741000000038184
311855.6217,-7.201987382141517,-4.310626152245781,-11.311808979450035,-3.8029693066729062,31.742000000027474
311855.6227,-7.825415385976287,-5.311652264768131,-11.52244487563663,-4.369868602506929,31.743000000016764
311855.6237,-8.1909116289894,-6.059719980379869,-11.427976482545443,-4.697103313613175,31.744000000006054
311855.6247,-8.309903775138281,-6.559035788546565,-11.045591306373701,-4.796542892886621,31.744999999995343
311855.6257,-8.211732366066382,-6.833826068769507,-10.409635358164966,-4.698236644031779,31.745999999984633
311855.6267,-7.9401899453536515,-6.924666763815033,-9.568363099574313,-4.447024534910632,31.74700000003213
311855.6277,-7.548769464803338,-6.8833527585690515,-8.579513912642385,-4.097881063840607,31.74800000002142
311855.6287,-7.095094208802642,-6.766827242255352,-7.5051422107996535,-3.7104471504613374,31.74900000001071
311855.6297,-6.635078491896086,-6.630778754793626,-6.406198225695564,-3.3432772697711552,31.75
311855.6307,-6.217391771023462,-6.523541758454781,-5.337377981083795,-3.048350247520483,31.75099999998929
311855.6317,-5.878766298162265,-6.480902734488922,-4.342731863333792,-2.8663604211343845,31.752000000036787
311855.6327,-5.6406032195994085,-6.522321324604503,-3.452444341689648,-2.82322452750953,31.753000000026077
311855.6337,-5.507202467911946,-6.648933990812679,-2.681080301693713,-2.9281168246833698,31.754000000015367
311855.6347,-5.465780608749259,-6.843529976407064,-2.0274476242088246,-3.173192744664312,31.755000000004657
311855.6357,-5.488263824914787,-7.072493431608896,-1.4760654102207194,-3.534994812443908,31.755999999993946
311855.6367,-5.534667832764246,-7.289510625671925,-1.0000683982011274,-3.9773700265195515,31.756999999983236
311855.6377,-5.557719968398971,-7.440666315929255,-0.5652363114295126,-4.4555815152790625,31.758000000030734
311855.6387,-5.508256343419396,-7.470415726080261,-0.13472610922053574,-4.921183369410637,31.759000000020023
311855.6397,-5.340850875577561,-7.327831687986987,0.3259836503609223,-5.327157173799265,31.760000000009313
311855.6407,-5.019110617555605,-6.972498827831396,0.8444470857215183,-5.632788666832071,31.760999999998603
311855.6417,-4.5201053125615225,-6.3794609136757945,1.4373838083020862,-5.807794895588199,31.761999999987893
311855.6427,-3.8374851630225817,-5.542720228785212,2.1079915628035777,-5.835292810116103,31.76300000003539
311855.6437,-2.9829708894087688,-4.476929946439733,2.8447213325202547,-5.713321232388268,31.76400000002468
311855.6447,-1.9860614167942119,-3.2170979623313882,3.6216506104376904,-5.454777333173764,31.76500000001397
311855.6457,-0.8919810176143483,-1.8163160242774268,4.400429825212349,-5.085791158867448,31.76600000000326
311855.6467,0.24193798359007257,-0.34172206765121793,5.133618333817321,-4.642721083963735,31.76699999999255
311855.6477,1.3510860012001278,1.1309226623030277,5.769085660701837,-4.168093362505916,31.76799999998184
311855.6487,2.3691494487252345,2.5235239112807073,6.255044743618449,-3.705916163771506,31.769000000029337
311855.6497,3.2338819931096565,3.762208983035282,6.545217682739811,-3.2968618619283907,31.770000000018626
311855.6507,3.8925097976715315,4.783516265412118,6.603617532353394,-2.9738245420920295,31.771000000007916
311855.6517,4.3062430954039455,5.53962602244018,6.4084638212314955,-2.758321335062367,31.771999999997206
311855.6527,4.45345509852515,6.0021326140022175,5.954831503454423,-2.65812010097415,31.772999999986496
311855.6537,4.331221496622324,6.164001147845368,5.255754970959987,-2.666350728544999,31.774000000033993
311855.6547,3.955076571554794,6.039529335309239,4.341658704629713,-2.7622054137945757,31.775000000023283
311855.6557,3.3570191730380037,5.662330516541263,3.2581494264262516,-2.913169935010836,31.776000000012573
311855.6567,2.5819759110043417,5.081547239044858,2.0623652253333034,-3.0785695387074847,31.777000000001863
311855.6577,1.6830826599495705,4.356677392278087,0.8182192807468364,-3.214075539587005,31.777999999991152
311855.6587,0.7162635454126758,3.5515297510406927,-0.4090145027049998,-3.2767160298125044,31.77900000003865
311855.6597,-0.2653428063269221,2.727909615153273,-1.5582602457862536,-3.2298766825606626,31.78000000002794
311855.6607,-1.2165439638285498,1.939659832455857,-2.5778130503881433,-3.0477715428050143,31.78100000001723
311855.6617,-2.1043158884083644,1.227645470309409,-3.429631141139715,-2.7189098628207526,31.78200000000652
311855.6627,-2.9106540937400958,0.6161754371309464,-4.092335640405357,-2.2481792095319166,31.78299999999581
311855.6637,-3.633757676173425,0.11121082871069558,-4.562630128060326,-1.657298211668862,31.7839999999851
311855.6647,-4.287416790816912,-0.29946816623225686,-4.855004063490729,-0.983551492135477,31.785000000032596
311855.6657,-4.898654678635179,-0.6441597973087185,-4.999749511871229,-0.2768889781161546,31.786000000021886
311855.6667,-5.503851973846193,-0.9634182678038561,-5.039483317373769,0.4043647712370523,31.787000000011176
311855.6677,-6.143736294106617,-1.3048981239970276,-5.024511059475149,0.9988044649637127,31.788000000000466
311855.6687,-6.857738632757677,-1.7173857122470764,-5.007480782740243,1.4477496800638465,31.788999999989755
311855.6697,-7.678287980927883,-2.244620080529072,-5.037842755725822,1.7010127046266836,31.790000000037253
311855.6707,-8.62562977711722,-2.9195287054801833,-5.156649781620891,1.7220740496309628,31.791000000026543
311855.6717,-9.703710510745138,-3.759465000363897,-5.392199123493557,1.4921595763960316,31.792000000015832
311855.6727,-10.897573997023207,-4.7629384690803125,-5.756935234982965,1.0128109544471755,31.793000000005122
311855.6737,-12.172573632005816,-5.908184020555048,-6.245910228734265,0.3066789790796163,31.793999999994412
311855.6747,-13.47553282247237,-7.1537384610042745,-6.836948315524928,-0.5835659771729006,31.794999999983702
311855.6757,-14.737799308272127,-8.440996976904927,-7.4924959993525615,-1.5981361917631602,31.7960000000312
311855.6767,-15.879956242280164,-9.698529562110727,-8.162977617330402,-2.6646011069906,31.79700000002049
311855.6777,-16.8177913493748,-10.847765632375047,-8.7913316095386,-3.703545600876023,31.79800000000978
311855.6787,-17.469000911292902,-11.809521226788965,-9.318290638792352,-4.63491164445819,31.79899999999907
311855.6797,-17.760029829819747,-12.5107602171485,-9.687899144265991,-5.384458181646345,31.79999999998836
311855.6807,-17.63242998662449,-12.890956847057609,-9.852741693395908,-5.889762516561234,31.801000000035856
311855.6817,-17.04815847253638,-12.907463954674869,-9.778386343279344,-6.105229242707581,31.802000000025146
311855.6827,-15.9933312899632,-12.53938567465642,-9.446625889983615,-6.005665616095228,31.803000000014435
311855.6837,-14.480087849114303,-11.789595944896956,-8.857218463272734,-5.5881162522665155,31.804000000003725
311855.6847,-12.546393591778179,-10.68472076530433,-8.0279756352691,-4.871812165347543,31.804999999993015
311855.6857,-10.253795904604083,-9.27309557838472,-6.993206573556017,-3.8962638427277514,31.805999999982305
311855.6867,-7.683334164323233,-7.620900483816275,-5.800685033787261,-2.7176984922530907,31.807000000029802
311855.6877,-4.92997059659404,-5.806846646857945,-4.507446692087928,-1.404191528505598,31.808000000019092
311855.6887,-2.0960389240112307,-3.9159206919646996,-3.174833808005717,-0.029957569294440267,31.809000000008382
311855.6897,0.7157096678779575,-2.032777276489363,-1.863271971142982,1.3306640753902037,31.80999999999767
311855.6907,3.4088564208087098,-0.2353955594329711,-0.6272833670556813,2.6089765160829894,31.81099999998696
311855.6917,5.899284013233736,1.4104192266679145,0.4887889855446368,3.7469271872204213,31.81200000003446
311855.6927,8.119871991550268,2.8551986671695824,1.4539479128012642,4.700910920348058,31.81300000002375
311855.6937,10.023555285468204,4.068285857086321,2.2523164026454316,5.4440651868140675,31.81400000001304
311855.6947,11.58454419594799,5.038440144145348,2.883378015935236,5.96690102706983,31.81500000000233
311855.6957,12.797682350069932,5.772577176301235,3.360696282952005,6.276278442022001,31.815999999991618
311855.6967,13.676096162293218,6.292834028725173,3.709277750940437,6.392896736849317,31.816999999980908
311855.6977,14.247448141400254,6.632312976799172,3.961877438692747,6.347612663448186,31.818000000028405
311855.6987,14.549231683505223,6.829984407220972,4.154648656583398,6.177008399047127,31.819000000017695
311855.6997,14.623624947006324,6.925306981027378,4.3226013704959385,5.918696969640243,31.820000000006985
311855.7007,14.51244870945252,6.953143956594354,4.495348519003506,5.606868576824954,31.820999999996275
311855.7017,14.252745678878114,6.9395166702926865,4.693586589453664,5.268546246242306,31.821999999985565
311855.7027,13.873419890194217,6.898643503705279,4.926678751381166,4.920937141469919,31.823000000033062
311855.7037,13.393252919088113,6.831574614655742,5.191593791772584,4.570145264311548,31.82400000002235
311855.7047,12.820461246136352,6.726563153670811,5.473313498307619,4.211364358889665,31.82500000001164
311855.7057,12.153791702826787,6.5611296435479805,5.7466690090374195,3.8305114900011334,31.82600000000093
311855.7067,11.3849864422294,6.305596145737202,5.979418144721968,3.4071079207580586,31.82699999999022
311855.7077,10.502301960551417,5.927708895654418,6.136245675146529,2.918080055094315,31.82800000003772
311855.7087,9.494653121612481,5.397848239819787,6.183269863787442,2.3420528384955883,31.82900000002701
311855.7097,8.355884332633691,4.694255207747044,6.092581439609957,1.663651313100382,31.830000000016298
311855.7107,7.088652949095292,3.8076922136868836,5.84633126608632,0.8773188670666144,31.831000000005588
311855.7117,5.707446457183311,2.745002835266399,5.439921682987354,-0.009795941238037916,31.831999999994878
311855.7127,4.24034146414658,1.5311381125640429,4.88394027342396,-0.9762423294495546,31.832999999984168
311855.7137,2.729240488651923,0.20936462120799837,4.204595687168927,-1.9861908458780475,31.834000000031665
311855.7147,1.228479282898982,-1.1604515931986228,3.4425614632160637,-2.990955629701818,31.835000000020955
311855.7157,-0.19813269486372628,-2.5053987439424668,2.650291296649733,-3.9320305808981217,31.836000000010245
311855.7167,-1.4816100287147544,-3.7446372263568097,1.88802245036067,-4.745397788170116,31.836999999999534
311855.7177,-2.553053290474964,-4.79564523960008,1.2188178963950647,-5.366731446744159,31.837999999988824
311855.7187,-3.3493911713478823,-5.581032917007762,0.7030989566939306,-5.737020783767198,31.83900000003632
311855.7197,-3.8190555834766746,-6.035295945655516,0.39317848403088984,-5.808081458344857,31.84000000002561
311855.7207,-3.9270328995996104,-6.110870133069945,0.3283138993045269,-5.547422342400336,31.8410000000149
311855.7217,-3.658780017789029,-5.78290074808055,0.5307583520127173,-4.941984307897456,31.84200000000419
311855.7227,-3.022590689098795,-5.0522502593696075,1.003200477793143,-4.000365293047268,31.84299999999348
311855.7237,-2.050136535303858,-3.94642520737935,1.7278568579177094,-2.753282399965634,31.84399999998277
311855.7247,-0.7950751875724842,-2.5182925730676935,2.6673283196090556,-1.252184122108165,31.845000000030268
311855.7257,0.6702011774039246,-0.8426600886936573,3.7671662909315065,0.43390157047168953,31.846000000019558
311855.7267,2.2594274806868935,0.9890061000339406,4.959934418103371,2.2230313248888587,31.847000000008848
311855.7277,3.878533882893859,2.8752783384593115,6.170409139080853,4.026127017531544,31.847999999998137
311855.7287,5.432399522465984,4.712297374440002,7.321454630594322,5.75337008824947,31.848999999987427
311855.7297,6.831702375466185,6.401474413242319,8.340043077282385,7.320646755149875,31.850000000034925
311855.7307,7.999262764363322,7.856687105323795,9.16287690752868,8.655474310391234,31.851000000024214
311855.7317,8.875322172556052,9.01033768904028,9.741107013432178,9.701885699192506,31.852000000013504
311855.7327,9.421296289290783,9.817747402641515,10.043726533275203,10.423846203403183,31.853000000002794
311855.7337,9.621682464484605,10.259516584781384,10.059345364656757,10.806913145428608,31.853999999992084
311855.7347,9.483973559961449,10.341669796648455,9.796204151344964,10.858014038589815,31.854999999981374
311855.7357,9.036616122079295,10.093611692623545,9.280453282885718,10.603394819411761,31.85600000002887
311855.7367,8.325233052136722,9.56412253608808,8.55288640822032,10.084960847803673,31.85700000001816
311855.7377,7.407492023399195,8.815802824421795,7.66446330263302,9.355382877896377,31.85800000000745
311855.7387,6.34712531569834,7.918517266962695,6.6710696458027305,8.472453871181587,31.85899999999674
311855.7397,5.2076825586980275,6.94247601265945,5.628030524039557,7.493249468886767,31.85999999998603
311855.7407,4.046617820563888,5.951617338223757,4.584913622315311,6.46865877217318,31.861000000033528
311855.7417,2.9102746636137993,4.99791868258038,3.5811253305387813,5.438811508129088,31.862000000022817
311855.7427,1.83024089867012,4.117165774825533,2.642721586499068,4.429836625047371,31.863000000012107
311855.7437,0.8214077106813803,3.3265622244498725,1.7807331595533955,3.4522546509718843,31.864000000001397
311855.7447,-0.11810113424431273,2.6243787140042016,0.9911541317011191,2.5011445612742977,31.864999999990687
311855.7457,-1.0051488108688402,1.9916396648259371,0.2565772342124258,1.558051008867422,31.866000000038184
311855.7467,-1.868154731712932,1.3956454384631873,-0.45070350586991537,0.5944264303382326,31.867000000027474
311855.7477,-2.7423769993174116,0.7949490979056192,-1.1644478074690894,-0.42374873284735326,31.868000000016764
311855.7487,-3.6643981461189585,0.14526572985667324,-1.9195204350295767,-1.530641084928221,31.869000000006054
311855.7497,-4.6663832303755415,-0.5942971578506163,-2.746747984030014,-2.7550787192412405,31.869999999995343
311855.7507,-5.770702875746722,-1.4553291071280734,-3.6681112606836863,-4.115467196223933,31.870999999984633
311855.7517,-6.985479704478621,-2.45513376237375,-4.6927724295054745,-5.615632762649075,31.87200000003213
311855.7527,-8.301528151028062,-3.593188721476663,-5.8143563397590965,-7.242031129556903,31.87300000002142
311855.7537,-9.691023426030224,-4.849420786866346,-7.0097845658615086,-8.962630188332326,31.87400000001071
311855.7547,-11.108068404151027,-6.184490463961867,-8.239810398558024,-10.727615051026453,31.875
311855.7557,-12.491143549460116,-7.542082098888622,-9.451237834367204,-12.471889125983393,31.87599999998929
311855.7567,-13.767242364692393,-8.852999093527975,-10.580643493811095,-14.119172352666872,31.877000000036787
311855.7577,-14.85733082345203,-10.040686288063185,-11.559273206038572,-15.587343769673295,31.878000000026077
311855.7587,-15.682639563932575,-11.027661017273175,-12.318668938841867,-16.79455501464589,31.879000000015367
311855.7597,-16.171214704485223,-11.742244084315002,-12.79650802890052,-17.66556566526284,31.880000000004657
311855.7607,-16.264124883568897,-12.124950608931167,-12.942112391598029,-18.137727710539686,31.880999999993946
311855.7617,-15.920751162687752,-12.13393132162715,-12.721112911059548,-18.16607706575292,31.881999999983236
311855.7627,-15.12266989035237,-11.748944318613768,-12.118830891101856,-17.72707187854398,31.883000000030734
311855.7637,-13.875768423918386,-10.973476803639382,-11.142056922673031,-16.820642479361975,31.884000000020023
311855.7647,-12.210397237501518,-9.834812334131556,-9.819056418129776,-15.470374137648971,31.885000000009313
311855.7657,-10.179543691772938,-8.38203447039846,-8.197796091210394,-13.721816269403671,31.885999999998603
311855.7667,-7.855195198726073,-6.682153568763773,-6.3425510054028065,-11.639083872598734,31.886999999987893
311855.7677,-5.32322526316522,-4.814720832001301,-4.329201647290543,-9.300072310164273,31.88800000003539
311855.7687,-2.6772691694905095,-2.8654355375003635,-2.2396504984923387,-6.790730362820902,31.88900000002468
311855.7697,-0.012144333183637217,-0.9193439997466814,-0.15586636993887729,-4.198917084523414,31.89000000001397
311855.7707,2.5825946387074974,0.9457365112072291,1.8459050891951532,-1.6083979791233551,31.89100000000326
311855.7717,5.028397360816086,2.664962127841442,3.700247495719507,0.9064871300186159,31.89199999999255
311855.7727,7.26226180177338,4.190853026671061,5.356549530207833,3.2850258035240913,31.89299999998184
311855.7737,9.239708670830511,5.495942991656587,6.781515899879942,5.482862141625085,31.894000000029337
311855.7747,10.935969065863793,6.573471737352048,7.960022382658407,7.47305921920798,31.895000000018626
311855.7757,12.345342746757368,7.436094786246459,8.89428434974937,9.245465296007891,31.896000000007916
311855.7767,13.478860591675405,8.112777726446428,9.601470062619097,10.804519531500251,31.896999999997206
311855.7777,14.36054569107906,8.644216057876601,10.110037656790414,12.165782619370964,31.897999999986496
311855.7787,15.022697589783812,9.077261631112535,10.455193809681424,13.351597392341159,31.899000000033993
311855.7797,15.500710954246605,9.45892839758154,10.673951228023213,14.386362556266247,31.900000000023283
311855.7807,15.827975278220924,9.830585082364362,10.800293809350121,15.291931947859794,31.901000000012573
311855.7817,16.031383087745766,10.222917319961333,10.86093982058632,16.08362956538866,31.902000000001863
311855.7827,16.127902775310936,10.652159512145982,10.872126808563873,16.76729965477819,31.902999999991152
311855.7837,16.12255611309047,11.117965538538611,10.837734031536511,17.337698701875862,31.90400000003865
311855.7847,16.007991470433183,11.603120613677829,10.748919822197841,17.778393703161875,31.90500000002794
311855.7857,15.765676794738534,12.075110651717008,10.585296258602504,18.06317290572934,31.90600000001723
311855.7867,15.36856822364554,12.489378916256339,10.317507218130638,18.158817171390762,31.90700000000652
311855.7877,14.784957557005642,12.793930956173817,9.910933785142396,18.028938015434125,31.90799999999581
311855.7887,13.983079911470547,12.934814511710956,9.330137093368501,17.638476362698828,31.9089999999851
311855.7897,12.935983799807294,12.861914428647092,8.543574204275911,16.958385298787025,31.910000000032596
311855.7907,11.626137431560235,12.534472112158157,7.528094826186268,15.969997603151658,31.911000000021886
311855.7917,10.049269984357537,11.925767586702973,6.272748207263553,14.6686068589117,31.912000000011176
311855.7927,8.217022393668245,11.026486855964743,4.781498144468107,13.065866647362824,31.913000000000466
311855.7937,6.158101242594433,9.8464294775387,3.0745528388439145,11.19072822132562,31.913999999989755
311855.7947,3.9177796903357773,8.414377872903295,1.1881544240071584,9.08878159029207,31.915000000037253
311855.7957,1.5557560269108803,6.776134276648924,-0.8271733628296659,6.8200237752377735,31.916000000026543
311855.7967,-0.8574532773026501,4.990915025816946,-2.9097669999991016,4.455235311477869,31.917000000015832
311855.7977,-3.2452598813060947,3.126456796436497,-4.991063275510521,2.071286241281559,31.918000000005122
311855.7987,-5.530445783239142,1.2533189768194024,-7.000536449976535,-0.2541981239617361,31.918999999994412
311855.7997,-7.640784420522932,-0.5610523098159615,-8.870861090451829,-2.44831438294952,31.919999999983702
311855.8007,-9.514301327352443,-2.2579081142515247,-10.542805780868635,-4.447985657597735,31.9210000000312
311855.8017,-11.103666304503015,-3.791872161190014,-11.969388670610144,-6.204210657723799,31.92200000002049
311855.8027,-12.37929101888814,-5.134241386279777,-13.118898214924526,-7.68505443225895,31.92300000000978
311855.8037,-13.330830614206103,-6.274581647194757,-13.976494347350954,-8.877098194991285,31.92399999999907
311855.8047,-13.96694305408364,-7.220458875551944,-14.544245640836092,-9.785214000238845,31.92499999998836
311855.8057,-14.313330262919427,-7.995332703512007,-14.839612865346615,-10.430692167499332,31.926000000035856
311855.8067,-14.409253864437233,-8.634824519501803,-14.892543380084964,-10.847909341035724,31.927000000025146
311855.8077,-14.302868750614158,-9.181736636789632,-14.74147870864076,-11.079867229102206,31.928000000014435
311855.8087,-14.045834919200228,-9.680327398518,-14.42868570459843,-11.173042426498082,31.929000000003725
311855.8097,-13.687740314459072,-10.170425758806648,-13.995389119634005,-11.172055401201476,31.929999999993015
311855.8107,-13.270887509302721,-10.68199016810329,-13.477203331642936,-11.114684995335136,31.930999999982305
311855.8117,-12.825962814730554,-11.23067807265202,-12.900331351083421,-11.027721744041447,31.932000000029802
311855.8127,-12.369020971321788,-11.814897499558759,-12.278922771261957,-10.924072051272605,31.933000000019092
311855.8137,-11.900090178973635,-12.414670061336878,-11.613866469374903,-10.801403585368831,31.934000000008382
311855.8147,-11.403543302255398,-12.992458958896975,-10.89314992200705,-10.642471926085582,31.93499999999767
311855.8157,-10.850207118473763,-13.495923204426138,-10.093759103722183,-10.417104072338203,31.93599999998696
311855.8167,-10.201009434309666,-13.862369019616391,-9.184936648677759,-10.085651861604928,31.93700000003446
311855.8177,-9.411810618368383,-14.024499746041633,-8.13247673041577,-9.603583452735183,31.93800000002375
311855.8187,-8.438946622883682,-13.91693324499794,-6.9036267907742435,-8.926767882635122,31.93900000001304
311855.8197,-7.244936676545145,-13.482873713272422,-5.4720996766539125,-8.01693735503656,31.94000000000233
311855.8207,-5.803787883162261,-12.680301311646394,-3.822681715040017,-6.846791246187989,31.940999999991618
311855.8217,-4.105363177613164,-11.48708056311336,-1.9549548261071585,-5.404236895136798,31.941999999980908
311855.8227,-2.158365326496116,-9.90448379149644,0.11426895808950124,-3.6953421458357423,31.943000000028405
311855.8237,0.008380294751013692,-7.9587700078769075,2.3500818194681132,-1.7456956511147796,31.944000000017695
311855.8247,2.346500049165506,-5.700638940438445,4.700315616621967,0.3999785307447471,31.945000000006985
311855.8257,4.7904822729569085,-3.2025772441812905,7.0980476215128645,2.6799400450404307,31.945999999996275
311855.8267,7.261726364807869,-0.5543104425109603,9.465584135171893,5.019108613737254,31.946999999985565
311855.8277,9.673876257163766,2.14324899055215,11.71958540004814,7.333973708015829,31.948000000033062
311855.8287,11.938959975002776,4.785026767008263,13.776882471894101,9.53829719546093,31.94900000002235
311855.8297,13.973778808740732,7.269164346152575,15.5604664660437,11.549094660271267,31.95000000001164
311855.8307,15.70596470619471,9.50409668272794,17.005109822329278,13.292356601735401,31.95100000000093
311855.8317,17.079155278594122,11.414708159000027,18.06211011506872,14.707997990505813,31.95199999999022
311855.8327,18.056819364406458,12.947033621961934,18.70272662444591,15.75360094301754,31.95300000003772
311855.8337,18.624394319030415,14.07111040034457,18.92000078326116,16.406633020352206,31.95400000002701
311855.8347,18.78955666391603,14.781762667792636,18.728802095931144,16.664971280228936,31.955000000016298
311855.8357,18.58062485682578,15.097294539890393,18.164106678599268,16.545725206334218,31.956000000005588
311855.8367,18.043269531294833,15.056263977332694,17.27768019628158,16.082514013062486,31.956999999994878
311855.8377,17.2358654496959,14.712687034667278,16.133484767218025,15.321499663697388,31.957999999984168
311855.8387,16.223945209306425,14.13016419386881,14.802246101851102,14.316591986281441,31.959000000031665
311855.8397,15.074295272441052,13.375513900378138,13.355691520605337,13.12431532566861,31.960000000020955
311855.8407,13.849262441518105,12.512534236624193,11.860994465575546,11.798850203488962,31.961000000010245
311855.8417,12.601810949282891,11.596488842345371,10.375934428583903,10.387736304844058,31.961999999999534
311855.8427,11.371789808304202,10.669830581572576,8.945205645105851,8.928647682297765,31.962999999988824
311855.8437,10.183745037777957,9.759544562341642,7.5981909922847395,7.447535058943612,31.96400000003632
311855.8447,9.046454285516402,8.876324221734256,6.348370831768882,5.958285235310474,31.96500000002561
311855.8457,7.954187738086799,8.015607043821609,5.194374477253186,4.463888424974955,31.9660000000149
311855.8467,6.889526203154311,7.1603086364028385,4.122520419226713,2.9589468332299127,31.96700000000419
311855.8477,5.8274119019476345,6.284923888410346,3.1105461820948785,1.4332177468791545,31.96799999999348
311855.8487,4.739985106089848,5.36052845905303,2.1321138583659893,-0.12422412683587727,31.96899999998277
311855.8497,3.6016823076242837,4.360126137838501,1.1616040831054981,-1.7206864311363401,31.970000000030268
311855.8507,2.3940467013832367,3.263756131776886,0.178686509693156,-3.355919363256052,31.971000000019558
311855.8517,1.1097317860716382,2.062801981246887,-0.8278190120819738,-5.019000646160209,31.972000000008848
311855.8527,-0.2447391507238626,0.7630276383703843,-1.857202086649734,-6.686427912422292,31.972999999998137
311855.8537,-1.6477691204433438,-0.614002216102452,-2.895538803000543,-8.321679743744548,31.973999999987427
311855.8547,-3.0631933751437828,-2.0312944598051215,-3.9159383875824765,-9.876357458536859,31.975000000034925
311855.8557,-4.442476419046193,-3.4385852036442115,-4.8803523203249535,-11.292857583673378,31.976000000024214
311855.8567,-5.728409430553453,-4.776091927476415,-5.742779947355967,-12.508365865810575,31.977000000013504
311855.8577,-6.85996371849052,-5.979504069761729,-6.453562022818787,-13.45982350482383,31.978000000002794
311855.8587,-7.777835478269894,-6.9857260621422785,-6.964341224233152,-14.089409050559176,31.978999999992084
311855.8597,-8.430142052998791,-7.738804865075121,-7.2331975493231875,-14.350015925720017,31.979999999981374
311855.8607,-8.777707647343568,-8.195448446267465,-7.229443612094849,-14.210192391781272,31.98100000002887
311855.8617,-8.798409324277046,-8.329575048799725,-6.937592486105393,-13.658049617147697,31.98200000001816
311855.8627,-8.490139071390914,-8.135422393493556,-6.360086230784332,-12.703730910098788,31.98300000000745
311855.8637,-7.872066585773548,-7.62888249811862,-5.518489250703954,-11.380162962109031,31.98399999999674
311855.8647,-6.984047721068445,-6.84689824262492,-4.452995900336395,-9.741965969145543,31.98499999998603
311855.8657,-5.884199708955465,-5.844945461316796,-3.2202621420547834,-7.862568840878993,31.986000000033528
311855.8667,-4.644839189193128,-4.692810767059476,-1.8897310207706564,-5.829742126280785,31.987000000022817
311855.8677,-3.3471357495114527,-3.469042162359052,-0.5387657277568841,-3.7399087901667145,31.988000000012107
311855.8687,-2.074956857444142,-2.25458031524129,0.7529818413344089,-1.6917073906280093,31.989000000001397
311855.8697,-0.9084577944519887,-1.1261602403972,1.9094658733090089,0.2206474586637397,31.989999999990687
311855.8707,0.08200505396036428,-0.15009789042658717,2.863878233902488,1.9136429422299652,31.991000000038184
311855.8717,0.8410898052601785,0.6229587079153064,3.5635151848151976,3.3198529523475653,31.992000000027474
311855.8727,1.3323487657871114,1.161825323586582,3.9734500564552238,4.391981347369091,31.993000000016764
311855.8737,1.5404345077749828,1.4567746027880017,4.078695752371461,5.105238829310216,31.994000000006054
311855.8747,1.4714535711634922,1.5195491833709398,3.8846834500670315,5.457882157453198,31.994999999995343
311855.8757,1.1514642544088693,1.3814074025090552,3.41604191424696,5.469912578923043,31.995999999984633
311855.8767,0.6232894647428303,1.0894025083083887,2.713820113280981,5.180097133296471,31.99700000003213
311855.8777,-0.05802753535130661,0.7012648797946255,1.8314390346880538,4.641625982967585,31.99800000002142
311855.8787,-0.8306725646308184,0.27938917728693546,0.8297729754664714,3.9168369963949057,31.99900000001071
311855.8797,-1.6318838098607262,-0.11548827542158752,-0.22816474219752345,3.0715144518027224,32.0
311855.8807,-2.4035903700962815,-0.43031028055728626,-1.2824286624810453,2.169295097993793,32.00099999998929
311855.8817,-3.0973347040656614,-0.6248393672919237,-2.280758727454542,1.2666898944511125,32.00200000003679
311855.8827,-3.6780263595122764,-0.6754292274250038,-3.182194049395454,0.409156537595345,32.00300000002608
311855.8837,-4.1261965475808955,-0.5770746658290844,-3.959375661272162,-0.3714559770779328,32.00400000001537
311855.8847,-4.438576480930759,-0.3435581908928089,-4.599366840758777,-1.057912445863074,32.00500000000466
311855.8857,-4.626991625955324,-0.005698839638994705,-5.102970566696742,-1.6470256010473738,32.005999999993946
311855.8867,-4.715732329919599,0.39210506849743804,-5.482674699567276,-2.1476555526175054,32.006999999983236
311855.8877,-4.737712030916727,0.7966810445431513,-5.759491606257193,-2.5775513149532827,32.008000000030734
311855.8887,-4.729842593089811,1.151746540939175,-5.959066738770889,-2.9594217346115568,32.00900000002002
311855.8897,-4.728130632197398,1.4038610848576216,-6.10749954814547,-3.316692988958588,32.01000000000931
311855.8907,-4.763021791912704,1.5080698324064314,-6.227343382836785,-3.6694324278277817,32.0109999999986
311855.8917,-4.855489669153965,1.4326751709661558,-6.334226543024412,-4.030892015511956,32.01199999998789
311855.8927,-5.014285623971841,1.1626616793813713,-6.434467043595846,-4.405052005956031,32.01300000003539
311855.8937,-5.2346431729283305,0.7014350592508736,-6.52394596846887,-4.785434318440973,32.01400000002468
311855.8947,-5.4985783486073725,0.07070418176527975,-6.5883694488219255,-5.155316745964311,32.01500000001397
311855.8957,-5.776760563012307,-0.6914794853739277,-6.604900847915238,-5.489327671185185,32.01600000000326
311855.8967,-6.031763847510507,-1.534327350993714,-6.544997635471921,-5.756251720390546,32.01699999999255
311855.8977,-6.22236237886074,-2.3992026434439415,-6.378156530571158,-5.922744864296411,32.01799999998184
311855.8987,-6.308421648112838,-3.2253035661253637,-6.076169058932193,-5.957556268149502,32.01900000002934
311855.8997,-6.255868928167905,-3.955572075508484,-5.617428098930217,-5.835794052174715,32.02000000001863
311855.9007,-6.041210883882706,-4.542236702486708,-4.99081075241249,-5.542759324132857,32.021000000007916
311855.9017,-5.655104170323599,-4.951433503495616,-4.19869587210241,-5.076908961455458,32.021999999997206
311855.9027,-5.104573281887818,-5.166440088452634,-3.258752931737506,-4.451589348602997,32.022999999986496
311855.9037,-4.413600337838418,-5.189194829040894,-2.2042552501165926,-3.6953027466894968,32.02400000003399
311855.9047,-3.6219713014633625,-5.039943329562536,-1.0828136829889072,-2.8504135108735116,32.02500000002328
311855.9057,-2.782436727015077,-4.755040311192109,0.04641713693315925,-1.9703586317714707,32.02600000001257
311855.9067,-1.9564154398133498,-4.383118866814018,1.1168543821599808,-1.1155804531562883,32.02700000000186
311855.9077,-1.2086197125498308,-3.9800024182047506,2.0595828258436577,-0.34853357716518923,32.02799999999115
311855.9087,-0.6010954992946929,-3.602861452899811,2.808984371245154,0.2717806304604662,32.02900000003865
311855.9097,-0.1872394694497523,-3.3041946106316535,3.3083916655783714,0.695240280638856,32.03000000002794
311855.9107,-0.0063687994797808805,-3.126234131598593,3.515241269940642,0.885469428501791,32.03100000001723
311855.9117,-0.07937802132896675,-3.0963368823054043,3.4052372011821785,0.8236661641823144,32.03200000000652
311855.9127,-0.4059232378370973,-3.223827789330381,2.9751182888195618,0.5110028314494104,32.03299999999581
311855.9137,-0.9634363775460081,-3.498621680226066,2.2437451558796204,-0.030663057978556067,32.0339999999851
311855.9147,-1.708103865076095,-3.8917760006071545,1.2513733029460106,-0.759873738608173,32.035000000032596
311855.9157,-2.5777611786346615,-4.357937650920314,0.05714352295330505,-1.618391513683066,32.036000000021886
311855.9167,-3.496474804614033,-4.839460853871424,-1.2650159478311453,-2.5355311513144287,32.037000000011176
311855.9177,-4.380423423404288,-5.271807865069818,-2.6317350867065175,-3.4336378886496846,32.038000000000466
311855.9187,-5.144566209758233,-5.589716757795951,-3.9563401289115077,-4.234235129574814,32.038999999989755
311855.9197,-5.709509929058147,-5.733543062126947,-5.155255706035402,-4.864300831898555,32.04000000003725
311855.9207,-6.007965486335998,-5.655162415835523,-6.1541189856247795,-5.2621172551425435,32.04100000002654
311855.9217,-5.990220841474241,-5.322861605647056,-6.89308127162199,-5.382176679940355,32.04200000001583
311855.9227,-5.62814731203572,-4.724741576186953,-7.330848779761621,-5.198712356887443,32.04300000000512
311855.9237,-4.917391616232972,-3.870298791143686,-7.447131935276443,-4.707551024732774,32.04399999999441
311855.9247,-3.877573579110662,-2.790026798446073,-7.24332026502015,-3.926138675034827,32.0449999999837
311855.9257,-2.550493165432479,-1.533070826026912,-6.741363616689989,-2.891759932476432,32.0460000000312
311855.9267,-0.9965328257932787,-0.16315604981009865,-5.981004384609164,-1.6581372990288397,32.04700000002049
311855.9277,0.7103953439742067,1.2468235147386788,-5.015654030339173,-0.29074371481287664,32.04800000000978
311855.9287,2.4888789348958675,2.621039965121265,-3.9073263738054025,1.138723594848408,32.04899999999907
311855.9297,4.2564496046568365,3.887196436830716,-2.721118716689939,2.5581889972659195,32.04999999998836
311855.9307,5.935852344910092,4.982607615923114,-1.5197626450702266,3.90082410776591,32.051000000035856
311855.9317,7.460577120681443,5.859320688427614,-0.35874680994982,5.109944071254655,32.052000000025146
311855.9327,8.77917124459494,6.487796641096188,0.7175535339122904,6.1427445421368985,32.053000000014435
311855.9337,9.857976705676862,6.858813362609227,1.678413927145851,6.972569076719496,32.054000000003725
311855.9347,10.682094952878659,6.983426115468512,2.5077772163438783,7.58954481297299,32.054999999993015
311855.9357,11.254556719142718,6.891010613573025,3.20371600770104,7.999586369849387,32.055999999982305
311855.9367,11.593849212539089,6.625600611963087,3.7764634153061656,8.221927938231246,32.0570000000298
311855.9377,11.730110387161487,6.240897370555033,4.245275523914107,8.285485906759952,32.05800000001909
311855.9387,11.700424822521816,5.7944564589015215,4.634501796183339,8.224465207267999,32.05900000000838
311855.9397,11.543736038003612,5.341635648738703,4.969313257641614,8.073691157204761,32.05999999999767
311855.9407,11.295918318912323,4.929908491238113,5.271565664876352,7.864168386821951,32.06099999998696
311855.9417,10.985524939281706,4.594109602090681,5.556253583633758,7.619337752887255,32.06200000003446
311855.9427,10.630651991729893,4.353083487990818,5.828943783472866,7.352424225151507,32.06300000002375
311855.9437,10.237235878586022,4.20806818218831,6.0844695842801295,7.065151507759115,32.06400000001304
311855.9447,9.798950129567507,4.14297178571894,6.307032637288766,6.747954417498004,32.06500000000233
311855.9457,9.298698872750512,4.126511197065584,6.471708758178419,6.381662284883855,32.06599999999162
311855.9467,8.711536810417352,4.115996358081866,6.547204964506653,5.940471653029852,32.06699999998091
311855.9477,8.00869563007416,4.06237848639567,6.499580862633893,5.395889828900311,32.068000000028405
311855.9487,7.162279343678593,3.916053200518195,6.29654249433375,4.7212260951613505,32.069000000017695
311855.9497,6.15011780104819,3.6328317461928132,5.911851321339814,3.8961451676048804,32.070000000006985
311855.9507,4.960245901826047,3.1794734197149164,5.329371891017475,2.9107841356159345,32.070999999996275
311855.9517,3.5945080804978664,2.538211861372041,4.546310979086214,1.7689711763562745,32.071999999985565
311855.9527,2.07087039834338,1.7098034384361103,3.575275922056135,0.4901683273158617,32.07300000003306
311855.9537,0.4241479740139062,0.7147682580207394,2.444893157813281,-0.8901165759715494,32.07400000002235
311855.9547,-1.2949887678556105,-0.40733033419811326,1.1988685748370085,-2.3215540155188865,32.07500000001164
311855.9557,-3.022694755126502,-1.6005306327431008,-0.1064747282902763,-3.7417963191599375,32.07600000000093
311855.9567,-4.686114531716541,-2.796816071708963,-1.4059934866125654,-5.080645841583222,32.07699999999022
311855.9577,-6.208676246387809,-3.921764036037344,-2.63053307035559,-6.2652342760123725,32.07800000003772
311855.9587,-7.516044266971784,-4.900976587392479,-3.712320154834402,-7.2257539440113,32.07900000002701
311855.9597,-8.54218712896755,-5.666689860624102,-4.590447471474069,-7.901219985939316,32.0800000000163
311855.9607,-9.234997647479604,-6.163937190133162,-5.215942427454615,-8.244730480390267,32.08100000000559
311855.9617,-9.56093662515436,-6.355679734570136,-5.55594429573075,-8.227731101405107,32.08199999999488
311855.9627,-9.50825751560709,-6.226413854504788,-5.59659394349126,-7.842878384181474,32.08299999998417
311855.9637,-9.088498458328111,-5.7839075903055415,-5.344358127744938,-7.105222721595495,32.084000000031665
311855.9647,-8.336087855297814,-5.058895459101258,-4.8256558496670205,-6.051586665362621,32.085000000020955
311855.9657,-7.306084653793996,-4.102754299906788,-4.0848130147031245,-4.738181055373279,32.086000000010245
311855.9667,-6.07024776346899,-2.9833742627342694,-3.1805282519237785,-3.236664790720851,32.086999999999534
311855.9677,-4.711783750091738,-1.7796096734815408,-2.181171950894107,-1.628997855230853,32.087999999988824
311855.9687,-3.3192431000599742,-0.5748278398499455,-1.1593488155069587,-0.0015475697412674215,32.08900000003632
311855.9697,-1.9801112088433928,0.5498430358731022,-0.18622097744867552,1.561025731414922,32.09000000002561
311855.9707,-0.7746635223049939,1.5219408226679982,0.6738925115017486,2.9815616959135123,32.0910000000149
311855.9717,0.22937717950692363,2.283181013523339,1.3681549450195327,4.19536597225175,32.09200000000419
311855.9727,0.9809262833795566,2.79355525921074,1.8586826993543863,5.153928174403778,32.09299999999348
311855.9737,1.4480366624329781,3.0336597448830935,2.1245566718970537,5.827095223628716,32.09399999998277
311855.9747,1.6186396229288937,3.0050706686690054,2.1622276090847574,6.2035556550066415,32.09500000003027
311855.9757,1.4995272135041222,2.7287752474656957,1.984325729663196,6.289655285829114,32.09600000001956
311855.9767,1.113745726582494,2.2418558259361183,1.6170400556199807,6.106725882107341,32.09700000000885
311855.9777,0.4967217139334624,1.5927932388715087,1.096370416841754,5.687250271833621,32.09799999999814
311855.9787,-0.3084401739614841,0.8358870584177673,0.463661686429159,5.070295812329391,32.09899999998743
311855.9797,-1.2559752923599488,0.02537189671465631,-0.23910501809955742,4.29671260026477,32.100000000034925
311855.9807,-2.302260035587152,-0.7901673904332889,-0.9737720254820924,3.404607046176756,32.101000000024214
311855.9817,-3.409896030563587,-1.5725151589494404,-1.709755553619561,2.4255641259879623,32.102000000013504
311855.9827,-4.550661509933533,-2.297205432351582,-2.4267049290838716,1.3820065852690313,32.103000000002794
311855.9837,-5.7070396932294125,-2.9552295933111443,-3.1158051125101123,0.2859551632841886,32.103999999992084
311855.9847,-6.872189119261203,-3.552910640831136,-3.779600276346764,-0.8606970178882115,32.10499999998137
311855.9857,-8.04838963851092,-4.109972444163604,-4.430371814067439,-2.064445249549945,32.10600000002887
311855.9867,-9.244163142876653,-4.656018743267226,-5.087256647521106,-3.337176308698044,32.10700000001816
311855.9877,-10.47041332751479,-5.225801643807095,-5.772425749274519,-4.692257974414527,32.10800000000745
311855.9887,-11.736039046452717,-5.853786568065814,-6.50674489466367,-6.140161657836688,32.10899999999674
311855.9897,-13.043539767827728,-6.56859728218245,-7.305399405020454,-7.684122207393247,32.10999999998603
311855.9907,-14.385142449387754,-7.387942911532384,-8.173975792992481,-9.316345133359539,32.11100000003353
311855.9917,-15.739935291597833,-8.314586700254434,-9.105454311368458,-11.0152254232341,32.11200000002282
311855.9927,-17.07239917093279,-9.333817539493275,-10.078480925459735,-12.743947928822744,32.11300000001211
311855.9937,-18.332591074934346,-10.41273943955744,-11.057163290774746,-14.450705933158432,32.1140000000014
311855.9947,-19.45806874003434,-11.501515285118751,-11.992484888868372,-16.070614828840426,32.11499999999069
311855.9957,-20.377468065629387,-12.53650682249794,-12.825269215546903,-17.529227431761573,32.116000000038184
311855.9967,-21.01547225169348,-13.445061919838489,-13.490467755730453,-18.74739306406659,32.117000000027474
311855.9977,-21.29876115354528,-14.151531494161638,-13.92240705796817,-19.64706045095562,32.118000000016764
311855.9987,-21.162416212443805,-14.583968798150384,-14.060525354023921,-20.157518903091287,32.119000000006054
311855.9997,-20.556192127714667,-14.680885953953641,-13.855068481637701,-20.221513940628196,32.11999999999534
311856.0007,-19.450058125021222,-14.39742464916021,-13.272204741505425,-19.800668650852526,32.12099999998463
311856.0017,-17.83846079521479,-13.710341906723306,-12.29806023955681,-18.879691678648058,32.12200000003213
311856.0027,-15.742863003819703,-12.621313914944546,-10.941266656769434,-17.46895254968549,32.12300000002142
311856.0037,-13.212260064873549,-11.158211504195428,-9.233743938421814,-15.60514584357102,32.12400000001071
311856.0047,-10.321551657252225,-9.374185693610393,-7.229598845843083,-13.349934373870605,32.125
311856.0057,-7.167839221038557,-7.3446031620402605,-5.0021916470771135,-10.786642060667651,32.12599999998929
311856.0067,-3.8649057545950276,-5.162070247961577,-2.6395911137228785,-8.01524247656356,32.12700000003679
