TimeStamp,ECR,FCR,ECU,FCU,time_index
311889.8797,-19.259244710973228,-29.527592332149055,-9.286486864677746,-16.810465607855736,66.0
311889.8807,-20.342025438092865,-30.31363620206247,-8.265670172322634,-20.065418752934693,66.00099999998929
311889.8817,-20.70927645025395,-30.296364158424986,-6.79184295786999,-22.44647692893366,66.00200000003679
311889.8827,-20.29904968951599,-29.414164162628587,-4.856133175972262,-23.814066524289284,66.00300000002608
311889.8837,-19.06848702695872,-27.623613195903644,-2.4595112256392104,-24.06123313809389,66.00400000001537
311889.8847,-16.996659848981835,-24.902723976393396,0.3855403921550845,-23.118853420330378,66.00500000000466
311889.8857,-14.087479448930198,-21.25441413770234,3.65299187799918,-20.96003893495949,66.00599999999395
311889.8867,-10.372473109303947,-16.709948974336307,7.301051144144839,-17.60346833496248,66.00699999998324
311889.8877,-5.913140289517659,-11.332015422650498,11.270038407862398,-13.115358308586593,66.00800000003073
311889.8887,-0.8025473510597767,-5.217020465298061,15.480679283823056,-7.609782547273704,66.00900000002002
311889.8897,4.8342024515568776,1.5038176196333992,19.83317177715982,-1.247077588839069,66.01000000000931
311889.8907,10.84096778437149,8.664994679445408,24.20737009351974,5.769861992778552,66.0109999999986
311889.8917,17.033318248497242,16.06920086408996,28.464374608605386,13.201499350612902,66.01199999998789
311889.8927,23.203210846362218,23.491975421543017,32.44972477179396,20.779755818395007,66.01300000003539
311889.8937,29.125632161826363,30.688598634405007,35.998266466704386,28.218121925707045,66.01400000002468
311889.8947,34.567081517517536,37.403099254577235,38.94061751669309,35.223446909562796,66.01500000001397
311889.8957,39.29559751294256,43.37906067640846,41.11099766085265,41.50892018094805,66.01600000000326
311889.8967,43.09186381221574,48.371721063011265,42.35603726729564,46.80762178471991,66.01699999999255
311889.8977,45.76078651068941,52.160700197623086,42.54404748590436,50.88591477898238,66.01799999998184
311889.8987,47.142830348640544,54.562566087431584,41.57413751005791,53.55589309773774,66.01900000002934
311889.8997,47.12434713946422,55.44239128436121,39.38451355007141,54.68609312227729,66.02000000001863
311889.9007,45.6461355356438,54.72345185829749,35.95929661690525,54.209730874596126,66.02100000000792
311889.9017,42.70953997523376,52.39429460492067,31.333255152040568,52.129839467594806,66.0219999999972
311889.9027,38.37952594344554,48.512537781879026,25.593961650089028,48.52084795984018,66.0229999999865
311889.9037,32.78435050283708,43.20496863884289,18.881042361373922,43.526352826227,66.024000000034
311889.9047,26.111668292322623,36.66374290198373,11.382384084080261,37.353072371763815,66.02500000002328
311889.9057,18.601156817701742,29.138758525936904,3.3273766204051665,30.261224995231924,66.02600000001257
311889.9067,10.533991346591893,20.926547074189195,-5.022513792554465,22.551815057158063,66.02700000000186
311889.9077,2.219728862507215,12.35627887760212,-13.385343889378694,14.551526080474558,66.02799999999115
311889.9087,-6.018646766934488,3.773691697182624,-21.471801371825325,6.596092704046375,66.02900000003865
311889.9097,-13.860626227301564,-4.476090878240085,-28.99903634496021,-0.9868639144720021,66.03000000002794
311889.9107,-21.004055164512426,-12.065798789802889,-35.704367739759455,-7.894507288496834,66.03100000001723
311889.9117,-27.180021519997,-18.702251326575073,-41.35801613716935,-13.863960383938212,66.03200000000652
311889.9127,-32.16584487820393,-24.140597557822048,-45.774077685576685,-18.685078586118628,66.03299999999581
311889.9137,-35.795396029797,-28.1957113902372,-48.819075361556564,-22.210076433942817,66.0339999999851
311889.9147,-37.96616302457887,-30.75009367885604,-50.41759364647679,-24.359475782002445,66.0350000000326
311889.9157,-38.64270748640623,-31.75788002795269,-50.55470677937276,-25.124089907647566,66.03600000002189
311889.9167,-37.85640329634789,-31.244822742562658,-49.27513237275899,-24.563020773022853,66.03700000001118
311889.9177,-35.70159893800245,-29.304387073711087,-46.67926338110746,-22.797905217604594,66.03800000000047
311889.9187,-32.32857524805502,-26.090354030623597,-42.916434586897914,-20.003880989940388,66.03899999998976
311889.9197,-27.933864539342753,-21.806535422373013,-38.175949214730316,-16.397938195153507,66.04000000003725
311889.9207,-22.748641173693883,-16.694366110997418,-32.676514559646925,-12.225462576668072,66.04100000002654
311889.9217,-17.025978496132876,-11.019233493621797,-26.654804487815994,-7.745855439965898,66.04200000001583
311889.9227,-11.027788836233666,-5.056430638905406,-20.353878144752624,-3.218127697728879,66.04300000000512
311889.9237,-5.012223823100607,0.9224209931053956,-14.01214010834569,1.112685298044727,66.04399999999441
311889.9247,0.7777814783123793,6.661733299977018,-7.85343427258522,5.027548403747052,66.0449999999837
311889.9257,6.12427379259105,11.932499052238384,-2.078732711463883,8.343302452746409,66.0460000000312
311889.9267,10.841974577998096,16.54060527470623,3.140274655036886,10.919983815086185,66.04700000002049
311889.9277,14.783696558679264,20.332685362847045,7.665548346628318,12.665374659917504,66.04800000000978
311889.9287,17.843453316663123,23.19947179706866,11.39504274152346,13.536761752306418,66.04899999999907
311889.9297,19.957386287558354,25.07678032686412,14.263180211943387,13.540054113771468,66.04999999998836
311889.9307,21.102757601320178,25.944392330952862,16.239718783411824,12.726551620748278,66.05100000003586
311889.9317,21.295342307613275,25.8231956955327,17.327344758218413,11.187759074945955,66.05200000002515
311889.9327,20.585595866994673,24.770991839827133,17.558348745328214,9.048699345202975,66.05300000001444
311889.9337,19.053973278383488,22.877378381851138,16.990730417500064,6.4601953319378,66.05400000000373
311889.9347,16.805740137603703,20.25807906467936,15.704029835730921,3.590568505862109,66.05499999999302
311889.9357,13.96555222903413,17.049024603201566,13.79511062308898,0.6171499244463378,66.0559999999823
311889.9367,10.672000451699077,13.400402470841868,11.374034321468184,-2.2820713307278035,66.0570000000298
311889.9377,7.072234678347723,9.470804008987706,8.560078647793038,-4.936415599931732,66.05800000001909
311889.9387,3.31670595645034,5.421516964861107,5.477877357653142,-7.189923337437638,66.05900000000838
311889.9397,-0.44598804077746806,1.4109521210888336,2.253606430538198,-8.908096523928249,66.05999999999767
311889.9407,-4.0741965299843255,-2.4108376637061717,-0.9888823617637649,-9.983897533708124,66.06099999998696
311889.9417,-7.4382862722050085,-5.907584833138913,-4.132070360876269,-10.342947330422206,66.06200000003446
311889.9427,-10.425692883335277,-8.96218426200314,-7.068972386389372,-9.947856571580028,66.06300000002375
311889.9437,-12.945895916038493,-11.481960456099165,-9.707510061112707,-8.801595965244337,66.06400000001304
311889.9447,-14.935183308095246,-13.403683752630453,-11.974954345225076,-6.949773710750988,66.06500000000233
311889.9457,-16.36098756312284,-14.69810677496108,-13.82224200633807,-4.481647914456802,66.06599999999162
311889.9467,-17.225499978371865,-15.373712101324964,-15.22788583457482,-1.5296712559608299,66.06699999998091
311889.9477,-17.568213234618913,-15.479302860714347,-16.20113288146796,1.7326458287657005,66.0680000000284
311889.9487,-17.46701806610767,-15.105041840473367,-16.783990100960654,5.094750119843939,66.0690000000177
311889.9497,-17.037494993249805,-14.381560704477396,-17.0517408947223,8.3150847955499,66.07000000000698
311889.9507,-16.43010171037765,-13.476823908936424,-17.111623738557014,11.129213038916323,66.07099999999627
311889.9517,-15.825060496656643,-12.590541767756479,-17.09943531637218,13.259967831754725,66.07199999998556
311889.9527,-15.424892906587313,-11.946078597143119,-17.17395075462279,14.429425506916223,66.07300000003306
311889.9537,-15.44472135197216,-11.779984812583074,-17.50921358288383,14.372341374223792,66.07400000002235
311889.9547,-16.100645529204996,-12.329482013764325,-18.28492523911238,12.850525019309861,66.07500000001164
311889.9557,-17.596689817588665,-13.818430341402081,-19.675343042349365,9.66748601310274,66.07600000000093
311889.9567,-20.11098839629381,-16.442489236550898,-21.837260163013543,4.68256335709284,66.07699999999022
311889.9577,-23.782010906889457,-20.35432804317587,-24.897775187000953,-2.1763216227704945,66.07800000003772
311889.9587,-28.695718036255776,-25.649835612720974,-28.9426482304827,-10.902167389177462,66.07900000002701
311889.9597,-34.874561897634315,-32.356305800348196,-34.006074302060874,-21.401482828708403,66.0800000000163
311889.9607,-42.269203696228836,-40.42353104255837,-40.06267615221968,-33.490689141312835,66.08100000000559
311889.9617,-50.75370948989973,-49.71861745738592,-47.0224266767869,-46.89688182935725,66.08199999999488
311889.9627,-60.12480829072064,-60.0251466957954,-54.72905886421275,-61.26327292308245,66.08299999998417
311889.9637,-70.10556530767646,-71.0470627200505,-62.96231825833403,-76.15936345559412,66.08400000003166
311889.9647,-80.35355176398947,-82.4173717609767,-71.44417243488779,-91.0956023103859,66.08500000002095
311889.9657,-90.47330024875166,-93.71143105556965,-79.8488310548095,-105.54199051678029,66.08600000001024
311889.9667,-100.0325422079215,-104.46428935576799,-87.81616783812561,-118.94981184959316,66.08699999999953
311889.9677,-108.58145390906145,-114.1912532079853,-94.9678921373584,-130.77543280407247,66.08799999998882
311889.9687,-115.6739099620726,-122.41061010756557,-100.92561157526276,-140.50493710142496,66.08900000003632
311889.9697,-120.88957742932084,-128.66726234160913,-105.32977485240322,-147.6782574308866,66.09000000002561
311889.9707,-123.85559261923115,-132.5559285343624,-107.85839786688132,-151.91145050511568,66.0910000000149
311889.9717,-124.26655524823262,-133.7425625641777,-108.24446432725378,-152.91583479582386,66.09200000000419
311889.9727,-121.9016529323258,-131.98272383558717,-106.29095607017248,-150.51287084956022,66.09299999999348
311889.9737,-116.63788854464245,-127.13580402886986,-101.88260446633028,-144.64390243615534,66.09399999998277
311889.9747,-108.4586131793225,-119.17426183488274,-94.99365317997855,-135.37417737603653,66.09500000003027
311889.9757,-97.45685212740982,-108.18732136109054,-85.69116984933278,-122.89090911278996,66.09600000001956
311889.9767,-83.83322998674599,-94.37892990388201,-74.13372196332796,-107.49549985677503,66.09700000000885
311889.9777,-67.88863076447838,-78.0601219110465,-60.565520029938206,-89.59039774842515,66.09799999999814
311889.9787,-50.01204579269362,-59.636272746365584,-45.306408121917606,-69.6613787596942,66.09899999998743
311889.9797,-30.66434383348153,-39.59002417771641,-28.738328144775107,-48.25630625057885,66.10000000003492
311889.9807,-10.35892426513756,-18.460902488343436,-11.289082428145452,-25.961608857324737,66.10100000002421
311889.9817,10.359629342909876,3.1771861252485927,6.585643772816267,-3.3778181977362824,66.1020000000135
311889.9827,30.93770094195833,24.739319312968647,24.420970794751007,18.904483898632197,66.1030000000028
311889.9837,50.834409913692646,45.65252662430431,41.76119962527558,40.32704160855128,66.10399999999208
311889.9847,69.54188985828824,65.37719892365584,58.176922492178235,60.383522521299504,66.10499999998137
311889.9857,86.60312540511053,83.42594052288845,73.28005167525585,78.63546567951018,66.10600000002887
311889.9867,101.6266003750862,99.3790856898792,86.73612996702937,94.72398824175542,66.10700000001816
311889.9877,114.2972518687226,112.89635731265224,98.27349744006702,108.37696087683558,66.10800000000745
311889.9887,124.38348057176185,123.72441529974165,107.68911261861349,119.41166340787457,66.10899999999674
311889.9897,131.74021716169977,131.70030378668562,114.85104346951819,127.73320975806048,66.10999999998603
311889.9907,136.30826941898118,136.75103957262826,119.69783814278087,133.32926493555894,66.11100000003353
311889.9917,138.11035924337625,138.88977353121197,122.23514356933788,136.2617515481095,66.11200000002282
311889.9927,137.2443927220136,138.20909135997664,122.53005260252073,136.65635014468117,66.11300000001211
311889.9937,133.8745846095623,134.8720952489283,120.70372304574775,134.69063414519567,66.1140000000014
311889.9947,128.2210815727878,129.10192521357948,116.92282538839447,130.58165032415144,66.11499999999069
311889.9957,120.5487019993533,121.1703448223661,111.39034580231579,124.57366954620488,66.11600000003818
311889.9967,111.15534399588941,111.38594215996187,104.33620619251636,116.92670388006358,66.11700000002747
311889.9977,100.3605202531966,100.08239734788235,96.00807572884005,107.9062321942927,66.11800000001676
311889.9987,88.49437295842827,87.60715822177984,86.662651383049,97.77441451939592,66.11900000000605
311889.9997,75.88741784373546,74.31076066090198,76.55759131441654,86.7829224393721,66.11999999999534
311890.0007,62.861175930806304,60.53694212876801,65.94420550718799,75.16738243862113,66.12099999998463
311890.0017,49.71978361173757,46.61363514350126,55.06095095185196,63.143331376767684,66.12200000003213
311890.0027,36.74263142784315,32.84489605426171,44.12774818324673,50.90352321714112,66.12300000002142
311890.0037,24.1780698264923,19.50382316557268,33.34113224991068,38.61640389016615,66.12400000001071
311890.0047,12.23823244433913,6.826541740936999,22.870270173217854,26.42558209900466,66.125
311890.0057,1.095056414226311,-4.992627392231398,12.853911076556008,14.450159412522671,66.12599999998929
311890.0067,-9.12238562326295,-15.804655861853886,3.398374268306966,2.7858318654713017,66.12700000003679
311890.0077,-18.3290975253703,-25.507758691568572,-5.423286740005887,-8.493274997756087,66.12800000002608
311890.0087,-26.48375896891272,-34.047602041135036,-13.570791088339435,-19.332037235567164,66.12900000001537
311890.0097,-33.58656986051032,-41.41558077861022,-21.034666590314657,-29.691012283325414,66.13000000000466
311890.0107,-39.6752453671149,-47.64503586971667,-27.832717342676226,-39.54236095459748,66.13099999999395
311890.0117,-44.81915009402868,-52.80537762879094,-34.004903719523625,-48.86504692556462,66.13199999998324
311890.0127,-49.111675072747246,-56.994211881613204,-39.60672490463482,-57.63941897653789,66.13300000003073
311890.0137,-52.66110035073333,-60.32772252977667,-44.7013263062116,-65.84137262673717,66.13400000002002
311890.0147,-55.580336530312636,-62.92973177732107,-49.350696846644475,-73.43638952455449,66.13500000000931
311890.0157,-57.976084796723384,-64.92002105549834,-53.60645880914114,-80.37385126773434,66.1359999999986
311890.0167,-59.938079468031816,-66.40263272805491,-57.50086884070473,-86.58210424553498,66.13699999998789
311890.0177,-61.52916295438922,-67.45496692264608,-61.038726557871286,-91.96479924458411,66.13800000003539
311890.0187,-62.77697570615758,-68.11852404896071,-64.19091315182723,-96.39903199265466,66.13900000002468
311890.0197,-63.66801298723387,-68.39211115160123,-66.89024686740325,-99.73576061185659,66.14000000001397
311890.0207,-64.14470155508909,-68.22822476856604,-69.03024128822464,-101.80287042896884,66.14100000000326
311890.0217,-64.10598455186543,-67.53314696961905,-70.46718848252085,-102.41109893974324,66.14199999999255
311890.0227,-63.411680848496395,-66.17105437933996,-71.02577129279436,-101.36283303138528,66.14299999998184
311890.0237,-61.89062068389481,-63.97215836840924,-70.5081524077462,-98.46356117928566,66.14400000002934
311890.0247,-59.352272655166445,-60.74458950825932,-68.70621210648716,-93.5355236506109,66.14500000001863
311890.0257,-55.60129114557642,-56.28943541395512,-65.41633448418598,-86.43287456614688,66.14600000000792
311890.0267,-50.45415246295871,-50.418063909848975,-60.45589723869735,-77.05747225102124,66.1469999999972
311890.0277,-43.756835510908545,-42.970637417249286,-53.68042509960202,-65.37426833813375,66.1479999999865
311890.0287,-35.402358619154114,-33.834570401386195,-45.00024066594594,-51.425187785528315,66.149000000034
311890.0297,-25.346922893912325,-22.96161492961049,-34.39540248034401,-35.34039242722758,66.15000000002328
311890.0307,-13.62344215048063,-10.382288210487616,-21.92776568110079,-17.345904692052684,66.15100000001257
311890.0317,-0.35136073819734287,3.7835190752953687,-7.749135237786122,2.2332664367792403,66.15200000000186
311890.0327,14.258133651998751,19.320701183174833,7.8953021819901466,22.975117351574575,66.15299999999115
311890.0337,29.902118846858652,35.91852234605626,24.668798891573427,44.368084974126425,66.15400000003865
311890.0347,46.191458523229386,53.17594754231059,42.15032137351677,65.8239191041215,66.15500000002794
311890.0357,62.66177042417311,70.6126692235748,59.84713049288193,86.69564179751998,66.15600000001723
311890.0367,78.78942501886362,87.68541055384995,77.21216959669697,106.29991184746515,66.15700000000652
311890.0377,94.01182880579567,103.80874227366168,93.66544512296885,123.94281739197714,66.15799999999581
311890.0387,107.75096721699099,118.37935775353456,108.61831859375923,138.9478828233231,66.1589999999851
311890.0397,119.43897136341437,130.80252938356418,121.49943426042043,150.68491437539166,66.1600000000326
311890.0407,128.54434437015362,140.51933346581143,131.78089602543136,158.59823291330022,66.16100000002189
311890.0417,134.59744384646066,147.03318762849503,139.00328671998088,162.232856724202,66.16200000001118
311890.0427,137.21386721857175,149.93429460902945,142.79819158206138,161.25729883328094,66.16300000000047
311890.0437,136.11451964169535,148.92072224143348,142.90703850535104,155.4818234749742,66.16399999998976
311890.0447,131.1413475825364,143.81505872750978,139.1952872870689,144.87125037381145,66.16500000003725
311890.0457,122.26797795807055,134.5758471162669,131.66127129156533,129.55168499169483,66.16600000002654
311890.0467,109.60479301755342,121.30330262889728,120.4392974689915,109.81086714397262,66.16700000001583
311890.0477,93.39827386370854,104.2391290724646,105.7969232406378,86.09214813020702,66.16800000000512
311890.0487,74.02474009465998,83.76055470748689,88.12663070154129,58.98240773506681,66.16899999999441
311890.0497,51.978881150272606,60.36898447730896,67.93239135319108,29.194489824283934,66.1699999999837
311890.0507,27.857701697828226,34.67389904679602,45.8118430346903,-2.4550446099062744,66.1710000000312
311890.0517,2.3406783595797647,7.372810872438414,22.43497407690725,-35.07188394608194,66.17200000002049
311890.0527,-23.83295723450439,-20.77179204687804,-1.4796779796775323,-67.71258457423124,66.17300000000978
311890.0537,-49.88883424395633,-48.95752339607537,-25.190255495444916,-99.41472867415706,66.17399999999907
311890.0547,-75.04297647767451,-76.36820010718338,-47.95718826769334,-129.2275161925869,66.17499999998836
311890.0557,-98.52731381274695,-102.20001354907359,-69.06818933259599,-156.24173954110785,66.17600000003586
311890.0567,-119.61430703471707,-125.68689400291615,-87.86174888722245,-179.61817815251953,66.17700000002515
311890.0577,-137.63992302988942,-146.1242948819434,-103.74836508476274,-198.61356288342517,66.17800000001444
311890.0587,-152.02431176631703,-162.89073855661658,-116.22889600620145,-212.6033869547511,66.17900000000373
311890.0597,-162.28965449832984,-175.46658328054914,-124.90956792106579,-221.1009718504089,66.17999999999302
311890.0607,-168.07476642687067,-183.44958264899205,-129.513321453784,-223.7723267747179,66.1809999999823
311890.0617,-169.14614177232613,-186.56691037485507,-129.88731241401686,-220.4464649166082,66.1820000000298
311890.0627,-165.40522296821177,-184.683412261016,-126.0065035994317,-211.12095743296317,66.18300000001909
311890.0637,-156.8917592776236,-177.80592534996646,-117.9733863827979,-195.96261743016703,66.18400000000838
311890.0647,-143.78319649320844,-166.08357492030314,-106.01395728854695,-175.30331345007195,66.18499999999767
311890.0657,-126.39011269107183,-149.8040282647409,-90.47014774347697,-149.63101787195,66.18599999998696
311890.0667,-105.14778976254436,-129.3857554034409,-71.78896843716582,-119.57630286596041,66.18700000003446
311890.0677,-80.60409052029905,-105.3664258069573,-50.508687129023436,-85.89460679669297,66.18800000002375
311890.0687,-53.40389904895015,-78.38766006084164,-27.242413650027682,-49.44470752325499,66.18900000001304
311890.0697,-24.270478194653663,-49.176457271463335,-2.659520550462829,-11.163954336449054,66.19000000000233
311890.0707,6.015798978058158,-18.523731435354964,22.53461681341718,27.95907605806219,66.19099999999162
311890.0717,36.640781100798065,12.73949106697077,47.62002172719623,66.9137270717545,66.19199999998091
311890.0727,66.78126810041728,43.76754162821639,71.88406725992596,104.69734671609255,66.1930000000284
311890.0737,95.63037971748727,73.7264650678065,94.64333856358778,140.34536824723298,66.1940000000177
311890.0747,122.422729018266,101.8203852740981,115.26473200489446,172.96039898597093,66.19500000000698
311890.0757,146.45851785247325,127.31693936097446,133.18509739523418,201.73931578514942,66.19599999999627
311890.0767,167.12565568045565,149.57080955803863,147.92873222882264,225.99739124872113,66.19699999998556
311890.0777,183.91902752520647,168.04439722676494,159.12206683350868,245.18854343953035,66.19800000003306
311890.0787,196.45610529056384,182.3247485339885,166.50494096951772,258.9209150726328,66.19900000002235
311890.0797,204.48821102811652,192.13595880104828,169.93796829228927,266.9671450791551,66.20000000001164
311890.0807,207.9068995432614,197.34645106633695,169.40561554052567,269.26889202202096,66.20100000000093
311890.0817,206.74512620897588,197.97073859511178,165.01478582463716,265.93539817893446,66.20199999999022
311890.0827,201.17309572671178,194.1655315198343,156.98888436863834,257.2361352483949,66.20300000003772
311890.0837,191.48893730583532,186.2203213419591,145.6575517736154,243.58783503654846,66.20400000002701
311890.0847,178.10460709790075,174.54285749908337,131.4424628084979,225.53646661553398,66.2050000000163
311890.0857,161.52766367478515,159.64019947471718,114.8397942796978,203.73495968500634,66.20600000000559
311890.0867,142.339780170886,142.09626727149382,96.40014897643059,178.91767661419206,66.20699999999488
311890.0877,121.17303137901109,122.54700466604237,76.7068694688799,151.87278854905594,66.20799999998417
311890.0887,98.68511162324174,101.654398167904,56.35377258848264,123.41380221565576,66.20900000003166
311890.0897,75.53468905034354,80.0806485844135,35.92337252143707,94.3515054921441,66.21000000002095
311890.0907,52.35807802805995,58.463765229228166,15.966631403748403,65.46754792629471,66.21100000001024
311890.0917,29.74831289220234,37.395744720345625,-3.014820144847106,37.49074883108016,66.21199999999953
311890.0927,8.237538353843107,17.404312899044353,-20.5832097952194,11.07703750470085,66.21299999998882
311890.0937,-11.71659488372943,-1.061038319102492,-36.37532811605203,-13.206310242239885,66.21400000003632
311890.0947,-29.740110642679493,-17.63827997429748,-50.109093800421036,-34.89175102625298,66.21500000002561
311890.0957,-45.547338643795676,-32.05721877395914,-61.58593498659119,-53.617771698385454,66.2160000000149
311890.0967,-58.94116623545782,-44.13920863851556,-70.68921423261067,-69.13059511428965,66.21700000000419
311890.0977,-69.80935348204501,-53.79268948837164,-77.3791744987069,-81.28174123793782,66.21799999999348
311890.0987,-78.11758554057452,-61.00528802294859,-81.68509063549037,-90.02210233946884,66.21899999998277
311890.0997,-83.90010660807648,-65.8333955720088,-83.69545828450681,-95.39333989116675,66.22000000003027
311890.1007,-87.24887651095713,-68.39023879310885,-83.54712766385968,-97.5174867248459,66.22100000001956
311890.1017,-88.30220750622733,-68.83347322655156,-81.41428757278256,-96.58563712612816,66.22200000000885
311890.1027,-87.23377532109309,-67.35325818911726,-77.49812616771807,-92.84653268789899,66.22299999999814
311890.1037,-84.24276214963551,-64.16162240164974,-72.01784763730657,-86.59571246660465,66.22399999998743
311890.1047,-79.54569395063415,-59.483718142853974,-65.20352209888338,-78.16570763877189,66.22500000003492
311890.1057,-73.37029884399644,-53.55130812529493,-57.29100909572913,-67.91754319522649,66.22600000002421
311890.1067,-65.95146005924767,-46.598557837483774,-48.51894543371342,-56.233584523163806,66.2270000000135
311890.1077,-57.529089555697986,-38.85994232883756,-39.12754931470206,-43.511557710201096,66.2280000000028
311890.1087,-48.347530173654576,-30.569844931532774,-29.358787288659386,-30.159400008974114,66.22899999999208
311890.1097,-38.65592520677296,-21.963247618382713,-19.45729779903134,-16.59047833492759,66.22999999998137
311890.1107,-28.708890145976117,-13.276804841682125,-9.671379465097349,-3.21866077584347,66.23100000002887
311890.1117,-18.766791495661963,-4.749564409279403,-0.25334193709820674,9.547255769163586,66.23200000001816
311890.1127,-9.094984540209433,3.3773476401369105,8.541416576806792,21.31017115413194,66.23300000000745
311890.1137,0.03851886337055192,10.862631650564357,16.45710399882096,31.69262159340637,66.23399999999674
311890.1147,8.367301302403359,17.468668959039693,23.242304780375928,40.34609925533561,66.23499999998603
311890.1157,15.632834524993129,22.967449314229803,28.656893572115905,46.961595796963984,66.23600000003353
311890.1167,21.59269614754979,27.14843450390131,32.480904978091715,51.280987041686515,66.23700000002282
311890.1177,26.030340863484422,29.827965654116955,34.52492236583877,53.108667821964495,66.23800000001211
311890.1187,28.765837311009438,30.85959425725322,34.64132738715797,52.322678614283966,66.2390000000014
311890.1197,29.66680644474043,30.144540727370988,32.73558049647319,48.88445801326776,66.23999999999069
311890.1207,28.65868560631932,27.641377232403066,28.776598642862357,42.84632135793022,66.24100000003818
311890.1217,25.733406509825805,23.374005517763067,22.805271069115463,34.35581356076034,66.24200000002747
311890.1227,20.955620306165233,17.43705982834393,14.940212594633305,23.656213754477157,66.24300000001676
311890.1237,14.465726764341998,9.998006430550783,5.379993412909647,11.082673624793062,66.24400000000605
311890.1247,6.479158305487807,1.2954236640911456,-5.598704320959299,-2.9462639240815016,66.24499999999534
311890.1257,-2.71838222698494,-8.36678758667238,-17.647285968443228,-17.941713883462054,66.24599999998463
311890.1267,-12.779748821077034,-18.62921602284924,-30.355781252263732,-33.361692698848906,66.24700000003213
311890.1277,-23.30897002360139,-29.090424683479842,-43.26738761150618,-48.631871610673365,66.24800000002142
311890.1287,-33.87710249103835,-39.32347513196329,-55.89639157958266,-63.16887995594693,66.24900000001071
311890.1297,-44.04052173801918,-48.89461831288143,-67.748580583346,-76.40498305308525,66.25
311890.1307,-53.36066327354513,-57.383103232210594,-78.34305776844089,-87.8128220452836,66.25099999998929
311890.1317,-61.424109686203856,-64.40095618517488,-87.23424785844372,-96.92885644682426,66.25200000003679
311890.1327,-67.86188085768909,-69.61156980915517,-94.0328423220963,-103.37419894170874,66.25300000002608
311890.1337,-72.3668273779223,-72.7460127841124,-98.42448000483685,-106.8716731628722,66.25400000001537
311890.1347,-74.70814679094914,-73.6161204336776,-100.18509061260683,-107.25814811018942,66.25500000000466
311890.1357,-74.74222786364561,-72.12364041365124,-99.19203224149753,-104.4914903613068,66.25599999999395
311890.1367,-72.41926404816903,-68.264967826849,-95.43041428541261,-98.65180511191004,66.25699999998324
311890.1377,-67.78534466178648,-62.13128904833412,-88.99429329868107,-89.9369841582513,66.25800000003073
311890.1387,-60.980010255515296,-53.90424068149322,-80.08273929807974,-78.65291719442729,66.25900000002002
311890.1397,-52.22952645472869,-43.847457596835234,-68.99107079896969,-65.19902761813087,66.26000000000931
311890.1407,-41.836369244080075,-32.294612757696044,-56.09782738165316,-50.05004420099613,66.2609999999986
311890.1417,-30.165608467082183,-19.634726457632812,-41.848270788123166,-33.735099312701465,66.26199999998789
311890.1427,-17.62901380492077,-6.295633819461493,-26.735366038896597,-16.8153429247287,66.26300000003539
311890.1437,-4.667782358751173,7.273457173677103,-11.27928490328849,0.1387238230999955,66.26400000002468
311890.1447,8.265201796229812,20.619407543882865,3.993506781420166,16.56905755042211,66.26500000001397
311890.1457,20.72271391827805,33.30176131336258,18.570565230041087,31.95002259735537,66.26600000000326
311890.1467,32.27937756708307,44.907833337683556,31.972283417103267,45.805672843720814,66.26699999999255
311890.1477,42.54607058398417,55.06573524794313,43.768453539224346,57.72378586739279,66.26799999998184
311890.1487,51.18208420143978,63.45498316986284,53.592011024129086,67.36631665283927,66.26900000002934
311890.1497,57.904742253380725,69.81451079212542,61.14959251369439,74.47618153824624,66.27000000001863
311890.1507,62.49635298719032,73.94807687672963,66.22873685537019,78.88050471394872,66.27100000000792
311890.1517,64.80851378869828,75.72719529915446,68.70173866490804,80.49064401160479,66.2719999999972
311890.1527,64.7639098891236,75.09181976124042,68.52631753617054,79.2994490284949,66.2729999999865
311890.1537,62.355836209713,72.04908030469501,65.74338535736881,75.37628701484753,66.274000000034
311890.1547,57.645725241855956,66.67039491613824,60.47227641121388,68.86039993261018,66.27500000002328
311890.1557,50.75898531918213,59.087271121137924,52.90385083670858,59.95313419289694,66.27600000001257
311890.1567,41.879448014017335,49.486077036948515,43.29189576255783,48.90952154716514,66.27700000000186
311890.1577,31.24269812509947,38.102008605258376,31.943236565773063,36.02959728554957,66.27799999999115
311890.1587,19.128523416037147,25.212420316595935,19.206941227006986,21.649733839285464,66.27900000003865
311890.1597,5.8526825354796435,11.129630987232389,5.462961902891373,6.1341578902647385,66.28000000002794
311890.1607,-8.24184401404383,-3.806727144121962,-8.88948284508336,-10.133280209153561,66.28100000001723
311890.1617,-22.793977698857677,-19.237772243025848,-23.44351823393032,-26.757094248131544,66.28200000000652
311890.1627,-37.43390702903251,-34.793808367459874,-37.79597734735845,-43.33796712648352,66.28299999999581
311890.1637,-51.79255434077927,-50.10307192769529,-51.55829937780722,-59.48045206036108,66.2839999999851
311890.1647,-65.51098614682009,-64.80069033182474,-64.36675203237729,-74.80063756478211,66.2850000000326
311890.1657,-78.24958191703313,-78.5377031583199,-75.89177145529966,-88.93380552674171,66.28600000002189
311890.1667,-89.69674642825204,-90.98994027736171,-85.84621386985351,-101.54205358235943,66.28700000001118
311890.1677,-99.57692474619954,-101.86649896922152,-93.99231610259585,-112.3217837683371,66.28800000000047
311890.1687,-107.65766270828799,-110.91752169114477,-100.14717180085972,-121.01088867201472,66.28899999998976
311890.1697,-113.75545478343098,-117.94095502391207,-104.18655040121348,-127.39540358797356,66.29000000003725
311890.1707,-117.7401391572551,-122.78797384003586,-106.04691946652575,-131.3153469932518,66.29100000002654
311890.1717,-119.53763857632693,-125.36678569370568,-105.72557902838872,-132.66944864552346,66.29200000001583
311890.1727,-119.13090437195645,-125.64458878780867,-103.27887842851783,-131.41846905256872,66.29300000000512
311890.1737,-116.55899738257136,-123.64753966287553,-98.8185594378334,-127.58684746494308,66.29399999999441
311890.1747,-111.914328335916,-119.45868833536508,-92.50635009837337,-121.2624765519771,66.2949999999837
311890.1757,-105.33817509869479,-113.21395115982313,-84.54701640495783,-112.59448645435506,66.2960000000312
311890.1767,-97.01468741783873,-105.09630589279033,-75.1801573589715,-101.78902253063727,66.29700000002049
311890.1777,-87.16367334076647,-95.32849937174481,-64.67109648703624,-89.1031116178588,66.29800000000978
311890.1787,-76.03252777121342,-84.16464629628648,-53.301273302020626,-74.83682175518547,66.29899999999907
311890.1797,-63.88770610752545,-71.88115949284845,-41.3585659856073,-59.32402062651416,66.29999999998836
311890.1807,-51.00615999420172,-58.767481571228785,-29.127977900445085,-42.92211970360266,66.30100000003586
311890.1817,-37.66713568570173,-45.11708166977675,-16.883093537660795,-26.001246994157068,66.30200000002515
311890.1827,-24.14468894209632,-31.219138923032013,-4.878654714115677,-8.933316470465918,66.30300000001444
311890.1837,-10.701197202653,-17.35125966290817,6.655471638151453,7.918545457174256,66.30400000000373
311890.1847,2.417943817067621,-3.773474699489128,17.518761303898064,24.209795677262857,66.30499999999302
311890.1857,14.988357566061268,9.276354446211265,27.54287335697121,39.623139047498846,66.3059999999823
311890.1867,26.809484264979048,21.585714629137243,36.592912590956715,53.87579725047685,66.3070000000298
311890.1877,37.70626400491613,32.96931658285125,44.56726709257684,66.72521783035276,66.30800000001909
311890.1887,47.52991135540789,43.26987680198542,51.39626098475419,77.97316240808297,66.30900000000838
311890.1897,56.158041246373536,52.35808663051219,57.03992348603873,87.46820837300481,66.30999999999767
311890.1907,63.494426847333116,60.13208490939344,61.48520510077673,95.10677713537432,66.31099999998696
311890.1917,69.46865586359557,66.51674701836914,64.74296727681701,100.83285767648799,66.31200000003446
311890.1927,74.03590344054328,71.46306102978782,66.84503413078039,104.63662301209615,66.31300000002375
311890.1937,77.17696289616148,74.94778569537165,67.84152835505039,106.55213907033158,66.31400000001304
311890.1947,78.89857841766467,76.9734837383626,67.79862594163525,106.65434358415993,66.31500000000233
311890.1957,79.23401792762007,77.56890915393295,66.79676611568443,105.05543312109239,66.31599999999162
311890.1967,78.24372230722443,76.78961257234955,64.92925548142262,101.9007477228029,66.31699999998091
311890.1977,76.01578193896064,74.71852831233058,62.301120560682634,97.3641942964272,66.3180000000284
311890.1987,72.66593464670589,71.46623353752177,59.028001121615425,91.64321120618874,66.3190000000177
311890.1997,68.33675941618229,67.17053430253117,55.23484593962185,84.95325533960012,66.32000000000698
311890.2007,63.19576279110546,61.9950417258593,51.05417741146928,77.52179460763018,66.32099999999627
311890.2017,57.432120009473934,56.126455783260134,46.62373216677802,69.5818153901204,66.32199999998556
311890.2027,51.251936402829145,49.77037088248868,42.083357648490335,61.364904158548455,66.32300000003306
311890.2037,44.87202744435201,43.14554815848283,37.571141823557014,53.09403010434155,66.32400000002235
311890.2047,38.51236552573024,36.47675189130669,33.21886391304295,44.97623276622185,66.32500000001164
311890.2057,32.38749307659532,29.986406311181877,29.146965591155634,37.195495049857804,66.32600000000093
311890.2067,26.69733917273315,23.885477767492716,25.45934134060004,29.906146559198376,66.32699999999022
311890.2077,21.617985296703303,18.36410973755868,22.23832145235218,23.22718429079439,66.32800000003772
311890.2087,17.29299282169864,13.582620545185721,19.540261806326974,17.23790884127321,66.32900000002701
311890.2097,13.825921233037699,9.663505676229837,17.392154819503965,11.975248657477055,66.3300000000163
311890.2107,11.274627889255118,6.685062619636616,15.789633686520656,7.433080515673808,66.33100000000559
311890.2117,9.647848159899421,4.67717587379955,14.69665948651439,3.563753357332091,66.33199999999488
311890.2127,8.904414991731576,3.619668088426398,14.047064195953238,0.281890759369453,66.33299999998417
311890.2137,8.955299776377094,3.443450079499095,13.747981879817035,-2.5296059537742592,66.33400000003166
311890.2147,9.668455823578805,4.034501487925873,13.68504758731272,-5.011594616060372,66.33500000002095
311890.2157,10.876238158658417,5.240501798592807,13.729092391050091,-7.3191682091962935,66.33600000001024
311890.2167,12.384976124601215,6.879726343628211,13.743927401826252,-9.611109014504818,66.33699999999953
311890.2177,13.986105283931005,8.751641694714507,13.5947022853368,-12.038968240761578,66.33799999998882
311890.2187,15.468137413072029,10.648495739708778,13.156255525222667,-14.736483438400533,66.33900000003632
311890.2197,16.62867382306403,12.36711285620494,12.320852097125458,-17.810059320976425,66.34000000002561
311890.2207,17.285655436525357,13.72008270782514,11.0047332305776,-21.330994694676303,66.3410000000149
311890.2217,17.287095579750968,14.545575801566429,9.152982153817602,-25.33003904296817,66.34200000000419
311890.2227,16.518655447379203,14.715127787225494,6.742334302705749,-29.79471176792078,66.34299999999348
311890.2237,14.908589389801104,14.138899486503487,3.7817213175209368,-34.66962474926085,66.34399999998277
311890.2247,12.429794376618144,12.768127446565405,0.31052243072999436,-39.85982857891479,66.34500000003027
311890.2257,9.098928084887126,10.59471277928589,-3.605311017157405,-45.23697167855415,66.34600000001956
311890.2267,4.972793389326191,7.648133731936413,-7.878909269706916,-50.6478385735037,66.34700000000885
311890.2277,0.14240310203239487,3.990088418355438,-12.409410688021039,-55.92463826130212,66.34799999999814
311890.2287,-5.2746818231348644,-0.29254197331101517,-17.089540621381953,-60.896263803671566,66.34899999998743
311890.2297,-11.143021272322239,-5.09568977221647,-21.813160632611897,-65.39965470253482,66.35000000003492
311890.2307,-17.318191840961806,-10.306275165191623,-26.48210578740094,-69.29037425226473,66.35100000002421
311890.2317,-23.655139614654935,-15.809787455424347,-31.011690563594897,-72.45156892543517,66.3520000000135
311890.2327,-30.01530095220658,-21.49658671267723,-35.33438597013015,-74.80060341174878,66.3530000000028
311890.2337,-36.27194690332656,-27.266389160089624,-39.401341919518465,-76.29285404900752,66.35399999999208
311890.2347,-42.313401444241634,-33.03060108994151,-43.181634948817326,-76.92237992292712,66.35499999998137
311890.2357,-48.04400978221402,-38.71239989076947,-46.65934342022313,-76.71945494666994,66.35600000002887
311890.2367,-53.38296875547849,-44.2447042192049,-49.828769639026106,-75.7452127768497,66.35700000001816
311890.2377,-58.261353796860824,-49.56640451120933,-52.688320031306226,-74.08390551787306,66.35800000000745
311890.2387,-62.617864027560785,-54.617417038419966,-55.23370162108743,-71.83348412392047,66.35899999999674
311890.2397,-66.39394004340011,-59.33326010961552,-57.4511803089359,-69.0953540245913,66.35999999998603
311890.2407,-69.5289742876181,-63.63991573489804,-59.31166403749297,-65.96422999528832,66.36100000003353
311890.2417,-71.95632467069628,-67.44972696163632,-60.7663185049687,-62.51900276483366,66.36200000002282
311890.2427,-73.600758866054,-70.65899073977089,-61.7442983568815,-58.815437078271245,66.36300000001211
311890.2437,-74.37780755964629,-73.14774692707739,-62.152993298219144,-54.8813553994853,66.3640000000014
311890.2447,-74.19530469685876,-74.7820512281021,-61.880962817912135,-50.714738568543474,66.36499999999069
311890.2457,-72.95716154841986,-75.4187742403261,-60.80348609205279,-46.284915362258374,66.36600000003818
311890.2467,-70.56918248041875,-74.91271443238293,-58.790408348817024,-41.53674119301066,66.36700000002747
311890.2477,-66.94650765929839,-73.1255746887214,-55.715744732284485,-36.39740711631512,66.36800000001676
311890.2487,-62.02208373935863,-69.93615314461334,-51.4683282903281,-30.785297207309604,66.36900000000605
311890.2497,-55.75543592529594,-65.25095839745235,-45.96267639952596,-24.620144510231597,66.36999999999534
311890.2507,-48.14095576473304,-59.014389797667995,-39.1492098305548,-17.83363663036246,66.37099999998463
311890.2517,-39.214933585112604,-51.21763117831546,-31.022993743231723,-10.379598119953606,66.37200000003213
311890.2527,-29.06065019090685,-41.90548927883854,-21.630275904646087,-2.242927285803364,66.37300000002142
311890.2537,-17.810989895682926,-31.180557319546022,-11.072263433111678,6.553417772908916,66.37400000001071
311890.2547,-5.648231101747771,-19.204284790686263,0.49421084072445104,15.943918610949483,66.375
311890.2557,7.199107525244016,-6.1947674078955215,12.859247440229089,25.81880977373952,66.37599999998929
311890.2567,20.462258505682797,7.578684937387557,25.765542920052884,36.0253118630226,66.37700000003679
311890.2577,33.840712682987885,21.803910857573804,38.91681481625456,46.37167102835235,66.37800000002608
311890.2587,47.012736752977645,36.13669555218314,51.988463051942546,56.63369384405971,66.37900000001537
311890.2597,59.647258729991684,50.21335067885502,64.63980612749954,66.56330498931138,66.38000000000466
311890.2607,71.41639745663186,63.664320459377606,76.52715169588,75.89854036587246,66.38099999999395
311890.2617,82.00789067767522,76.12801853861981,87.31694253128735,84.37432604541952,66.38199999998324
311890.2627,91.13671320242489,87.26412217591556,96.6982581007819,91.73338464919064,66.38300000003073
311890.2637,98.55526609484488,96.76562915829452,104.39404184495541,97.73665180841662,66.38400000002002
311890.2647,104.06164940719498,104.36910866661692,110.17055397274494,102.17266876182097,66.38500000000931
311890.2657,107.50569150194764,109.86273707665649,113.84470558836195,104.86553252137591,66.3859999999986
311890.2667,108.79258258862511,113.09188808534093,115.28909752517389,105.6811201467584,66.38699999998789
311890.2677,107.88413345872353,113.96222761212161,114.43475162218554,104.53144558467329,66.38800000003539
311890.2687,104.79783813856108,112.44043224692331,111.27166984414056,101.37714373879948,66.38900000002468
311890.2697,99.60404891433355,108.55279208868963,105.84747639043397,96.22819584380983,66.39000000001397
311890.2707,92.42166447566488,102.38206408256792,98.26448161021474,89.14310397458685,66.39100000000326
311890.2717,83.41278095661424,94.06300361938159,88.67554960067228,80.22678464310297,66.39199999999255
311890.2727,72.77675962792472,83.77701765877534,77.27915313113961,69.62747916320035,66.39299999998184
311890.2737,60.74412621398419,71.74635381363014,64.3139631383295,57.532972373150066,66.39400000002934
311890.2747,47.570641433331126,58.22817267287271,50.053252078432855,44.166375142179575,66.39500000001863
311890.2757,33.53177984531049,43.508754673184356,34.79930034390039,29.781666344054948,66.39600000000792
311890.2767,18.917736309503667,27.89798020216387,18.87789416522441,14.659115251045407,66.3969999999972
311890.2777,4.02895953651052,11.724105895787467,2.632904220986312,-0.8993745577151471,66.3979999999865
311890.2787,-10.827896393924814,-4.67124506859191,-13.579151419282207,-16.57503349958515,66.399000000034
311890.2797,-25.34379699607922,-20.938043127031285,-29.394717865425623,-32.03720051876722,66.40000000002328
311890.2807,-39.21117569622218,-36.72297689375395,-44.44917469660553,-46.94863573577847,66.40100000001257
311890.2817,-52.12806570370804,-51.674966648430605,-58.383347834361885,-60.9713130912236,66.40200000000186
311890.2827,-63.80274774814211,-65.45126082809078,-70.85069713194085,-73.77281443560007,66.40299999999115
311890.2837,-73.95907915226574,-77.72424065567267,-81.52523606234476,-85.03339643542263,66.40400000003865
311890.2847,-82.34257036434856,-88.18895729742866,-90.11013428055941,-94.45372592229323,66.40500000002794
311890.2857,-88.72715330288777,-96.5713037769845,-96.34683170455575,-101.76318482546357,66.40600000001723
311890.2867,-92.92245441770424,-102.6365932829564,-100.02436666125683,-106.72854183610329,66.40700000000652
311890.2877,-94.7812584279616,-106.19819084632486,-100.98850418416626,-109.1626851635474,66.40799999999581
311890.2887,-94.2067404782594,-107.12574092337854,-99.15015708987329,-108.93302034200111,66.4089999999851
311890.2897,-91.15896778646692,-105.3524619857382,-94.49253381809,-105.96906960846194,66.4100000000326
311890.2907,-85.66013686427952,-100.88095076200756,-87.07643228470131,-100.26877382674195,66.41100000002189
311890.2917,-77.79802542545119,-93.78695939994577,-77.04313357882978,-91.90300063925778,66.41200000001118
311890.2927,-67.72720102800245,-84.22068007013284,-64.61443432568933,-81.01780658587974,66.41300000000047
311890.2937,-55.667638433447046,-72.40519014240647,-50.08948845914815,-67.83408577043886,66.41399999998976
311890.2947,-41.90054712829415,-58.63186914946956,-33.838300109150126,-52.64435898226456,66.41500000003725
311890.2957,-26.761387985850195,-43.25278444681268,-16.291907559178945,-35.80660724549201,66.41600000002654
311890.2967,-10.63024921148918,-26.670240968456994,2.0704909277700705,-17.735221985158883,66.41700000001583
311890.2977,6.080059630802321,-9.323885301961026,20.737011624964037,1.1106821823090252,66.41800000000512
311890.2987,22.937666964730667,8.324071164544748,39.18051608260525,20.24118004137117,66.41899999999441
311890.2997,39.50638768344379,25.804806309274515,56.877204033622796,39.15111675664898,66.4199999999837
311890.3007,55.36080737920653,42.659223940690204,73.32547405754534,57.336687914275466,66.4210000000312
311890.3017,70.10091492977537,58.45384409603428,88.06411629518279,74.312278813066,66.42200000002049
311890.3027,83.36552102099195,72.79544386023646,100.68892397596096,89.62680032978638,66.42300000000978
311890.3037,94.84378269855712,85.34372996173,110.86689617180097,102.87878526476635,66.42399999999907
311890.3047,104.28428740654351,95.82146036498709,118.34734702316986,113.72958274413686,66.42499999998836
311890.3057,111.50132274685647,104.0216080038667,122.96942568186965,121.91410265286918,66.42600000003586
311890.3067,116.37815519892112,109.81136039068002,124.66577127476204,127.24870740839285,66.42700000002515
311890.3077,118.86734476050049,113.13295656944851,123.46226046788837,129.6360123660046,66.42800000001444
311890.3087,118.98831476825437,114.00155970057584,119.47403278950365,129.06652518082305,66.42900000000373
311890.3097,116.82256007395893,112.50053266400232,112.89818259455804,125.61721499276518,66.42999999999302
311890.3107,112.5069982508358,108.77461158990502,104.00367079100127,119.44724221726233,66.4309999999823
311890.3117,106.22603792830276,103.02154866801435,93.11912263102163,110.7911895103135,66.4320000000298
311890.3127,98.20295145546145,95.48281677500425,80.61923361112962,99.95020819100844,66.43300000001909
311890.3137,88.69109749727262,86.43393596342554,66.91050319192885,87.28153020758185,66.43400000000838
311890.3147,77.96545019732955,76.17490278485796,52.4169607163344,73.18679595045681,66.43499999999767
311890.3157,66.31476742442902,65.02108961239247,37.56644968243752,58.09961891561507,66.43599999998696
311890.3167,54.0345871320303,53.294847805989725,22.77790932720024,42.472758340978324,66.43700000003446
311890.3177,41.42109555597448,41.31791260215756,8.449952368170896,26.765211061737926,66.43800000002375
311890.3187,28.76578120571898,29.40458559832124,-5.049098923268782,11.429474768047415,66.43900000001304
311890.3197,16.350689530169333,17.855577041624187,-17.389674651422318,-3.1008138060119492,66.44000000000233
311890.3207,4.444035994679154,6.952335365109917,-28.287962461243556,-16.422693378663304,66.44099999999162
311890.3217,-6.704073898024668,-3.048318988290326,-37.51155355703054,-28.174982886137784,66.44199999998091
311890.3227,-16.866030271219138,-11.919404673798832,-44.883841380778144,-38.04850313140077,66.4430000000284
311890.3237,-25.84134176460174,-19.46891267838846,-50.28726429734866,-45.795214108350066,66.4440000000177
311890.3247,-33.46151484705238,-25.544839316037173,-53.665436676404184,-51.236029472687036,66.44500000000698
311890.3257,-39.595079985807054,-30.039983866597414,-55.02415083911856,-54.26703238490955,66.44599999999627
311890.3267,-44.15252686880002,-32.89626595899469,-54.43116875512949,-54.86379023798682,66.44699999998556
311890.3277,-47.09080018978935,-34.10822704708025,-52.01467040627007,-53.083459475771264,66.44800000003306
311890.3287,-48.41692950423103,-33.72532263278286,-47.960196879949365,-49.06439370971156,66.44900000002235
311890.3297,-48.19033287496987,-31.852597616227136,-42.505928788075344,-43.02302345406728,66.45000000001164
311890.3307,-46.52335111432266,-28.649371802712523,-35.93617857616576,-35.24786500492584,66.45100000000093
311890.3317,-43.579638531018986,-24.325646227578122,-28.57304809772703,-26.09063620649698,66.45199999999022
311890.3327,-39.570152799275974,-19.136068212157873,-20.766305414410876,-15.95460119542248,66.45300000003772
311890.3337,-34.746641515617775,-13.371453793325921,-12.88165830002073,-5.280424695332919,66.45400000002701
311890.3347,-29.392702948516554,-7.3480465663531405,-5.2877348467005785,5.470023037526155,66.4550000000163
311890.3357,-23.81268769592074,-1.3948760173862458,1.6577890110251567,15.831319922911208,66.45600000000559
311890.3367,-18.31888980752989,4.160250560144591,7.622362253273691,25.352887717558914,66.45699999999488
311890.3377,-13.21763437095346,9.005446200827805,12.312394168988943,33.617321709139745,66.45799999998417
311890.3387,-8.79498953767233,12.859355987381374,15.486067513449484,40.257798931457735,66.45900000003166
311890.3397,-5.302903473610769,15.48485796015668,16.964441422425217,44.97371122255834,66.46000000002095
311890.3407,-2.946583612980728,16.701038890093326,16.64020008232271,47.54372306815846,66.46100000001024
311890.3417,-1.8738940532684898,16.39269988183081,14.48349371597873,47.835558348988265,66.46199999999953
311890.3427,-2.1674486213617445,14.516771847828648,10.544451407714893,45.811970086817894,66.46299999998882
311890.3437,-3.8399280821268986,11.10519390268682,4.9521132178530465,41.532535052175334,66.46400000003632
311890.3447,-6.832960095966052,6.264016980549677,-2.09027833579788,35.15112985094587,66.46500000002561
311890.3457,-11.019683050860067,0.16872578102347585,-10.313482460456173,26.90917386891679,66.4660000000149
311890.3467,-16.21088531152969,-6.94399214229516,-19.393611615370645,17.12495285785203,66.46700000000419
311890.3477,-22.16438646442495,-14.787578077479703,-28.966094488593104,6.179550166097698,66.46799999999348
311890.3487,-28.59712346306733,-23.039388487236607,-38.641556360090206,-5.4999036137659605,66.46899999998277
311890.3497,-35.19923750094699,-31.356139717651562,-48.02280599059239,-17.458810121082557,66.47000000003027
311890.3507,-41.64933963170672,-39.390120229184475,-56.722052034356665,-29.23456973297556,66.47100000001956
311890.3517,-47.63007354201512,-46.80524773787627,-64.37746221881554,-40.37596182610552,66.47200000000885
311890.3527,-52.843096785778926,-53.292082056876446,-70.66822670132882,-50.461494964689905,66.47299999999814
311890.3537,-57.02266644984606,-58.58100000392341,-75.32739012425573,-59.115870838267206,66.47399999998743
311890.3547,-59.94713574885524,-62.452888316716596,-78.15186750828906,-66.02384467725182,66.47500000003492
311890.3557,-61.44783383606949,-64.7469013453617,-79.00924582395187,-70.94094399278173,66.47600000002421
311890.3567,-61.41499773150332,-65.36504610134114,-77.84118131181295,-73.70071257507512,66.4770000000135
311890.3577,-59.800635718795505,-64.27357968251334,-74.66341592091254,-74.21836151305226,66.4780000000028
311890.3587,-56.618407874017535,-61.50141440679998,-69.56263768737585,-72.49091682144812,66.47899999999208
311890.3597,-51.94079431319366,-57.13590678304163,-62.690583684048235,-68.59413838010886,66.47999999998137
311890.3607,-45.89397042743567,-51.316543376785006,-54.25591717472189,-62.676634141207906,66.48100000002887
311890.3617,-38.65090981065004,-44.22711978136411,-44.5144935696754,-54.951697567728495,66.48200000001816
311890.3627,-30.423283684884755,-36.08703377086883,-33.75865831538782,-45.68745029862588,66.48300000000745
311890.3637,-21.45271977068663,-27.142281592742584,-22.306194842108166,-35.1958763655419,66.48399999999674
311890.3647,-12.001928552482616,-17.65666417237045,-10.489468158090611,-23.821294010608803,66.48499999998603
311890.3657,-2.346110400584882,-7.903589503714313,1.3547999031013611,-11.928735497506327,66.48600000003353
311890.3667,7.235063611953962,1.84128601044399,12.89482062439347,0.10739351893101132,66.48700000002282
311890.3677,16.464735563470313,11.306483834163565,23.81193091088339,11.914111728789722,66.48800000001211
311890.3687,25.07537333313258,20.230241658378098,33.80765824938088,23.129957553315233,66.4890000000014
311890.3697,32.81458173676854,28.365319326675888,42.609738362803874,33.414310045199535,66.48999999999069
311890.3707,39.45035533660609,35.48329987557994,49.9772428792512,42.45592456918515,66.49100000003818
311890.3717,44.77594978260641,41.37863896683392,55.70501120907167,49.98070248025673,66.49200000002747
311890.3727,48.61453954732862,45.87269340148904,59.62757540595807,55.758711326995474,66.49300000001676
311890.3737,50.82378058886828,48.81789211837821,61.62272198923088,59.610439968901325,66.49400000000605
311890.3747,51.300314028623646,50.10210989872241,61.61475804442674,61.41221853810192,66.49499999999534
311890.3757,49.98414263900146,49.65317797443784,59.577451665015474,61.10066659875423,66.49599999998463
311890.3767,46.86269990513164,47.44333278095303,55.536512713027975,58.67596623956456,66.49700000003213
311890.3777,41.97432705301834,43.49328129444202,49.571383716165364,54.20370273379829,66.49800000002142
311890.3787,35.41079174446253,37.87546520193604,41.81603662589909,47.814985396933594,66.49900000001071
311890.3797,27.31843612500918,30.716050628770542,32.45843111998895,39.70456459919558,66.5
311890.3807,17.89754110468157,22.19516542113017,21.738292643142717,30.126703299783323,66.50099999998929
311890.3817,7.399543107783442,12.544957103768082,9.942917476904174,19.388644441094247,66.50200000003679
311890.3827,-3.878161222453748,2.0451509266654795,-2.5991931438402918,7.841635928003763,66.50300000002608
311890.3837,-15.599943361453139,-8.984057612140937,-15.526933474429017,-4.130374931203957,66.50400000001537
311890.3847,-27.40214806767485,-20.19174953822406,-28.457328364865763,-16.124097289409487,66.50500000000466
311890.3857,-38.905522859020586,-31.208429627671656,-40.99812460502288,-27.73185059197193,66.50599999999395
311890.3867,-49.729421217295595,-41.660120794024934,-52.761782946170015,-38.55750418998069,66.50699999998324
311890.3877,-59.507147506225756,-51.18375601324394,-63.38025657121212,-48.232658991459715,66.50800000003073
311890.3887,-67.90166454781524,-59.443059100501074,-72.5198177669818,-56.43223859623938,66.50900000002002
311890.3897,-74.62078753508452,-66.14400030404109,-79.89511881628866,-62.88862272590857,66.51000000000931
311890.3907,-79.43095197884651,-71.04887321703193,-85.28165543541081,-67.40348248351614,66.5109999999986
311890.3917,-82.16867517690169,-73.98807259702741,-88.52584631695566,-69.85656716368275,66.51199999998789
311890.3927,-82.74893101365556,-74.8687587806147,-89.55204995472374,-70.21084264213002,66.51300000003539
311890.3937,-81.16982159771207,-73.67976758642092,-88.3660039058138,-68.51358314696267,66.51400000002468
311890.3947,-77.5131456221741,-70.49235308567008,-85.05438093817521,-64.89325809273537,66.51500000001397
311890.3957,-71.94071698363338,-65.4566175995595,-79.78039595035442,-59.55231662528005,66.51600000000326
311890.3967,-64.68655928852759,-58.79376842130669,-72.77564912078238,-52.756235286762696,66.51699999999255
311890.3977,-56.04537172591216,-50.7846218976354,-64.32863511844671,-44.81943879164506,66.51799999998184
311890.3987,-46.357908602994904,-41.7550305405806,-54.770566388071224,-36.08891132114834,66.51900000002934
311890.3997,-35.99411948452963,-32.059117619905784,-44.459333460968686,-26.926469609232015,66.52000000001863
311890.4007,-25.33504348146584,-22.061349714019364,-33.762543281275136,-17.690757020529556,66.52100000000792
311890.4017,-14.754528544385042,-12.118549545267197,-23.040628568103262,-8.720032506469739,66.5219999999972
311890.4027,-4.601848941493947,-2.5629437079458186,-12.631003461537192,-0.3167682136819413,66.5229999999865
311890.4037,4.81377822267917,6.312746274756879,-2.8341549499975462,7.265061017604651,66.524000000034
311890.4047,13.235917253581531,14.26731825865976,6.097586880290325,13.82930401075137,66.52500000002328
311890.4057,20.47021598717455,21.119572726201028,13.968051828860258,19.24311987929883,66.52600000001257
311890.4067,26.38986081969073,26.75288345289494,20.641685796336585,23.43843339363458,66.52700000000186
311890.4077,30.937019334822523,31.115748347983033,26.04438290783417,26.409438748768324,66.52799999999115
311890.4087,34.120366522577584,34.218485157696946,30.16085479872792,28.20648926029531,66.52900000003865
311890.4097,36.009034063538884,36.12648546985818,33.028914891855116,28.92693616429385,66.53000000002794
311890.4107,36.72353059853861,36.95064788717528,34.7312346266156,28.703657401088986,66.53100000001723
311890.4117,36.42434079289167,36.835763431499345,35.38525857832882,27.692135734742163,66.53200000000652
311890.4127,35.29901350209499,35.947714593116416,35.13203912939583,26.0569987713198,66.53299999999581
311890.4137,33.548590823790484,34.46037116813688,34.12476674646873,23.958920914970037,66.5339999999851
311890.4147,31.374211851965708,32.54302412582766,32.51773185958649,21.542713880011213,66.5350000000326
311890.4157,28.964653812393347,30.349101369990393,30.456366135691216,18.92730748341447,66.53600000002189
311890.4167,26.485459026761255,28.00676864123263,28.068885403539912,16.198158969773612,66.53700000001118
311890.4177,24.070151486051234,25.611849858942346,25.459906740153293,13.402442067058422,66.53800000000047
311890.4187,21.813885585799266,23.223319917662668,22.706252342858548,10.547171963624665,66.53899999998976
311890.4197,19.7697054893182,20.861444821928078,19.85499643884716,7.600234266743102,66.54000000003725
311890.4207,17.94743890449372,18.50848261433665,16.92367060709663,4.494117538929653,66.54100000002654
311890.4217,16.315113585753906,16.111724283688933,13.90242679677431,1.132009995300312,66.54200000001583
311890.4227,14.802675242477084,13.588553349630716,10.757871930623764,-2.6041824375666947,66.54300000000512
311890.4237,13.307704904169563,10.833138570801385,7.438235495571748,-6.844404885298238,66.54399999999441
311890.4247,11.702781910918748,7.724344673508405,3.8795105511472947,-11.720145939925612,66.5449999999837
311890.4257,9.844112351366697,4.134446169881804,0.012214586065657168,-17.353786801421887,66.5460000000312
311890.4267,7.581036529850261,-0.06174827270070694,-4.231557291053976,-23.84811069335711,66.54700000002049
311890.4277,4.7660362208616025,-4.977717713951641,-8.911076515089123,-31.276428680540118,66.54800000000978
311890.4287,1.2648761705069278,-10.706313808927884,-14.070171211781869,-39.67372080794094,66.54899999999907
311890.4297,-3.0334715335098186,-17.311388923057898,-19.730874342309342,-49.029131775917804,66.54999999998836
311890.4307,-8.207461327681553,-24.82022068930294,-25.88771550130786,-59.28010379923699,66.55100000003586
311890.4317,-14.294502978039644,-33.216971489217684,-32.50282912425026,-70.30837922954764,66.55200000002515
311890.4327,-21.283722802210622,-42.43741867540977,-39.502052546157515,-81.93806275110316,66.55300000001444
311890.4337,-29.11029739111133,-52.3651972308346,-46.7721986215871,-93.93589577139257,66.55400000000373
311890.4347,-37.651698786276555,-62.82980473589472,-54.15970366425716,-106.01386018471305,66.55499999999302
311890.4357,-46.72617817866003,-73.60662085455374,-61.47086441956042,-117.834189726203,66.5559999999823
311890.4367,-56.09378506555913,-84.41918117708715,-68.47387874466943,-129.01681889545344,66.5570000000298
311890.4377,-65.46016368188975,-94.9439098543699,-74.90288497328254,-139.14923669764735,66.55800000001909
311890.4387,-74.48328356129106,-104.81745059750122,-80.46414748483996,-147.7986315983749,66.55900000000838
311890.4397,-82.78314437907265,-113.64663793090102,-84.84445648603962,-154.52611397913938,66.55999999999767
311890.4407,-89.95434859712535,-121.02102065606192,-87.72169794380989,-158.90268501359887,66.56099999998696
311890.4417,-95.5812647849796,-126.52769229861403,-88.77740886962492,-160.52649168235726,66.56200000003446
311890.4427,-99.25531976712092,-129.76800824915557,-87.71097211674747,-159.04077531694762,66.56300000002375
311890.4437,-100.59377233345806,-130.37558957606015,-84.25493592092697,-154.15179703206448,66.56400000001304
311890.4447,-99.25915095667216,-128.0348450758954,-78.19078204456126,-145.6459208101587,66.56500000000233
311890.4457,-94.97839959918333,-122.49910334259624,-69.36432962761553,-133.404967386068,66.56599999999162
311890.4467,-87.56068540744064,-113.60735236528917,-57.699866591664,-117.41893186423299,66.56699999998091
311890.4477,-76.91279360190033,-101.29855002325101,-43.21206150533202,-97.79519493751803,66.5680000000284
311890.4487,-63.05107782477093,-85.62250543275893,-26.014737136292226,-74.76345734005562,66.5690000000177
311890.4497,-46.10905283071519,-66.7464435388353,-6.325688025763187,-48.675790285618724,66.57000000000698
311890.4507,-26.339908623183565,-44.95655230445419,15.533102552539246,-20.00141590878022,66.57099999999627
311890.4517,-4.11348228492593,-20.654065170399274,39.14025362941127,10.683899821095629,66.57199999998556
311890.4527,20.09246907138753,5.6542635468177105,63.98490563876846,42.713659717057894,66.57300000003306
311890.4537,45.7065137285572,33.3710962220602,89.4815699347566,75.35116103162714,66.57400000002235
311890.4547,72.08278549837543,61.82832470809582,114.98938653359635,107.81394266620039,66.57500000001164
311890.4557,98.52437118139308,90.31089589525487,139.83496189279566,139.30109785637026,66.57600000000093
311890.4567,124.30971877549082,118.08350767557455,163.33769606763803,169.0221873876718,66.57699999999022
311890.4577,148.72072757039075,144.41882096533,184.83631186447488,196.2263530216535,66.57800000003772
311890.4587,171.07105358558255,168.6257077715835,203.71518505682488,220.23018150804396,66.57900000002701
311890.4597,190.73313209876852,190.07602775232084,219.42905527591253,240.4429124849285,66.5800000000163
311890.4607,207.16248720779112,208.22850042981526,231.5247752020176,256.3877178095779,66.58100000000559
311890.4617,219.91806253572295,222.64841309621036,239.65892658606262,267.7179973870224,66.58199999999488
311890.4627,228.67755576649563,233.02216348224349,243.61038323023837,274.2279228062775,66.58299999998417
311890.4637,233.2470544220624,239.16596244616986,243.28721457932832,275.8567950995164,66.58400000003166
311890.4647,233.56462769723657,241.02839087383592,238.72767528452732,272.68714296179127,66.58500000002095
311890.4657,229.6979025460687,238.686888890744,230.09538934686842,264.9368471859354,66.58600000001024
311890.4667,221.836013838947,232.3386255637054,217.66918494521585,252.94591044124073,66.58699999999953
311890.4677,210.27664184752376,222.28652607506928,201.82834220543896,237.15877563824736,66.58799999998882
311890.4687,195.40911260277804,208.92149709974615,183.03425919538276,218.10331182413822,66.58900000003632
311890.4697,177.6947201904936,192.7020716255046,161.8097051511196,196.367720262291,66.59000000002561
311890.4707,157.64552391611414,174.13278062282743,138.71690501923516,172.5766580928269,66.5910000000149
311890.4717,135.80287413977067,153.74254759762297,114.33568398351817,147.36783286961128,66.59200000000419
311890.4727,112.71683276851708,132.06429801201594,89.24280031755598,121.37019542328045,66.59299999999348
311890.4737,88.92748932859767,109.61679119153847,63.993421991290724,95.18466427868238,66.59399999998277
311890.4747,64.94894860203547,86.88943627609838,39.105474737530194,69.36807064876444,66.59500000003027
311890.4757,41.256502636047244,64.3305691423956,15.047328246848675,44.4207405690194,66.59600000001956
311890.4767,18.277222386420153,42.33936950788053,-7.770984006843081,20.777853149369783,66.59700000000885
311890.4777,-3.616063755355311,21.261312139386046,-29.00307432993928,-1.1955463354166904,66.59799999999814
311890.4787,-24.107673959831736,1.3867965176212746,-48.368328297347425,-21.206222872907695,66.59899999998743
311890.4797,-42.93931634916304,-17.047595510743925,-65.65131495748146,-39.031632349013755,66.60000000003492
311890.4807,-59.90825448001649,-33.855891408118985,-80.69906066178937,-54.51662862994924,66.60100000002421
311890.4817,-74.86403573566616,-48.89829872235731,-93.41681860335181,-67.56866023980734,66.6020000000135
311890.4827,-87.70441435048491,-62.07626353435503,-103.76295380383486,-78.15209650839584,66.6030000000028
311890.4837,-98.37103126933089,-73.32763779669428,-111.74349460497955,-86.28224383212857,66.60399999999208
311890.4847,-106.84529521974525,-82.62243663533093,-117.40678869431463,-92.01949048588298,66.60499999998137
311890.4857,-113.14475932696435,-89.95949144027462,-120.8385597710514,-95.4638695391331,66.60600000002887
311890.4867,-117.32012365567019,-95.36411443832358,-122.1575074164167,-96.75017176395039,66.60700000001816
311890.4877,-119.45283492581349,-98.88670612676997,-121.51144496480296,-96.04359168536185,66.60800000000745
311890.4887,-119.65311757973603,-100.6020776481007,-119.07384401946477,-93.53576592551453,66.60899999999674
311890.4897,-118.05816954649164,-100.60914178634788,-115.04056255162192,-89.44097617065832,66.60999999998603
311890.4907,-114.83020125556862,-99.03055989669723,-109.62648495747254,-83.99224741164232,66.61100000003353
311890.4917,-110.15399228855713,-96.01192316483788,-103.06180086424473,-77.43707843258146,66.61200000002282
311890.4927,-104.23368559902364,-91.72009446050258,-95.58769362165917,-70.0325934672108,66.61300000001211
311890.4937,-97.28862826556471,-86.34043514102895,-87.45129318735515,-62.03999426398233,66.6140000000014
311890.4947,-89.54818950710056,-80.07277779627917,-78.89986126003295,-53.71830922751953,66.61499999999069
311890.4957,-81.2456270317211,-73.12616555785105,-70.17430570587159,-45.31756674112331,66.61600000003818
311890.4967,-72.61121564377179,-65.71254341215288,-61.502251520614834,-37.071647757523934,66.61700000002747
311890.4977,-63.8649810502256,-58.039738686886956,-53.091011521415076,-29.19118299707817,66.61800000001676
311890.4987,-55.20948199899732,-50.3041896169627,-45.12088772709985,-21.856939049791457,66.61900000000605
311890.4997,-46.82314311735224,-42.68395877379852,-37.73928271916568,-15.214174835712596,66.61999999999534
311890.5007,-38.85465103768116,-35.332592711268155,-31.056101771597966,-9.368438849839356,66.62099999998463
311890.5017,-31.41888443573356,-28.374356350346705,-25.14087840943815,-4.383216803704527,66.62200000003213
311890.5027,-24.59475655148584,-21.901282085287132,-20.021960491710715,-0.27973209183660364,66.62300000002142
311890.5037,-18.42521381289643,-15.972336690906713,-15.687957956478101,2.960943858618279,66.62400000001071
311890.5047,-12.919468004672096,-10.614836155513977,-12.091488318380833,5.393485605038396,66.625
311890.5057,-8.057357069619503,-5.828045663492088,-9.155076412208434,7.101808368293413,66.62599999998929
311890.5067,-3.7955481032658347,-1.5887074489899533,-6.778887136476078,8.190835715816803,66.62700000003679
311890.5077,-0.07513271193661358,2.1419380734283964,-4.849810755291221,8.777065973416308,66.62800000002608
311890.5087,3.169964438001375,5.41021523930041,-3.2512949861283094,8.978578836924687,66.62900000001537
311890.5097,6.004425415452742,8.261831378383139,-1.8732390579706846,8.905189980730468,66.63000000000466
311890.5107,8.483515434477564,10.734156996435818,-0.6212404362452185,8.649470964083248,66.63099999999395
311890.5117,10.646251764650165,12.849647148121345,0.575481751523393,8.279302173503316,66.63199999998324
311890.5127,12.510331563203966,14.610994875274676,1.7580734565032743,7.832521089743493,66.63300000003073
311890.5137,14.069245886171965,15.998465694670758,2.9343918198221415,7.314075161081065,66.63400000002002
311890.5147,15.29183028399547,16.969679244573808,4.077985247744967,6.695900701582434,66.63500000000931
311890.5157,16.124303328662407,17.46189667354601,5.129785379361117,5.919542376095522,66.6359999999986
311890.5167,16.49464061635475,17.3966587425815,6.002386879223445,4.901319503277034,66.63699999998789
311890.5177,16.318941024190654,16.68641893591703,6.586600615663144,3.539653135910475,66.63800000003539
311890.5187,15.509280707875716,15.242645829154121,6.759802643322558,1.7240075879407888,66.63900000002468
311890.5197,13.982432088115454,12.984744271395293,6.3954783365429115,-0.655215350004491,66.64000000001397
311890.5207,11.668759399235944,9.849076032613336,5.373286985732826,-3.6965531113397683,66.64100000000326
311890.5217,8.520593907945146,5.797352687076254,3.5889515613463816,-7.477857982097618,66.64199999999255
311890.5227,4.519440110328677,0.8237263018373129,0.9633107415697149,-12.047847864388096,66.64299999998184
311890.5237,-0.3185364691793855,-5.03998881224838,-2.5500493217373226,-17.419406424238836,66.64400000002934
311890.5247,-5.939148727330372,-11.721378025607926,-6.95904658636364,-23.56506495016033,66.64500000001863
311890.5257,-12.249195008795473,-19.107004677727417,-12.229554466578685,-30.414929609281156,66.64600000000792
311890.5267,-19.117892718144113,-27.04454185708558,-18.28420892004385,-37.8571374246021,66.6469999999972
311890.5277,-26.380619120754943,-35.34730296510902,-25.003566825523542,-45.740747511109525,66.6479999999865
311890.5287,-33.84467922591953,-43.80084453219565,-32.229463578176606,-53.880815103180346,66.649000000034
311890.5297,-41.296690162943406,-52.17117683376618,-39.770293696783966,-62.06526654170785,66.65000000002328
311890.5307,-48.51108045761279,-60.21402412396416,-47.407845347055826,-70.06310221774896,66.65100000001257
311890.5317,-55.25915637118323,-67.68453262475423,-54.90526234914091,-77.63340612073249,66.65200000000186
311890.5327,-61.318186991974834,-74.34683183464054,-62.01568619188223,-84.53463561012924,66.65299999999115
311890.5337,-66.48000193244607,-79.98290958701138,-68.49114319524793,-90.53369986818282,66.65400000003865
311890.5347,-70.55867347665789,-84.4003557234095,-74.09128277754135,-95.41440334462855,66.65500000002794
311890.5357,-73.39695917242943,-87.43865207568581,-78.59163424263645,-98.98492195960375,66.65600000001723
311890.5367,-74.87129966366375,-88.9738243702556,-81.79112287619431,-101.08408396324843,66.65700000000652
311890.5377,-74.89528783713283,-88.92141059661436,-83.51866249169021,-101.5863328722686,66.65799999999581
311890.5387,-73.4216374631221,-87.23782685326627,-83.63871268462412,-100.40534630922492,66.6589999999851
311890.5397,-70.44277242481743,-83.9203141505259,-82.0557482636421,-97.49636317001561,66.6600000000326
311890.5407,-65.9902239125194,-79.00571958958068,-78.71763112413586,-92.85732629491824,66.66100000002189
311890.5417,-60.1330584063742,-72.56839805095886,-73.61789925703147,-86.52897586443503,66.66200000001118
311890.5427,-52.975563277393576,-64.71751554456097,-66.79699434090712,-78.59403062095687,66.66300000000047
311890.5437,-44.654392362539504,-55.59399643452117,-58.34244161285501,-69.17557349425367,66.66399999998976
311890.5447,-35.335327050105334,-45.367291330300695,-48.38797861612878,-58.43472174648104,66.66500000003725
311890.5457,-25.209747816758036,-34.23206087492573,-37.1116094486129,-46.56761768204216,66.66600000002654
311890.5467,-14.490846787747103,-22.404784992482526,-24.732545209557422,-33.80173343942121,66.66700000001583
311890.5477,-3.4095540099237125,-10.120229723171532,-11.50698593876966,-20.39145121942585,66.66800000000512
311890.5487,7.7898919429543465,2.372354181208355,2.2772903649780583,-6.612865895240919,66.66899999999441
311890.5497,18.85481739105581,14.8134563592414,16.30753691171422,7.242234694627647,66.6699999999837
311890.5507,29.52951088570383,26.93810699278474,30.25380207578582,20.873223380869693,66.6710000000312
311890.5517,39.561187577396225,38.48136421589342,43.77773860900294,33.97827640350814,66.67200000002049
311890.5527,48.70650145908633,49.184529806787154,56.54226964963236,46.26268533564603,66.67300000000978
311890.5537,56.73850483103479,58.80203806880717,68.22183824068472,57.447632015122906,66.67399999999907
311890.5547,63.45386271509808,67.10885220564167,78.51288486095577,67.27913248066594,66.67499999998836
311890.5557,68.6800392205281,73.90809018327185,87.14412715237503,75.5367771365949,66.67600000003586
311890.5567,72.28209477914717,79.03850177847092,93.88616669103118,82.04183518370343,66.67700000002515
311890.5577,74.16867892884166,82.38134346841244,98.55992723671399,86.66426102556767,66.67800000001444
311890.5587,74.2967823268554,83.86615928740125,101.04344329193847,89.32814584695308,66.67900000000373
311890.5597,72.67483039220298,83.47498178769104,101.27657009220638,90.01520266125587,66.67999999999302
311890.5607,69.36376210769113,81.24452157265831,99.2632761063338,88.7659579166575,66.6809999999823
311890.5617,64.47583947638947,77.26601546269363,95.07130297231706,85.67844338431556,66.6820000000298
311890.5627,58.17106997501086,71.68254617412884,88.82912828553495,80.904330897569,66.68300000001909
311890.5637,50.65128610273087,64.68381979514957,80.72033348522693,74.64261868067351,66.68400000000838
311890.5647,42.15209955864618,56.49857691786538,70.975649604966,67.13114820293588,66.68499999999767
311890.5657,32.93311735315223,47.38500211806192,59.86311387619496,58.636390141003126,66.68599999998696
311890.5667,23.266957240837403,37.61966672960851,47.67690598614712,49.442072581537765,66.68700000003446
311890.5677,13.427715118997899,27.48567453994962,34.72553127617733,39.83732092195164,66.68800000002375
311890.5687,3.6796047922762924,17.260764723470956,21.320068919724932,30.105026655048103,66.68900000001304
311890.5697,-5.7334980579476715,7.206150764918051,7.763199412310211,20.511154873564767,66.69000000000233
311890.5707,-14.596924644701467,-2.443166616869162,-5.660334639022178,11.295636130928886,66.69099999999162
311890.5717,-22.731918933511267,-11.485979342080773,-18.691294577729316,2.665370574481492,66.69199999998091
311890.5727,-29.99976378660876,-19.75987306737646,-31.101158830186666,-5.210290634668408,66.6930000000284
311890.5737,-36.30310867778983,-27.143383535057225,-42.69479694684304,-12.201416924484953,66.6940000000177
311890.5747,-41.584501329795785,-33.555274401183446,-53.31062964112225,-18.216764846250374,66.69500000000698
311890.5757,-45.82235082917657,-38.951141244947635,-62.818510692616954,-23.20069119058061,66.69599999999627
311890.5767,-49.0247593791353,-43.31776980971379,-71.1157582148798,-27.12815372454628,66.69699999998556
311890.5777,-51.221835053459365,-46.665864275859796,-78.12191776621313,-29.998392473532274,66.69800000003306
311890.5787,-52.45722258640793,-49.02189592299224,-83.77294341825156,-31.827984663487673,66.69900000002235
311890.5797,-52.77965144579137,-50.41989088643434,-88.01552477896638,-32.64400510010962,66.70000000001164
311890.5807,-52.235293614957065,-50.893970697120224,-90.80226303849314,-32.47799641400935,66.70100000000093
311890.5817,-50.86164711483718,-50.47238038123703,-92.0883082791288,-31.36136166718233,66.70199999999022
311890.5827,-48.68352096890093,-49.17359231503082,-91.82992050892535,-29.322642618604505,66.70300000003772
311890.5837,-45.71150445681172,-47.00487228617519,-89.98522062263412,-26.386953159394857,66.70400000002701
311890.5847,-41.94307435079901,-43.96345500944845,-86.51717176017559,-22.57761601712591,66.7050000000163
311890.5857,-37.36624806283315,-40.040221009979675,-81.39859636757355,-17.919821574442928,66.70600000000559
311890.5867,-31.965449669118286,-35.225518351393205,-74.6188109867868,-12.445911375960746,66.70699999999488
311890.5877,-25.72904089204433,-29.51655378046662,-66.19127006768237,-6.2017055914927095,66.70799999998417
311890.5887,-18.65779953769823,-22.925608642612783,-56.161469999776166,0.7468393387449533,66.70900000003166
311890.5897,-10.773519066178027,-15.488231220849528,-44.614288930037375,8.30742642693017,66.71000000002095
311890.5907,-2.126865190190336,-7.270528998420038,-31.679935002213938,16.356449806163468,66.71100000001024
311890.5917,7.196337196511066,1.6252649473945755,-17.537747251449005,24.735971967146735,66.71199999999953
311890.5927,17.071103249313673,11.057651365794996,-2.417234711800039,33.25321640783672,66.71299999998882
311890.5937,27.33211577189368,20.84565944039736,13.404060700809673,41.68295006247136,66.71400000003632
311890.5947,37.77569938906873,30.771846823546063,29.606049599071678,49.77289480554326,66.71500000002561
311890.5957,48.16500446919377,40.58850809994128,45.834836308528956,57.252052344887424,66.7160000000149
311890.5967,58.238199365177856,50.026822277567476,61.71435868482365,63.84157346381263,66.71700000000419
311890.5977,67.71921768723504,58.80841571345919,76.86032705141373,69.26757237453396,66.71799999999348
311890.5987,76.33038949398777,66.65860269621834,90.89566306100488,73.27509957604411,66.71899999998277
311890.5997,83.80611987741611,73.32041003478578,103.46649912521667,75.6423582041928,66.72000000003027
311890.6007,89.90667932021526,78.56840769529347,114.25773023311706,76.19419064624476,66.72100000001956
311890.6017,94.4311456274377,82.22136185173426,123.00711828847679,74.81387953136807,66.72200000000885
311890.6027,97.2285889849628,84.15279997102479,129.51703386727172,71.45239915536284,66.72299999999814
311890.6037,98.20671504741405,84.29872328660419,133.66307449544075,66.13441278783422,66.72399999998743
311890.6047,97.33736509862662,82.66190764032223,135.39900942802151,58.9605253968098,66.72500000003492
311890.6057,94.65850137586133,79.31248163344034,134.75775117385547,50.10555290758331,66.72600000002421
311890.6067,90.27256011527714,74.38474040231152,131.8483233421679,39.812838046403314,66.7270000000135
311890.6077,84.34131345037032,68.07042172861095,126.84906125837591,28.38490778560942,66.7280000000028
311890.6087,77.07762277603891,60.608916742138966,119.99752533871794,16.1710077571428,66.72899999999208
311890.6097,68.73467137491372,52.27509075849896,111.577809011938,3.5522465235940666,66.72999999998137
311890.6107,59.593417450511026,43.365535505447035,101.90606860787362,-9.07477696950329,66.73100000002887
311890.6117,49.94909964169431,34.18415218294457,91.31518281422021,-21.31491525915468,66.73200000001816
311890.6127,40.09765078373674,25.027971623685392,80.13946055093534,-32.791031547113526,66.73300000000745
311890.6137,30.322833322056606,16.174055685883527,68.70026086181915,-43.15928691505469,66.73399999999674
311890.6147,20.88480825991753,7.868201181749924,57.29327460326286,-52.12238828524053,66.73499999998603
311890.6157,12.010700576368398,0.3159973029112604,46.17805782665646,-59.44019858189941,66.73600000003353
311890.6167,3.887543031683698,-6.323413613158055,35.57021657706929,-64.93731018425152,66.73700000002282
311890.6177,-3.342215421447951,-11.940735368030936,25.636439840282964,-68.50739565073684,66.73800000001211
311890.6187,-9.582643031116435,-16.477147182223096,16.492379066152793,-70.11435805356345,66.7390000000014
311890.6197,-14.783879971381372,-19.922415556466536,8.20319499765361,-69.79049076997786,66.73999999999069
311890.6207,-18.93963389269785,-22.310885925464476,0.7864483708676966,-67.63200977747265,66.74100000003818
311890.6217,-22.08303294003793,-23.715848128675233,-5.783090710825942,-63.79243090515404,66.74200000002747
311890.6227,-24.281302288107497,-24.242814012932868,-11.567195121547815,-58.474325267015566,66.74300000001676
311890.6237,-25.62973200232602,-24.022237881076986,-16.656984501392113,-51.919998290651776,66.74400000000605
311890.6247,-26.245363041040548,-23.20215672465504,-21.16523891293455,-44.40160603917625,66.74499999999534
311890.6257,-26.260743468119134,-21.941137267702516,-25.218617838627374,-36.21115553644674,66.74599999998463
311890.6267,-25.818010447392457,-20.40180398771304,-28.95009696228565,-27.650745068793082,66.74700000003213
311890.6277,-25.06344895076333,-18.745101312870922,-32.49184483105775,-19.02329903791776,66.74800000002142
311890.6287,-24.142579002324368,-17.125328981869735,-35.968676274231996,-10.623953068582534,66.74900000001071
311890.6297,-23.195741902748242,-15.685895342699649,-39.492150044857105,-2.7321605668794824,66.75
311890.6307,-22.354101603147644,-14.555669353013025,-43.155332247240246,4.395469032220787,66.75099999998929
311890.6317,-21.73595573360313,-13.845784265572897,-47.02822856587267,10.531621949957888,66.75200000003679
311890.6327,-21.443262793125303,-13.646755691359486,-51.15389671553325,15.484044738837689,66.75300000002608
311890.6337,-21.558334202588796,-14.02582031548745,-55.54528134786049,19.10061898671594,66.75400000001537
311890.6347,-22.140704768964838,-15.024470994135962,-60.18285882504889,21.273696460790454,66.75500000000466
311890.6357,-23.224271938503012,-16.656247884802657,-65.01322831120248,21.943587685202722,66.75599999999395
311890.6367,-24.814870544899833,-18.904930252066546,-69.94882698089371,21.101040279121,66.75699999998324
311890.6377,-26.888512821323992,-21.723345861959515,-74.86896972059509,18.78849925203244,66.75800000003073
311890.6387,-29.390561767096486,-25.033061938459962,-79.62240839034521,15.09992038581492,66.75900000002002
311890.6397,-32.23611078028267,-28.725233833798697,-84.03156665985797,10.178917732198663,66.76000000000931
311890.6407,-35.31180885995861,-32.66285921774754,-87.89853193778043,4.215071339313127,66.7609999999986
311890.6417,-38.47929824444827,-36.68461586709855,-91.0127788760936,-2.5616985086050326,66.76199999998789
311890.6427,-41.58032439512485,-40.61035420272598,-93.16046676064268,-9.888673564072299,66.76300000003539
311890.6437,-44.44344545010777,-44.2481804427094,-94.13500709014191,-17.479646883881614,66.76400000002468
311890.6447,-46.89212190992935,-47.40291533422867,-93.74845190815932,-25.035707111727362,66.76500000001397
311890.6457,-48.75382196924169,-49.88556218831767,-91.84312347590036,-32.2570674106704,66.76600000000326
311890.6467,-49.86964900750815,-51.523282659239285,-88.30280689679832,-38.85538896288084,66.76699999999255
311890.6477,-50.10389994989,-52.16927494835486,-83.06277264885415,-44.565961541446704,66.76799999998184
311890.6487,-49.352908802815385,-51.711890029453556,-76.11789553412936,-49.15905974658079,66.76900000002934
311890.6497,-47.55252722851274,-50.082316377282766,-67.52819556348751,-52.449800583819815,66.77000000001863
311890.6507,-44.683647383699785,-47.26021685996934,-57.421244608726255,-54.30588904719471,66.77100000000792
311890.6517,-40.77527995840888,-43.27681169069849,-45.99105450709861,-54.6527511214265,66.7719999999972
311890.6527,-35.90485565164139,-38.21506177499341,-33.493276657637324,-53.4757110239835,66.7729999999865
311890.6537,-30.195609653441693,-32.206805496392974,-20.236784576126343,-50.819060044391755,66.774000000034
311890.6547,-23.811120709538905,-25.42692295824211,-6.571960878439412,-46.78207306464626,66.77500000002328
311890.6557,-16.94729125039393,-18.084826337224808,7.123751197847122,-41.51223875086626,66.77600000001257
311890.6567,-9.822254315680885,-10.41378380737072,20.462263954925373,-35.1961629641386,66.77700000000186
311890.6577,-2.664858984825744,-2.6587588870314836,33.06230214356831,-28.048765709637323,66.77799999999115
311890.6587,4.297496291166672,4.936428865573669,44.56687696125677,-20.30150609123792,66.77900000003865
311890.6597,10.850854698273606,12.141753878117914,54.65972827561682,-12.190427304311394,66.78000000002794
311890.6607,16.8056955886158,18.75258390691772,63.07973595505689,-3.944809523153607,66.78100000001723
311890.6617,22.006184293491245,24.599442879303016,69.63242334915856,4.222847243896877,66.78200000000652
311890.6627,26.337061833432696,29.555290555555775,74.19786219523957,12.124910200041997,66.78299999999581
311890.6637,29.727741586645042,33.53986389838876,76.73452503145664,19.60433836151825,66.7839999999851
311890.6647,32.1533969689491,36.52085324608344,77.2789009690013,26.537811710029683,66.7850000000326
311890.6657,33.633057572855904,38.511932134406756,75.94097311306375,32.83624575262367,66.78600000002189
311890.6667,34.22496136616141,39.56790216254948,72.8959296409559,38.44288244934217,66.78700000001118
311890.6677,34.01961803951483,39.777433097782804,68.37272480039145,43.329336899463804,66.78800000000047
311890.6687,33.13120593553389,39.25405492524967,62.640302450801336,47.49012997200907,66.78899999998976
311890.6697,31.688038201590608,38.1261779119707,55.99242862201845,50.93633764172107,66.79000000003725
311890.6707,29.822883642582237,36.52696912504917,48.73214131266786,53.68903007258789,66.79100000002654
311890.6717,27.663910544074508,34.584895297173325,41.15681161655403,55.77315463797112,66.79200000001583
311890.6727,25.326939733493248,32.41565482337811,33.544722606850456,57.21243973129334,66.79300000000512
311890.6737,22.909554295291557,30.116074430866277,26.143919524729647,58.02576830037345,66.79399999999441
311890.6747,20.487430585088347,27.760352425897004,19.163880253777002,58.22530394544172,66.7949999999837
311890.6757,18.11304523519547,25.398808180746524,12.77031644909427,57.81646394474803,66.7960000000312
311890.6767,15.81669473839653,23.059066904035973,7.083163252781868,56.79964042838654,66.79700000002049
311890.6777,13.609557540653014,20.74939055577296,2.177570344778335,55.17339113267732,66.79800000000978
311890.6787,11.48835178127942,18.46367954603109,-1.9125107200198306,52.93867141988683,66.79899999999907
311890.6797,9.441010470371129,16.187532058628467,-5.1887208947658,50.10357337371702,66.79999999998836
311890.6807,7.4527213419569405,13.904670397224946,-7.681362578707645,46.68798550220717,66.80100000003586
311890.6817,5.511666984055245,11.60303298388365,-9.441884656781248,42.72759262075714,66.80200000002515
311890.6827,3.613852455101803,9.279886700756247,-10.535505763424753,38.27669913285949,66.80300000001444
311890.6837,1.7665169625025385,6.945431121945605,-11.034614429498927,33.409474061878015,66.80400000000373
311890.6847,-0.010217517087539714,4.624532164899317,-11.013447077538313,28.219371833872085,66.80499999999302
311890.6857,-1.6836197366805923,2.3564215538434325,-10.544367515562334,22.816664099870355,66.8059999999823
311890.6867,-3.210502206433884,0.19241090485543405,-9.695872690191928,17.324207406915,66.8070000000298
311890.6877,-4.541015386160417,-1.8081253969118163,-8.532248791658823,11.871750940836483,66.80800000001909
311890.6887,-5.62367373874474,-3.5830659993909157,-7.114619032106262,6.589240330443716,66.80900000000838
311890.6897,-6.411074859734471,-5.073590549143349,-5.502977223499281,1.5996825773931211,66.80999999999767
311890.6907,-6.865697558345098,-6.23031677395849,-3.758703641999188,-2.9878074978576232,66.81099999998696
311890.6917,-6.965151028312726,-7.018872054715772,-1.9470205022939788,-7.084163251465913,66.81200000003446
311890.6927,-6.706296573593088,-7.4242993362343395,-0.13886666601831388,-10.625172763987004,66.81300000002375
311890.6937,-6.1077709953296235,-7.453812326744242,1.5882482624267718,-13.574502246759067,66.81400000001304
311890.6947,-5.210596154122209,-7.1375791623634015,3.1507206696081624,-15.924663677621048,66.81500000000233
311890.6957,-4.076747042682392,-6.527410616827205,4.4608060765497015,-17.69584243213144,66.81599999999162
311890.6967,-2.78575227601526,-5.693438733777937,5.430012253384115,-18.932698003295478,66.81699999998091
311890.6977,-1.4295961061036577,-4.719073308163477,5.97371582396296,-19.699437722540097,66.8180000000284
311890.6987,-0.10636033176109949,-3.694696582600777,6.0166269240666574,-20.073621188573423,66.8190000000177
311890.6997,1.0868292160853117,-2.710683347785466,5.498605513199021,-20.139266175386645,66.82000000000698
311890.7007,2.060916301558245,-1.8504014959100274,4.380262925356655,-19.97988387156597,66.82099999999627
311890.7017,2.741444861266224,-1.1838501222705382,2.6477708522176937,-19.672066789642887,66.82199999998556
311890.7027,3.073919029224672,-0.7625283766311721,0.3163487784973296,-19.280187228960393,66.82300000003306
311890.7037,3.0275185270943825,-0.6160050620275938,-2.5679947114899377,-18.852644659290714,66.82400000002235
311890.7047,2.596854874580486,-0.7504891735354724,-5.9287417602199435,-18.41993922622638,66.82500000001164
311890.7057,1.8016431917004951,-1.1495026322335127,-9.661261495394697,-17.99466240940214,66.82600000000093
311890.7067,0.6843641400493419,-1.7765488041269246,-13.637226301914882,-17.57330381760095,66.82699999999022
311890.7077,-0.6938194957477933,-2.5794752035655484,-17.7107672339291,-17.13959476722058,66.82800000003772
311890.7087,-2.2584660667972623,-3.4960658550983044,-21.725928917601557,-16.668962648552302,66.82900000002701
311890.7097,-3.9280365162797963,-4.460284451816071,-25.524866847995725,-16.133569654843644,66.8300000000163
311890.7107,-5.620252331772286,-5.408534896583015,-28.956165157971565,-15.507364807699481,66.83100000000559
311890.7117,-7.2580295661683065,-6.285316002425562,-31.882646567783567,-14.770593071538048,66.83199999999488
311890.7127,-8.774450009244129,-7.047720342524604,-34.188098183445646,-13.913277274914075,66.83299999998417
311890.7137,-10.116345083848149,-7.66835535309608,-35.78244114431892,-12.937309330564233,66.83400000003166
311890.7147,-11.246222962217624,-8.136434195569581,-36.605017781134684,-11.85694382323904,66.83500000002095
311890.7157,-12.142448285074803,-8.456976958751694,-36.625842044668346,-10.697662961878965,66.83600000001024
311890.7167,-12.797768105797338,-8.648259748071004,-35.8448403649946,-9.493559036988758,66.83699999999953
311890.7177,-13.216448451020458,-8.737830157789283,-34.28928318871868,-8.283540916757872,66.83799999998882
311890.7187,-13.41042606505434,-8.757554509300226,-32.00975588559096,-7.1067987306553455,66.83900000003632
311890.7197,-13.394975754385863,-8.738260651130242,-29.075128032953074,-5.998043181620578,66.84000000002561
311890.7207,-13.18443622607343,-8.704580636467933,-25.567042868226995,-4.983064991840015,66.8410000000149
311890.7217,-12.788522863254563,-8.670576642115206,-21.574459396827958,-4.075133237659738,66.84200000000419
311890.7227,-12.209686663856006,-8.636653578009431,-17.188738849174445,-3.2726716567715974,66.84299999999348
311890.7237,-11.441862126293207,-8.588131211000842,-12.499680413048704,-2.558527409374462,66.84399999998277
311890.7247,-10.470795266264977,-8.49568039231754,-7.592788189259571,-1.9009894962064258,66.84500000003027
311890.7257,-9.27597152172127,-8.317638750524095,-2.547905088650016,-1.2565393635144726,66.84600000001956
311890.7267,-7.8339891044737815,-8.004029480858293,2.5608052426583066,-0.574140992879987,66.84700000000885
311890.7277,-6.123063514612041,-7.501931213052168,7.6636951063292384,0.1992812235647177,66.84799999999814
311890.7287,-4.128219031607546,-6.761704299668228,12.693581158815377,1.1126560899642395,66.84899999998743
311890.7297,-1.846635634749862,-5.743482929014585,17.583190838965677,2.2044338972763695,66.85000000003492
311890.7307,0.7074165389861705,-4.423302430937886,22.262544312180978,3.4967047923675976,66.85100000002421
311890.7317,3.498604824041137,-2.7982508776899553,26.65671410852665,4.990339792845484,66.8520000000135
311890.7327,6.468002076964334,-0.8901117757031014,30.684362809657014,6.661651004856733,66.8530000000028
311890.7337,9.53235577201162,1.2529070050191053,34.25737536136463,8.460945187802858,66.85399999999208
311890.7347,12.585365600458662,3.5565959996168295,37.281785495325416,10.313187075238803,66.85499999998137
311890.7357,15.501002690984075,5.923366779303715,39.66005722426383,12.120810145384958,66.85600000002887
311890.7367,18.13872425410984,8.236927796969374,41.29463639464786,13.768529078455531,66.85700000001816
311890.7377,20.35026973110691,10.368685134947501,42.09254848980958,15.129836541060989,66.85800000000745
311890.7387,21.9875837256562,12.185388120544458,41.97070113721146,16.074722586137284,66.85899999999674
311890.7397,22.9113097451521,13.55743178491439,40.8614647677304,16.478050577053896,66.85999999998603
311890.7407,22.99924583158083,14.367173358484626,38.71806093142784,16.22796803312812,66.86100000003353
311890.7417,22.154152620748267,14.51662272187659,35.51928905052977,15.233728434848539,66.86200000002282
311890.7427,20.310355380942976,13.933925754175108,31.273168488854285,13.43235017321078,66.86300000001211
311890.7437,17.438678534925582,12.578168332980624,26.019158877281605,10.793636064578626,66.8640000000014
311890.7447,13.54938434323795,10.442176271800973,19.828738884222613,7.323211619306302,66.86499999999069
311890.7457,8.692944033058524,7.553158260321055,12.804260317520205,3.0633998395980058,66.86600000003818
311890.7467,2.9586351387922663,3.9712185038295975,5.0761371128210016,-1.9080798615100483,66.86700000002747
311890.7477,-3.5288817132832118,-0.21406346537995297,-3.201436424398668,-7.4814360543682215,66.86800000001676
311890.7487,-10.614713702662561,-4.88864181148547,-11.855929585048937,-13.519854458500715,66.86900000000605
311890.7497,-18.120213162959725,-9.920148653158007,-20.702689845060913,-19.86585833642333,66.86999999999534
311890.7507,-25.850311180366457,-15.164656033183647,-29.551491741553203,-26.3484913232589,66.87099999998463
311890.7517,-33.60121176206238,-20.473523986020577,-38.21298046644559,-32.79080329372584,66.87200000003213
311890.7527,-41.1679687485898,-25.69983807645211,-46.50460789471185,-39.01713458406895,66.87300000002142
311890.7537,-48.351524582043176,-30.704018388748114,-54.25573155449816,-44.85975046233351,66.87400000001071
311890.7547,-54.96487826798129,-35.35829465353336,-61.311646870127724,-50.16446900879826,66.875
311890.7557,-60.83815891817359,-39.54987645195573,-67.53643886564645,-54.79504141722494,66.87599999998929
311890.7567,-65.82249911176201,-43.18278893299314,-72.81465903364253,-58.63617211124954,66.87700000003679
311890.7577,-69.79271662489536,-46.178478618925325,-77.05194379242343,-61.595194181527646,66.87800000002608
311890.7587,-72.64891244124769,-48.47540720845315,-80.17478160651628,-63.602531147031456,66.87900000001537
311890.7597,-74.31716801125201,-50.02793284580904,-82.12969749662369,-64.61116822600079,66.88000000000466
311890.7607,-74.74956907665756,-50.80482067928367,-82.88215060544434,-64.59541711485807,66.88099999999395
311890.7617,-73.92379416400759,-50.78772450244506,-82.4154307791639,-63.54928306148646,66.88199999998324
311890.7627,-71.8424839816284,-49.96994019371167,-80.72979576549334,-61.48473093962901,66.88300000003073
311890.7637,-68.53255792239096,-48.355655215309625,-77.84201729348604,-58.430101086918775,66.88400000002002
311890.7647,-64.0445732144391,-45.95981597739208,-73.78541071924884,-54.42885235485189,66.88500000000931
311890.7657,-58.452140697722136,-42.808618497033855,-68.61031994905568,-49.5387184110867,66.8859999999986
311890.7667,-51.85132957206663,-38.94051099389616,-62.384928823243555,-43.8312648975668,66.88699999998789
311890.7677,-44.359922532248625,-34.40749338973152,-55.196183650169374,-37.39174126419983,66.88800000003539
311890.7687,-36.116332019210006,-29.276420254297303,-47.150549274045886,-30.319043042001443,66.88900000002468
311890.7697,-27.277965168974614,-23.62997006197913,-38.374290635127224,-22.725547310805858,66.89000000001397
311890.7707,-18.018833703195945,-17.566940572820606,-29.01297769553563,-14.736562763067017,66.89100000000326
311890.7717,-8.526246266533077,-11.201569389923925,-19.22995464733337,-6.4891492942114,66.89199999999255
311890.7727,1.0035082212983566,-4.661657528504238,-9.203591526245797,1.8698900200446196,66.89299999998184
311890.7737,10.37048290101531,1.914614745977072,0.8767587227596182,10.186963523732352,66.89400000002934
311890.7747,19.37728820331974,8.383156923403302,10.81605138761377,18.305610148554997,66.89500000001863
311890.7757,27.83597375876674,14.599556363097763,20.419912735488513,26.0712874159837,66.89600000000792
311890.7767,35.57524520148409,20.425482055671825,29.501772970778116,33.33681778038672,66.8969999999972
311890.7777,42.44759795550767,25.735482318826087,37.89036106742424,39.96817930703855,66.8979999999865
311890.7787,48.3358937379104,30.4236689276615,45.43707521392244,45.85024608066157,66.899000000034
311890.7797,53.15888695221314,34.40973723037946,52.022702645084166,50.89203595063269,66.90000000002328
311890.7807,56.87523225527736,37.6437783616463,57.562966456971395,55.03101531605943,66.90100000001257
311890.7817,59.48557249045965,40.109397956980125,62.01242669024064,58.23604607975072,66.90200000000186
311890.7827,61.03241498375243,41.82476317567046,65.36635652994894,60.50863795498548,66.90299999999115
311890.7837,61.59764702364083,42.841348962617325,67.66034586670925,61.88228502998317,66.90400000003865
311890.7847,61.297707781480604,43.24033365836292,68.96754399815696,62.41980995648614,66.90500000002794
311890.7857,60.276610821848415,43.12678830536208,69.3936283073895,62.208800158766806,66.90600000001723
311890.7867,58.69718388263712,42.62199625842262,69.06976184498699,61.35538371675697,66.90700000000652
311890.7877,56.731045585322654,41.85441244337799,68.14396475008454,59.97674289240669,66.90799999999581
311890.7887,54.54795800169883,40.94990841051482,66.77145800132456,58.1928861134507,66.9089999999851
311890.7897,52.3052677652588,40.022036509531326,65.1046308007875,56.118282163409546,66.9100000000326
311890.7907,50.13816844052366,39.16307447555219,63.28332594396406,53.85399427174265,66.91100000002189
311890.7917,48.15147935906025,38.436575973319066,61.42612597721768,51.48093199898268,66.91200000001118
311890.7927,46.41354223332986,37.87205436682564,59.62325666512478,49.05476539089128,66.91300000000047
311890.7937,44.952692673327014,37.46227300574918,57.931607967987475,46.60292391568888,66.91399999998976
311890.7947,43.756579903099066,37.163417642926895,56.37221550430542,44.123941845009284,66.91500000003725
311890.7957,42.77439883907373,36.89820135398881,54.9303601626139,41.58922536325117,66.91600000002654
311890.7967,41.92188106296161,36.56171838437634,53.558245504472524,38.947120688706434,66.91700000001583
311890.7977,41.08868293808173,36.0296406130501,52.18001842440243,36.12897384238719,66.91800000000512
311890.7987,40.1476274787115,35.16815796965621,50.69872446492369,33.05670791365275,66.91899999999441
311890.7997,38.96511681040771,33.84491887392338,49.00464972778459,29.651317261142243,66.9199999999837
311890.8007,37.41194593360984,31.94014129368857,46.984407911843434,25.84160123521206,66.9210000000312
311890.8017,35.373723283722406,29.357046899290932,44.53009098211013,21.572439522207052,66.92200000002049
311890.8027,32.760141333299714,26.030821731993154,41.54781791531518,16.81194888599148,66.92300000000978
311890.8037,29.51243786148514,21.935422483454744,37.965085480172704,11.556953523461608,66.92399999999907
311890.8047,25.608537045091097,17.087717937029446,33.73644096608822,5.836340183503989,66.92499999998836
311890.8057,21.06554634274319,11.548665634486003,28.847147997712796,-0.2879577624167515,66.92600000003586
311890.8067,15.939494157745052,5.421456270972626,23.31468891638782,-6.722411302887187,66.92700000002515
311890.8077,10.322406614428932,-1.1532072168092349,17.188124904378753,-13.345652105136809,66.92800000001444
311890.8087,4.337021453383005,-8.004312287730736,10.545502184196769,-20.01422560817823,66.92900000000373
311890.8097,-1.8703934912754725,-14.939656845247109,3.4896347312442053,-26.569883535856043,66.92999999999302
311890.8107,-8.138524095332007,-21.75619213197835,-3.8573007904487775,-32.84785189302517,66.9309999999823
311890.8117,-14.30013040944975,-28.250823994953404,-11.359861706203063,-38.68545419356522,66.9320000000298
311890.8127,-20.19112332234731,-34.23090278389279,-18.875619314968674,-43.93046689115337,66.93300000001909
311890.8137,-25.658958908249122,-39.52368995882555,-26.261148788234507,-48.44863301293369,66.93400000000838
311890.8147,-30.56980473153169,-43.984203182521455,-33.37733179758096,-52.12985438386463,66.93499999999767
311890.8157,-34.814065601985384,-47.500999223112814,-40.093682554011856,-54.89271214862861,66.93599999998696
311890.8167,-38.310016161127635,-49.99963974635924,-46.29153503427513,-56.687116264639315,66.93700000003446
311890.8177,-41.00545849751173,-51.44378133611406,-51.86606154434795,-57.495042495200856,66.93800000002375
311890.8187,-42.87748859445906,-51.834019823841224,-56.72721643988289,-57.329465437920476,66.93900000001304
311890.8197,-43.93060082981977,-51.20478361582047,-60.799801189554024,-56.231725012511866,66.94000000000233
311890.8207,-44.193472585530024,-49.619697519160695,-64.02291809851305,-54.26766106420571,66.94099999999162
311890.8217,-43.71484261993874,-47.165918109368455,-66.34911362485524,-51.52290944114953,66.94199999998091
311890.8227,-42.55892300619256,-43.94796945203914,-67.74350628370613,-48.09777040626747,66.9430000000284
311890.8237,-40.80076568369454,-40.081584744259985,-68.18315098638291,-44.102038169456186,66.9440000000177
311890.8247,-38.521946080845744,-35.68799094357949,-67.65681771417877,-39.65012424219684,66.94500000000698
311890.8257,-35.80683679665028,-30.888969742251398,-66.16526740260043,-34.85672599349305,66.94599999999627
311890.8267,-32.7396357604461,-25.802902479201304,-63.72200376160711,-29.833196146225806,66.94699999998556
311890.8277,-29.402198921123706,-20.54187358894746,-60.354379330471964,-24.68467082758153,66.94800000003306
311890.8287,-25.87262070284822,-15.209781866198531,-56.10484969826153,-19.50792460630432,66.94900000002235
311890.8297,-22.224418166548325,-9.90130457263332,-51.03211197993958,-14.389850505377689,66.95000000001164
311890.8307,-18.526116331288957,-4.70148672323472,-45.21183977331786,-9.406418390419654,66.95100000000093
311890.8317,-14.841008094698124,0.3143067083481762,-38.73674054447584,-4.621950122188138,66.95199999999022
311890.8327,-11.226874103579691,5.080332495821704,-31.71571206448088,-0.0885644069157967,66.95300000003772
311890.8337,-7.735492923614295,9.54051892573375,-24.27195731500215,4.154315304750631,66.95400000002701
311890.8347,-4.4118431746885385,13.648764934907206,-16.540023652397828,8.080437108137609,66.9550000000163
311890.8357,-1.292987041836754,17.369537512548334,-8.661850595903612,11.67715920724623,66.95600000000559
311890.8367,1.5932831493571475,20.67871707236118,-0.7820283572803394,14.945760483236786,66.95699999999488
311890.8377,4.2298693295227485,23.564548145733504,6.957427170078666,17.90147588672459,66.95799999998417
311890.8387,6.6116325866741645,26.02848005935811,14.422400012532062,20.573073458567347,66.95900000003166
311890.8397,8.746233007697553,28.08563982670724,21.49167627955923,23.001781843371496,66.96000000002095
311890.8407,10.654279574227257,29.764674393847223,28.061200180618545,25.239401251002,66.96100000001024
311890.8417,12.368563966136698,31.106734348656314,34.04720683624397,27.34548709878987,66.96199999999953
311890.8427,13.932226754721283,32.16344415043782,39.38794207183051,29.383580189260414,66.96299999998882
311890.8437,15.395808464187098,32.9938081116033,44.04380097080669,31.41656265180553,66.96400000003632
311890.8447,16.81326106624263,33.660125981791175,47.995861729526844,33.50133433251631,66.96500000002561
311890.8457,18.237124643432605,34.22312334636185,51.24294529016902,35.68311715884774,66.9660000000149
311890.8467,19.71319483815145,34.73662499878622,53.797478868359185,37.989791833939584,66.96700000000419
311890.8477,21.275105092680874,35.242199021489,55.68056750556132,40.42673937558403,66.96799999999348
311890.8487,22.939311102325703,35.76426241524653,56.916768556012336,42.97268902697301,66.96899999998277
311890.8497,24.700983991883344,36.306156007130845,57.52910912884291,45.57705686631165,66.97000000003027
311890.8507,26.53128833996233,36.847661799268,57.534879818054385,48.159193301663905,66.97100000001956
311890.8517,28.37644104820331,37.344349851426934,56.942678445735616,50.60984465717449,66.97200000000885
311890.8527,30.158821965088624,37.72900953532297,55.751069107191014,52.794981178082885,66.97299999999814
311890.8537,31.780246619043325,37.915251845069065,53.9490735188614,54.561962304228736,66.97399999998743
311890.8547,33.12732877915995,37.80317975825658,51.518536587931294,55.74781471265138,66.97500000003492
311890.8557,34.07867191185778,37.286829533300555,48.43822216777557,56.18920627268101,66.97600000002421
311890.8567,34.513451198236865,36.26290556433067,44.68931542695,55.733527158937214,66.9770000000135
311890.8577,34.32079845108693,34.64018265889709,40.26185217434163,54.25035437565932,66.9780000000028
311890.8587,33.40929582695942,32.34884770777541,35.16147802234063,51.6424917234966,66.97899999999208
311890.8597,31.71583202159881,29.34900920382632,29.415873321648885,47.85575371636523,66.97999999998137
311890.8607,29.213083453865902,25.637624459226398,23.080170852797334,42.88670411306446,66.98100000002887
311890.8617,25.91495429836232,21.253181464747605,16.240744687619255,36.78766702212078,66.98200000001816
311890.8627,21.879439128881938,16.277620006407723,9.016857461082937,29.668494808964418,66.98300000000745
311890.8637,17.20855114911145,10.835174202513977,1.5598114211395226,21.694790913851023,66.98399999999674
311890.8647,12.045173770748725,5.088050630514505,-5.950556486069446,13.082531470722312,66.98499999998603
311890.8657,6.566926542994308,-0.7708961558748694,-13.311979498350476,4.089288515449399,66.98600000003353
311890.8667,0.977369114966605,-6.5280862906176775,-20.308191236076105,-4.997490740462348,66.98700000002282
311890.8677,-4.504920287606123,-11.961114004852341,-26.719203440121216,-13.874469796559374,66.98800000001211
311890.8687,-9.658680393038646,-16.851829748478817,-32.33278325347199,-22.237816560882084,66.9890000000014
311890.8697,-14.272882720183565,-20.999698079863077,-36.95635957852442,-29.799029579048778,66.98999999999069
311890.8707,-18.159335262542182,-24.23448154183611,-40.42852433382508,-36.30017444965818,66.99100000003818
311890.8717,-21.16409172196141,-26.427332505657294,-42.62929571924442,-41.52753647224696,66.99200000002747
311890.8727,-23.17686276698296,-27.499479549412037,-43.48837774439119,-45.32279794195491,66.99300000001676
311890.8737,-24.137767107512943,-27.427864359415853,-42.99077866053476,-47.591017348543744,66.99400000000605
311890.8747,-24.040952700071696,-26.247305871929633,-41.17933079270614,-48.30491010627022,66.99499999999534
311890.8757,-22.934846486342643,-24.04902248557906,-38.15387146427775,-47.50518897856424,66.99599999998463
311890.8767,-20.919036130148335,-20.97560991057068,-34.06708191569533,-45.29699673791193,66.99700000003213
311890.8777,-18.138029328132788,-17.212829789619004,-29.11721928265792,-41.84273222139856,66.99800000002142
311890.8787,-14.772355907305117,-12.978791719556881,-23.538196652411724,-37.35181278119374,66.99900000001071
311890.8797,-11.027657681406495,-8.511290530265539,-17.587650349170712,-32.06811253864486,67.0
311890.8807,-7.12253714186285,-4.054177755536258,-11.533767394882135,-26.255952171555546,67.00099999998929
311890.8817,-3.2759995492572096,0.15630721525548727,-5.64171940766283,-20.18558279296387,67.00200000003679
311890.8827,0.30467953224750044,3.9043469552251873,-0.16055716148762564,-14.119100460161976,67.00300000002608
311890.8837,3.4348953714476065,7.00569211809826,4.688636562189345,-8.297651908192094,67.00400000001537
311890.8847,5.961819939602423,9.316492399963659,8.722652991460212,-2.930655075206886,67.00500000000466
311890.8857,7.77119384643548,10.739357790412559,11.803601138448983,1.8124262827031752,67.00599999999395
311890.8867,8.791518437864273,11.226417927865985,13.84356183671223,5.807428658820837,67.00699999998324
311890.8877,8.99556476815971,10.779375371191604,14.806332693160574,8.977854856847205,67.00800000003073
311890.8887,8.399310904129917,9.446762654682498,14.70634929737708,11.294375020314016,67.00900000002002
311890.8897,7.058589747488573,7.318795625408673,13.60505237661074,12.771766844172708,67.01000000000931
311890.8907,5.063863196808242,4.520352959568614,11.605120361435192,13.46374784037925,67.0109999999986
311890.8917,2.5336261412020615,1.2026949599672767,8.843091748520642,13.456251038943845,67.01199999998789
311890.8927,-0.393018496116212,-2.4654396779706382,5.480956195431966,12.859739588972333,67.01300000003539
311890.8937,-3.564083586536466,-6.306750269401485,1.6972970252902033,11.80114652982952,67.01400000002468
311890.8947,-6.822244646707668,-10.143772699420028,-2.3214748138644556,10.415969686699867,67.01500000001397
311890.8957,-10.011821531295835,-13.80634340805395,-6.389335732345529,8.84095845238567,67.01600000000326
311890.8967,-12.98491560340487,-17.137848362283652,-10.327960502665823,7.207712181149247,67.01699999999255
311890.8977,-15.606539472956346,-20.000119235851987,-13.972896108023663,5.637383332855407,67.01799999998184
311890.8987,-17.758687288745485,-22.276972866143005,-17.178484799302137,4.236556336273631,67.01900000002934
311890.8997,-19.34338742855571,-23.876501946956836,-19.821530117441142,3.0942675773775012,67.02000000001863
311890.9007,-20.284847659571696,-24.732305018051107,-21.803785473917376,2.2800521847941333,67.02100000000792
311890.9017,-20.530840521028257,-24.803886503878175,-23.053403124336125,1.8428548424205005,67.0219999999972
311890.9027,-20.053482925995908,-24.076461822826825,-23.525509769363286,1.81062606578817,67.0229999999865
311890.9037,-18.849541829517026,-22.560371934002305,-23.202075073403748,2.190439602832458,67.024000000034
311890.9047,-16.94035370115368,-20.290253548178228,-22.091215897835053,2.969004780527688,67.02500000002328
311890.9057,-14.371388416274963,-17.324036003551672,-20.226039291047297,4.113501068047377,67.02600000001257
311890.9067,-11.211428363467896,-13.741755597094505,-17.66308001602753,5.5727207672111,67.02700000000186
311890.9077,-7.551281498279207,-9.644105356696052,-14.48034271020889,7.278559257416609,67.02799999999115
311890.9087,-3.501912077642666,-5.150584091220813,-10.774922958234974,9.147931301989948,67.02900000003865
311890.9097,0.8081380176581882,-0.39708190065528437,-6.66016215247146,11.085209338346274,67.03000000002794
311890.9107,5.236147099571115,4.467254430385836,-2.2622920574440033,12.98527112617088,67.03100000001723
311890.9117,9.629494357841974,9.283992268615162,2.283452408261357,14.73720876278116,67.03200000000652
311890.9127,13.830815776701646,13.890264577590465,6.837231420949662,16.228691625810406,67.03299999999581
311890.9137,17.683937591518966,18.124450328142903,11.259431596434407,17.35089833479112,67.0339999999851
311890.9147,21.040390285108437,21.832522214801855,15.415787294483586,18.003846105314192,67.0350000000326
311890.9157,23.7662087785649,24.87478857708213,19.182583902319596,18.101860443666133,67.03600000002189
311890.9167,25.74864091018115,27.132657046890944,22.45167950067754,17.578855161275094,67.03700000001118
311890.9177,26.902327669131537,28.514973100578153,25.13504330120256,16.393042723600587,67.03800000000047
311890.9187,27.174494208973794,28.963448404679564,27.168495740560658,14.530676708255976,67.03899999998976
311890.9197,26.548706692285638,28.45669941555471,28.514350751373584,12.008447480601841,67.04000000003725
311890.9207,25.046809029586964,27.012469762026072,29.162707243041677,8.874211300976523,67.04100000002654
311890.9217,22.728753881908347,24.687709414436014,29.131212746194954,5.205830082451115,67.04200000001583
311890.9227,19.69017795504309,21.576323603687214,28.463222813174045,1.1080279534345545,67.04300000000512
311890.9237,16.057732805137736,17.804574534799972,27.224397529148614,-3.2926780252536285,67.04399999999441
311890.9247,11.982356166750664,13.524305165305053,25.49790149246104,-7.854754780375399,67.0449999999837
311890.9257,7.630840255176628,8.904340320623547,23.378494571574446,-12.42976347428417,67.0460000000312
311890.9267,3.176206954113757,4.120588931103377,20.965905981106822,-16.871292348776002,67.04700000002049
311890.9277,-1.2124795693532466,-0.6544943237605092,18.357962861835624,-21.04409866566767,67.04800000000978
311890.9287,-5.3801570856876655,-5.262343338499735,15.643987619743621,-24.83278875975103,67.04899999999907
311890.9297,-9.194939926038561,-9.567838382497689,12.898979682781883,-28.149361040527477,67.04999999998836
311890.9307,-12.55573586826939,-13.46725083647042,10.179054606501975,-30.938989377888856,67.05100000003586
311890.9317,-15.397713734977296,-16.89393774072898,7.518528182399026,-33.18353205953602,67.05200000002515
311890.9327,-17.695179004505853,-19.821305729212877,4.928911032874317,-34.90240763186533,67.05300000001444
311890.9337,-19.46160486043172,-22.262766255165662,2.399929471172945,-36.15067193725547,67.05400000000373
311890.9347,-20.746782421100193,-24.268635816283727,-0.09747653995130988,-37.01434526338689,67.05499999999302
311890.9357,-21.631278524648405,-25.92017687822207,-2.6063935265886156,-37.60325699911067,67.0559999999823
311890.9367,-22.218603334959433,-27.321206713202855,-5.177780341839217,-38.041878977888985,67.0570000000298
311890.9377,-22.625674687885517,-28.587902273586746,-7.863412229773645,-38.458790090096294,67.05800000001909
311890.9387,-22.97230532451237,-29.837581766782844,-10.70850141512735,-38.975538592377006,67.05900000000838
311890.9397,-23.37052060118527,-31.177334112369035,-13.74461083209133,-39.69573361098091,67.05999999999767
311890.9407,-23.914530570104148,-32.693387622891386,-16.983464342316047,-40.695197380946546,67.06099999998696
311890.9417,-24.67212983336082,-34.44205686939411,-20.412192465963525,-42.013944079122226,67.06200000003446
311890.9427,-25.67818548216905,-36.44298592250789,-23.990442387990292,-43.65062457487663,67.06300000002375
311890.9437,-26.930707391429397,-38.67522710379452,-27.649634086413588,-45.55989903729514,67.06400000001304
311890.9447,-28.389790355347895,-41.076472168340715,-31.294473442704582,-47.65298531337763,67.06500000000233
311890.9457,-29.979491484765738,-43.5455062462089,-34.80665286267478,-49.80139749519247,67.06599999999162
311890.9467,-31.59247807543039,-45.94770463630484,-38.050495779475014,-51.84365476177583,67.06699999998091
311890.9477,-33.097069891095025,-48.12315952576449,-40.88014832851589,-53.59452393784734,67.0680000000284
311890.9487,-34.34612284567276,-49.896827032906494,-43.14780240628475,-54.85617712126935,67.0690000000177
311890.9497,-35.18707252306086,-51.089940384473906,-44.712359045073754,-55.43051201669243,67.07000000000698
311890.9507,-35.472385487265655,-51.53185354180759,-45.44791534063295,-55.131806943087994,67.07099999999627
311890.9517,-35.06965829527507,-51.07146653867232,-45.25148334209718,-53.79886962858642,67.07199999998556
311890.9527,-33.87065734811671,-49.58743849573557,-44.049422054595965,-51.30588842030955,67.07300000003306
311890.9537,-31.798700656742497,-46.996510162885386,-41.80217648942966,-47.57130088840949,67.07400000002235
311890.9547,-28.813934054384628,-43.25942316138969,-38.50705952534761,-42.56414794964525,67.07500000001164
311890.9557,-24.916234623750142,-38.384122097822456,-34.198969824321736,-36.3075679830188,67.07600000000093
311890.9567,-20.145666316037534,-32.42614016933457,-28.949097692833124,-28.879289073051524,67.07699999999022
311890.9577,-14.580599655709067,-25.48627980620086,-22.861816419270973,-20.409181758448238,67.07800000003772
311890.9587,-8.333772968156548,-17.705889370755123,-16.070076734638967,-11.07412338231505,67.07900000002701
311890.9597,-1.54670331874929,-9.260189693977418,-8.729706955407087,-1.090584257362278,67.0800000000163
311890.9607,5.61705825927846,-0.35020903848318363,-1.0130650986568148,9.294535506960147,67.08100000000559
311890.9617,12.979295594018666,8.806064381901004,6.897509968016467,19.814218363210344,67.08199999999488
311890.9627,20.354600875137454,17.982707882824318,14.816040984454139,30.1921691008334,67.08299999998417
311890.9637,27.557490358926977,26.95451898672425,22.55871480737952,40.15358619168321,67.08400000003166
311890.9647,34.408792609595096,35.50484818101745,29.948909768675342,49.43533607309262,67.08500000002095
311890.9657,40.74105644558504,43.43228588045332,36.821323913480974,57.79510064187357,67.08600000001024
311890.9667,46.402853010532,50.55602176447861,43.025191678950954,65.01918695701163,67.08699999999953
311890.9677,51.26197004583891,56.719836053467695,48.42667618915166,70.92881377809768,67.08799999998882
311890.9687,55.20760352263144,61.79480839873642,52.91060142922666,75.38480946465599,67.08900000003632
311890.9697,58.15173161007006,65.68092854218645,56.38173517069307,78.29075882778395,67.09000000002561
311890.9707,60.02990115997287,68.30785488217697,58.765845156012475,79.59471427794487,67.0910000000149
311890.9717,60.80166414823093,69.63508801446264,60.01072714344808,79.28963399049933,67.09200000000419
311890.9727,60.45087183299713,69.65180638082076,60.087347396764144,77.41272561245239,67.09299999999348
311890.9737,58.98597296417042,68.37655518712342,58.99116120143185,74.04386094257788,67.09399999998277
311890.9747,56.44037803816436,65.85689667821093,56.74357311377935,69.30319119793913,67.09500000003027
311890.9757,52.87285585640692,62.169031716043754,53.39340598308839,63.34804278844233,67.09600000001956
311890.9767,48.36783448475459,57.41730321037115,49.01815711731212,56.36912039751657,67.09700000000885
311890.9777,43.035399124683984,51.73340533963391,43.724753412203334,48.58599833434442,67.09799999999814
311890.9787,37.01072597773294,45.27506135940315,37.649482937513476,40.24185223487487,67.09899999998743
311890.9797,30.452672747203533,38.22390699013534,30.95678528668998,31.597378582947748,67.10000000003492
311890.9807,23.54126800321111,30.782331768856896,23.836629796148646,22.923873230579805,67.10100000002421
311890.9817,16.473903787524797,23.16908844572907,16.500297841484905,14.495492231349772,67.1020000000135
311890.9827,9.460134422319825,15.613576606238198,9.174506604454368,6.580794907940629,67.1030000000028
311890.9837,2.7151110027009104,8.348832597182177,2.09395671198043,-0.5662375314740176,67.10399999999208
311890.9847,-3.548176609334215,1.6034010392138633,-4.507458409951518,-6.7154149539590735,67.10499999998137
311890.9857,-9.12753482768034,-4.407591393721622,-10.406392979315727,-11.669396627981687,67.10600000002887
311890.9867,-13.840633461627315,-9.491707824775933,-15.40022032922789,-15.272134331192406,67.10700000001816
311890.9877,-17.53395938037678,-13.488264609087796,-19.317021049816297,-17.416195857992733,67.10800000000745
311890.9887,-20.0910520791245,-16.27657301355107,-22.024724140812076,-18.048460393326145,67.10899999999674
311890.9897,-21.439407760057158,-17.782738519462832,-23.438742111903924,-17.173718099935336,67.10999999998603
311890.9907,-21.555484417489097,-17.984446324170953,-23.52750222133253,-14.855793114610762,67.11100000003353
311890.9917,-20.46733992528461,-16.913266263034355,-22.315391442908822,-11.215938153953973,67.11200000002282
311890.9927,-18.25458198394563,-14.654163874925556,-19.88279461802574,-6.428411744248129,67.11300000001211
311890.9937,-15.045491883393906,-11.342095049811729,-16.363101330935226,-0.7133335160372031,67.1140000000014
311890.9947,-11.011388390785584,-7.155773943147187,-11.936771560769898,5.672895914265695,67.11499999999069
311890.9957,-6.358506172045691,-2.3089193221806563,-6.822765188265102,12.449142552604124,67.11600000003818
311890.9967,-1.3178565870555834,2.960515987880605,-1.2678375107259112,19.322430670761808,67.11700000002747
311890.9977,3.8663001235526053,8.40246267887377,4.465635261713163,26.001439877486376,67.11800000001676
311890.9987,8.948628386157832,13.76741441945451,10.112524538194412,32.20980567255024,67.11900000000605
311890.9997,13.694738243096818,18.81883023684352,15.417684099521038,37.69841725771739,67.11999999999534
311891.0007,17.892264261221857,23.344434593565587,20.147736860972834,42.25596343673692,67.12099999998463
311891.0017,21.360286382473884,27.165671339214818,24.101177915679433,45.71709284243424,67.12200000003213
311891.0027,23.956508949986542,30.14471076483071,27.11619516577102,47.96772036944351,67.12300000002142
311891.0037,25.581794083832133,32.188601968096485,29.07579283659875,48.94721495157336,67.12400000001071
311891.0047,26.18185762417673,33.2503892760521,29.91001824070019,48.647428625820886,67.125
311891.0057,25.746161396169335,33.32725199218236,29.595319622949443,47.108754999231195,67.12599999998929
311891.0067,24.304254676673597,32.455960248376286,28.151282984851886,44.413618093619526,67.12700000003679
311891.0077,21.92001112736679,30.706145789910913,25.63518939394126,40.677972531204105,67.12800000002608
311891.0087,18.684358163372327,28.17204707787309,22.134984869556448,36.04152827862009,67.12900000001537
311891.0097,14.70719079740421,24.963489251095933,17.76134995467071,30.657486847969025,67.13000000000466
311891.0107,10.109193675662295,21.196892758718068,12.6395881468629,24.68258511906854,67.13099999999395
311891.0117,5.014261444751543,16.987067569629296,6.902019881028535,18.268187477011324,67.13199999998324
311891.0127,-0.456887056041692,12.440446906692708,0.6814760359671499,11.553051983653534,67.13300000003073
311891.0137,-6.191451201694055,7.650255563646774,-5.8936582841570795,4.658232128865707,67.13400000002002
311891.0147,-12.087380768200244,2.693908196438635,-12.702578448226424,-2.315623202437058,67.13500000000931
311891.0157,-18.054232991948723,-2.3672887093622608,-19.63330069184681,-9.288525237461311,67.1359999999986
311891.0167,-24.01219143070885,-7.486280623692514,-26.582134028931794,-16.19912508319306,67.13699999998789
311891.0177,-29.889566352155256,-12.626608015933025,-33.45168972172768,-23.00078207353826,67.13800000003539
