TimeStamp,ECR,FCR,ECU,FCU,time_index
311834.8797,-1.145481711311213,-0.9179187507968714,2.0856029858578355,2.2745933930527613,11.0
311834.8807,-1.8072009609877904,-0.371894313693434,2.0082153124843645,2.701278934115284,11.00099999998929
311834.8817,-2.5438832279819903,0.1570340679061036,1.8483790003150056,3.0452425192456825,11.002000000036787
311834.8827,-3.3035869160199494,0.7003091537239344,1.6408353713415593,3.336551341659278,11.003000000026077
311834.8837,-4.033570375559957,1.2875009332171028,1.4215142875109255,3.6049229370714273,11.004000000015367
311834.8847,-4.685441173951215,1.9413565256436647,1.2232128835450577,3.875297828782742,11.005000000004657
311834.8857,-5.219723968397207,2.6736021413760422,1.0717665832383265,4.1640515681078165,11.005999999993946
311834.8867,-5.609398484235682,3.4819678867815353,0.9831117864695189,4.476257943742394,11.006999999983236
311834.8877,-5.842066520579292,4.34878220494132,0.9615435432972409,4.804306587487299,11.008000000030734
311834.8887,-5.920547691664316,5.241322914383991,0.9993450751880845,5.128038758907063,11.009000000020023
311834.8897,-5.861863726757464,6.113931950504962,1.0778219454949924,5.416408589109722,11.010000000009313
311834.8907,-5.694734672324081,6.911718861834624,1.169626540848867,5.630519050003412,11.010999999998603
311834.8917,-5.4558610280705535,7.5755119726713005,1.2421231192035875,5.727738116552706,11.011999999987893
311834.8927,-5.1853887422454505,8.047582501994789,1.2614336582448307,5.666485369496382,11.01300000003539
311834.8937,-4.9220368780832855,8.277579302316859,1.1967312306250608,5.411204234305841,11.01400000002468
311834.8947,-4.6984023786853015,8.22807926667997,1.0243181485707626,4.937007841507805,11.01500000001397
311834.8957,-4.536939202830268,7.879184503207934,0.7310437971916697,4.233510116959938,11.01600000000326
311834.8967,-4.447041794321002,7.231680011563869,0.3166803593611176,3.3074261743615416,11.01699999999255
311834.8977,-4.423551960787658,6.308397172225034,-0.2050225792887559,2.1836405841238804,11.01799999998184
311834.8987,-4.44686467793784,5.153596398729591,-0.8067513355875952,0.904587671443182,11.019000000029337
311834.8997,-4.48464626751187,3.8303706866336897,-1.449507526675942,-0.47204941105390325,11.020000000018626
311834.9007,-4.4950138632406125,2.416262320240829,-2.08580150208412,-1.8771502852305502,11.021000000007916
311834.9017,-4.4308744233364035,0.9974591529099349,-2.663870887766231,-3.235160054678368,11.021999999997206
311834.9027,-4.244999810625773,-0.3379223689788054,-3.132525618121358,-4.469843952704646,11.022999999986496
311834.9037,-3.895333894691475,-1.5068667883468874,-3.4461494864635873,-5.510276430779221,11.024000000033993
311834.9047,-3.349996484662902,-2.438164326227721,-3.569362739133365,-6.296517981892201,11.025000000023283
311834.9057,-2.5914705998142358,-3.078176868072389,-3.480873588458893,-6.784456041600511,11.026000000012573
311834.9067,-1.6195323698870843,-3.3951337350796487,-3.1761169464956316,-6.949359666884856,11.027000000001863
311834.9077,-0.4525999413836621,-3.3815590192485887,-2.6683897571602007,-6.787814521780773,11.027999999991152
311834.9087,0.8726720198066155,-3.0546039816757107,-1.9883335533047428,-6.317853922095017,11.02900000003865
311834.9097,2.3035567716881022,-2.4542518512941927,-1.1817727648738283,-5.577269061943897,11.03000000002794
311834.9107,3.7750122871491025,-1.6395598282190855,-0.30607659017420047,-4.620251024940441,11.03100000001723
311834.9117,5.214707071634972,-0.683285316790231,0.5746426089586467,-3.512672502168437,11.03200000000652
311834.9127,6.548864753790145,0.33460704787529677,1.3950646819365657,-2.3264433752420066,11.032999999995809
311834.9137,7.7083926022777,1.333958467694158,2.0944243935761713,-1.1334593519238887,11.033999999985099
311834.9147,8.634725360775072,2.2413042678401585,2.621966093772874,0.0003014834502038068,11.035000000032596
311834.9157,9.284836456574592,2.996007877565592,2.9415770868665634,1.01999640287571,11.036000000021886
311834.9167,9.634942052314015,3.555085900009762,3.035157837005998,1.8859803329506808,11.037000000011176
311834.9177,9.68254277907405,3.8962968698352882,2.9044013493761542,2.5763554739045595,11.038000000000466
311834.9187,9.446602037921624,4.019233485038683,2.570800393671604,3.087796949306382,11.038999999989755
311834.9197,8.965833814021996,3.944349136050795,2.073865850399396,3.4346085122225114,11.040000000037253
311834.9207,8.295250357333689,3.7100460399454738,1.4677067001779232,3.6461310521538812,11.041000000026543
311834.9217,7.501283817943305,3.3681353329628188,0.8162760632225147,3.7627825202261427,11.042000000015832
311834.9227,6.655930230125893,2.97813153479036,0.18771348281618325,3.8311359550267983,11.043000000005122
311834.9237,5.830456170731655,2.6009503645022205,-0.3517007556882462,3.8985303182226696,11.043999999994412
311834.9247,5.089249093005676,2.29262988911316,-0.7434263254451363,4.007748520350739,11.044999999983702
311834.9257,4.484377806411194,2.098685754869921,-0.9418405439412576,4.192284726187931,11.0460000000312
311834.9267,4.051361206499698,2.049642970010896,-0.9182406131794604,4.472660218589044,11.047000000020489
311834.9277,3.8065277188077618,2.158166279521276,-0.6633080469080965,4.854140109629676,11.048000000009779
311834.9287,3.746196129911883,2.4180505424933063,-0.18781694636420015,5.326062627738782,11.048999999999069
311834.9297,3.84773514472143,2.805147507238325,0.47846796515346635,5.862832416418018,11.049999999988358
311834.9307,4.072380809757001,3.2801141199318815,1.2895888389369035,6.426464965255142,11.051000000035856
311834.9317,4.369525009693572,3.7926886959355532,2.1876157504810783,6.970417008536533,11.052000000025146
311834.9327,4.682050504619806,4.287052357637484,3.1078885316142175,7.444312297780656,11.053000000014435
311834.9337,4.952191604190785,4.7077285613504145,3.984784667669377,7.799085741538644,11.054000000003725
311834.9347,5.127353722159316,5.005423387923971,4.757474045522383,7.992029820037043,11.054999999993015
311834.9357,5.165333960725664,5.142218294094108,5.375128310824934,7.991239082297475,11.055999999982305
311834.9367,5.038447463130507,5.095594142619839,5.801110089223651,7.779010076279293,11.057000000029802
311834.9377,4.73617426604797,4.860883781184484,6.015769540635868,7.353859043797787,11.058000000019092
311834.9387,4.266087918091982,4.451908428287408,6.017612554524377,6.7309576806181814,11.059000000008382
311834.9397,3.6529958271278065,3.8997349886482198,5.822762965660716,5.940944551337487,11.059999999997672
311834.9407,2.936395667768306,3.249679174470498,5.4628050902522185,5.027230819952494,11.060999999986961
311834.9417,2.1665152349147934,2.5568544067679415,4.981246773804973,4.042067927195266,11.062000000034459
311834.9427,1.3993390438299498,1.8807116304343023,4.428972176670918,3.041767046814637,11.063000000023749
311834.9437,0.6911206289406673,1.2791160767385539,3.859145361418898,2.081543572139632,11.064000000013039
311834.9447,0.09292573646820274,0.8025536951811556,3.322071730987946,1.2104963424078443,11.065000000002328
311834.9457,-0.35425584559038,0.48904784799500106,2.8605203559185277,0.46721727169580807,11.065999999991618
311834.9467,-0.6233522423961695,0.3602971094788055,2.5059569852301404,-0.12353607121961566,11.066999999980908
311834.9477,-0.7036343987615121,0.41942451490672106,2.276040634731441,-0.5527782931759971,11.068000000028405
311834.9487,-0.6014957506688106,0.6505692407055871,2.173605916293065,-0.8276559942190879,11.069000000017695
311834.9497,-0.3395228657231002,1.0203691849721221,2.1872018137500406,-0.9701980035088608,11.070000000006985
311834.9507,0.046036854847512874,1.4811952599807074,2.2931005058004983,-1.014584455233657,11.070999999996275
311834.9517,0.5091456679041508,1.9758239279478182,2.4585426549965206,-1.0032104471829377,11.071999999985565
311834.9527,0.9987875966966276,2.443090824394267,2.645862855566999,-0.9819401207722931,11.073000000033062
311834.9537,1.4642334727830129,2.8239694368248753,2.8170527252357864,-0.9950280014716648,11.074000000022352
311834.9547,1.8602268204849775,3.067474558119116,2.9382778529965474,-1.0802183232034865,11.075000000011642
311834.9557,2.1515679466770665,3.135805066319197,2.983872422802722,-1.2645164494524315,11.076000000000931
311834.9567,2.316634873084437,3.008213142699173,2.939390920669785,-1.561060988472373,11.076999999990221
311834.9577,2.349486707430273,2.68321030143665,2.803394247420674,-1.967417183970407,11.078000000037719
311834.9587,2.260337073998049,2.178882554620645,2.587777963291562,-2.4654722321472002,11.079000000027008
311834.9597,2.074348257930899,1.5312718553924467,2.3166002366488216,-3.022955058478578,11.080000000016298
311834.9607,1.8288646527336003,0.7909705720283419,2.023521391866913,-3.596442303627965,11.081000000005588
311834.9617,1.5693603586574496,0.018251582896409303,1.7481103464478258,-4.135564607805437,11.081999999994878
311834.9627,1.344504939288116,-0.7227985856616801,1.531391371862959,-4.588007258850553,11.082999999984168
311834.9637,1.200840651875876,-1.3705765435144923,1.4110856786098125,-4.904818693375436,11.084000000031665
311834.9647,1.1776050893789602,-1.8720771207323081,1.4170381479649192,-5.045507168218573,11.085000000020955
311834.9657,1.3022210581608487,-2.1882300090065967,1.5673064133704833,-4.982423472681177,11.086000000010245
311834.9667,1.5869117942354358,-2.2979342088339205,1.865328569889869,-4.703994193543727,11.086999999999534
311834.9677,2.026790491638368,-2.2003906119336034,2.298482921617609,-4.216479340054612,11.087999999988824
311834.9687,2.599629240072735,-1.9154962209002118,2.8382183752516754,-3.5440694821989407,11.089000000036322
311834.9697,3.2673479256011992,-1.482249964061731,3.4417805320232273,-2.7272972179686445,11.090000000025611
311834.9707,3.9790945592896207,-0.9553117252075732,4.05540127333845,-1.8199002389145233,11.091000000014901
311834.9717,4.675631449738537,-0.40003448648943013,4.618674129027165,-0.8844227075318101,11.092000000004191
311834.9727,5.294612052801388,0.11356291418558667,5.0697182940827625,0.013036439593645449,11.09299999999348
311834.9737,5.776243972938478,0.5173122984084261,5.350652629034912,0.8084371445844568,11.09399999998277
311834.9747,6.068793294203689,0.7512841505635034,5.412865466332535,1.445247625713169,11.095000000030268
311834.9757,6.133398236699684,0.7694412071202001,5.221580194442494,1.8792190254224408,11.096000000019558
311834.9767,5.947724930397471,0.5440219994002765,4.759279204898181,2.0820397952402034,11.097000000008848
311834.9777,5.5081086531274694,0.06824053847714677,4.0276539379747165,2.0435322067255393,11.097999999998137
311834.9787,4.829969491401375,-0.6429501346171707,3.047886367811213,1.7721936878859739,11.098999999987427
311834.9797,3.94645790599582,-1.5540972516582126,1.8592240707809118,1.294044739083797,11.100000000034925
311834.9807,2.905456906372215,-2.6123656215312856,0.5159718807791296,0.6499075026998229,11.101000000024214
311834.9817,1.7652267601818579,-3.7522290853452116,-0.9168274980642589,-0.10861113717054897,11.102000000013504
311834.9827,0.5891098323291438,-4.901283181840048,-2.3686281200641037,-0.9240353140769114,11.103000000002794
311834.9837,-0.5601956243949713,-5.98662130778365,-3.7690493003593635,-1.7383544139606202,11.103999999992084
311834.9847,-1.6262420732607297,-6.941166265082636,-5.053457170827502,-2.4982586699800287,11.104999999981374
311834.9857,-2.563780743406512,-7.709357822045132,-6.167948898933782,-3.159772787742817,11.106000000028871
311834.9867,-3.342576334173626,-8.251663746916323,-7.073288411054411,-3.691847109629639,11.10700000001816
311834.9877,-3.9497239807827604,-8.547499988938757,-7.747444677831528,-4.078571458378488,11.10800000000745
311834.9887,-4.390249990524544,-8.59630356467997,-8.186518832335858,-4.319814784947356,11.10899999999674
311834.9897,-4.6859450498287964,-8.416683675672772,-8.404001425585204,-4.430250487843098,11.10999999998603
311834.9907,-4.872550776915181,-8.043764732337264,-8.428460900543321,-4.436887351142368,11.111000000033528
311834.9917,-4.995580851150377,-7.525010818804249,-8.29991337972984,-4.375373734989904,11.112000000022817
311834.9927,-5.105190837174641,-6.914967484800019,-8.065247693948296,-4.285463444549359,11.113000000012107
311834.9937,-5.250603270419478,-6.269459318002948,-7.773166303908814,-4.206113752891132,11.114000000001397
311834.9947,-5.474637565286636,-5.639830600228092,-7.469144109712963,-4.170721326750838,11.114999999990687
311834.9957,-5.808883668978611,-5.067806864748333,-7.190899287694396,-4.202986871258328,11.116000000038184
311834.9967,-6.269995179035984,-4.5814884917584315,-6.964814242134846,-4.313835679868626,11.117000000027474
311834.9977,-6.857468076993762,-4.1928703840497725,-6.8036462242632565,-4.49971524855724,11.118000000016764
311834.9987,-7.5531260404796985,-3.8971259945320496,-6.7057360069766725,-4.742453159245699,11.119000000006054
311834.9997,-8.322366695140953,-3.6737150636632956,-6.655772230718558,-5.010702167577376,11.119999999995343
311835.0007,-9.117051453803336,-3.4891901553152094,-6.627013555196892,-5.262840258027472,11.120999999984633
311835.0017,-9.879761548512592,-3.301405738025417,-6.584725879605971,-5.451047055115159,11.12200000003213
311835.0027,-10.549010120271953,-3.0646921214071035,-6.490471858179286,-5.526158846720712,11.12300000002142
311835.0037,-11.064907732968193,-2.7354590210806777,-6.306806482110244,-5.442824351560696,11.12400000001071
311835.0047,-11.374735409525853,-2.2776495297248927,-6.00189373523858,-5.1644501830321135,11.125
311835.0057,-11.43788940336201,-1.6674791546867243,-5.5535689502018935,-4.667442050389655,11.12599999998929
311835.0067,-11.229724331192136,-0.896964958082809,-4.952428409322305,-3.944313483957178,11.127000000036787
311835.0077,-10.743929788193219,0.024130264608751343,-4.203626205342671,-3.0053418855966747,11.128000000026077
311835.0087,-9.99321940955015,1.0681562664275415,-3.327188568120627,-1.8785914520010525,11.129000000015367
311835.0097,-9.008276338025789,2.191273940791617,-2.356804825656688,-0.6082803444707058,11.130000000004657
311835.0107,-7.835068945232706,3.3368481055836425,-1.3372071135963899,0.7483700449511675,11.130999999993946
311835.0117,-6.530808710297345,4.440218280708947,-0.3203927061475454,2.125518451689794,11.131999999983236
311835.0127,-5.1589528418704225,5.434391916265624,0.6389406466749651,3.453914487947283,11.133000000030734
311835.0137,-3.7837447106736968,6.256109760084847,1.4882962902545482,4.666450820510471,11.134000000020023
311835.0147,-2.4648265926847133,6.851692324200753,2.1821321007680115,5.703537229561946,11.135000000009313
311835.0157,-1.2524476144839805,7.18209387258205,2.685994033095478,6.517793874768353,11.135999999998603
311835.0167,-0.18372639897027163,7.226664434372398,2.979618314384637,7.077626808899591,11.136999999987893
311835.0177,0.7196808843781332,6.985243896350822,3.0586921825678353,7.369356936865278,11.13800000003539
311835.0187,1.4522996738023932,6.47837321021505,2.935095530604536,7.397713666482501,11.13900000002468
311835.0197,2.023899512521828,5.745590422319773,2.6355962916190703,7.184662756348266,11.14000000001397
311835.0207,2.4570234631310126,4.841965688976522,2.1991259945306525,6.766698864661715,11.14100000000326
311835.0217,2.7832626553220448,3.833201366333992,1.672903397934689,6.190881291671661,11.14199999999255
311835.0227,3.0386805959815417,2.789763741624482,1.1077893964986456,5.51001190301656,11.14299999998184
311835.0237,3.258877415511453,1.7806081441802428,0.5533339678772253,4.7774354217617345,11.144000000029337
311835.0247,3.474220314161128,0.867099609931349,0.05300796716920066,4.041976227465859,11.145000000018626
311835.0257,3.7057494278078873,0.0977129030690938,-0.3599042597748053,3.343509172999478,11.146000000007916
311835.0267,3.9621997520020416,-0.49597977778812063,-0.6653396987550179,2.709596355439572,11.146999999997206
311835.0277,4.238466369885251,-0.901650357228393,-0.8581126192784161,2.153513693261112,11.147999999986496
311835.0287,4.515693214477384,-1.1266655242624812,-0.9480217301852285,1.6738511863118064,11.149000000033993
311835.0297,4.762999515908973,-1.1966108377362865,-0.9583925656695916,1.2557126313595381,11.150000000023283
311835.0307,4.94068942905488,-1.1520408751534514,-0.9231955014303607,0.8733798981546663,11.151000000012573
311835.0317,5.004635902860167,-1.0437814132980665,-0.8830231444376727,0.4941594784699239,11.152000000001863
311835.0327,4.911405084414428,-0.9272512531938272,-0.8803269310543705,0.08300946424781658,11.152999999991152
311835.0337,4.623605016067883,-0.8563672445000448,-0.9543900145303059,-0.3925347592126231,11.15400000003865
311835.0347,4.114910528298085,-0.8776368919552848,-1.1365441116155386,-0.9576500326646865,11.15500000002794
311835.0357,3.3742385384764133,-1.025024595242361,-1.446118655731927,-1.6262253382749945,11.15600000001723
311835.0367,2.4086226051349104,-1.3161018281877939,-1.8875430082797973,-2.397999292535637,11.15700000000652
311835.0377,1.2444555815619398,-1.7498657674272704,-2.4489129899678947,-3.2571516822430553,11.157999999995809
311835.0387,-0.07307688839852391,-2.3064472984481132,-3.102192117536516,-4.172522829648967,11.158999999985099
311835.0397,-1.482376296320914,-2.9487439229671297,-3.805059281305423,-5.09947384004752,11.160000000032596
311835.0407,-2.9094535240319623,-3.6258239704397512,-4.504253569176215,-5.983237707843088,11.161000000021886
311835.0417,-4.27326163484223,-4.277774152933155,-5.140119205498078,-6.763461807186741,11.162000000011176
311835.0427,-5.491877020992773,-4.8415199372637145,-5.65193355106515,-7.37952114269948,11.163000000000466
311835.0437,-6.488979415199079,-5.257051384892578,-5.983520569390277,-7.776100823010037,11.163999999989755
311835.0447,-7.200045669238507,-5.473445516540518,-6.0886190666640845,-7.908513583480342,11.165000000037253
311835.0457,-7.577691962989761,-5.454094004089433,-5.93549274137649,-7.747237179033697,11.166000000026543
311835.0467,-7.595672561673358,-5.180620409434018,-5.510336107920541,-7.281225436220778,11.167000000015832
311835.0477,-7.251163545249956,-4.65509699781595,-4.819140397480564,-6.519659186621277,11.168000000005122
311835.0487,-6.565115738779208,-3.9003351666546187,-3.887826145456943,-5.491948471160974,11.168999999994412
311835.0497,-5.580637605722099,-2.9582098439468214,-2.7606107584405293,-4.245961394006175,11.169999999983702
311835.0507,-4.35954936269758,-1.8861687392501103,-1.4967444920168214,-2.844622065274678,11.1710000000312
311835.0517,-2.9774168872696034,-0.7522535671611927,-0.16590119231496794,-1.361174138765894,11.172000000020489
311835.0527,-1.5175122391035227,0.3708948297407576,1.157363742022396,0.12646730373451043,11.173000000009779
311835.0537,-0.06424370875442757,1.4124762595491636,2.399588463063152,1.5417665044334075,11.173999999999069
311835.0547,1.303356798081161,2.3098006279268564,3.494273016995196,2.815473427573321,11.174999999988358
311835.0557,2.5175116752881075,3.013787376786251,4.387111918435067,3.8908527948880294,11.176000000035856
311835.0567,3.526428075422046,3.4931689617875485,5.040122586541315,4.727767340625305,11.177000000025146
311835.0577,4.297480585759331,3.7369972312393696,5.434305865622795,5.305255841839839,11.178000000014435
311835.0587,4.81859511577624,3.7552154283704975,5.570613321438447,5.622389327032841,11.179000000003725
311835.0597,5.097754772392735,3.577245580160698,5.469155046138068,5.6973518103836716,11.179999999993015
311835.0607,5.160726188067009,3.2487331163008544,5.166746072110779,5.564859227640908,11.180999999982305
311835.0617,5.047271290135804,2.826769017090459,4.713043467864154,5.272185839324195,11.182000000029802
311835.0627,4.806248915557335,2.3740572481053808,4.165655092362659,4.874196247707639,11.183000000019092
311835.0637,4.490109711562146,1.952597318572837,3.584692603601924,4.427870987120475,11.184000000008382
311835.0647,4.14933709911224,1.617498510775811,3.0272870754986916,3.9868558473795135,11.184999999997672
311835.0657,3.827382240781455,1.4115290579987867,2.5425813575381673,3.5965557785802136,11.185999999986961
311835.0667,3.5565827511304584,1.360931524245299,2.1676598460970142,3.2902345269167523,11.187000000034459
311835.0677,3.355449307940202,1.4729118141094688,1.9247791226568196,3.086477100670045,11.188000000023749
311835.0687,3.2275619563752382,1.7350456292705718,1.820131668462476,2.9882341129136782,11.189000000013039
311835.0697,3.162152893925297,2.116658698246899,1.8442225649758368,2.983508639423738,11.190000000002328
311835.0707,3.1362812047114863,2.572043996504848,1.973780699560509,3.0475830686831618,11.190999999991618
311835.0717,3.1183442780749226,3.0451992732226882,2.174977002947618,3.1465315306801576,11.191999999980908
311835.0727,3.0725363240242616,3.4756190699901137,2.4075971440649533,3.241637747795096,11.193000000028405
311835.0737,2.9637696904558077,3.8045716322803074,2.629726988105547,3.294250822443135,11.194000000017695
311835.0747,2.7625288840233537,3.9812428415928625,2.8024644939071917,3.27057102328968,11.195000000006985
311835.0757,2.4491347665042924,3.9681412898301485,2.8941756930627482,3.145867885260048,11.195999999996275
311835.0767,2.0169565519166106,3.7452297532402463,2.8838642712142306,2.907692731131589,11.196999999985565
311835.0777,1.4742159970390774,3.3123717022780266,2.763318668541262,2.5577510140442516,11.198000000033062
311835.0787,0.844170994838738,2.689845103275188,2.537827972752217,2.1122363599833505,11.199000000022352
311835.0797,0.1636305213729522,1.9168636917434352,2.225405419267613,1.6005842957532115,11.200000000011642
311835.0807,-0.5200767508098019,1.048239811973164,1.8546113118914431,1.0627639057259999,11.201000000000931
311835.0817,-1.1533987590689436,0.14950392179886693,1.4612104037287446,0.5453742019949956,11.201999999990221
311835.0827,-1.681707832042123,-0.7090536872543906,1.0840180002187507,0.09693411544027139,11.203000000037719
311835.0837,-2.0547947191688682,-1.4588481643925784,0.7603724279601137,-0.2371613746954925,11.204000000027008
311835.0847,-2.2321613622531773,-2.0393517930659972,0.5217107773975398,-0.4195096588907231,11.205000000016298
311835.0857,-2.1875765385258252,-2.403722024741993,0.3897160682762435,-0.42489786124323836,11.206000000005588
311835.0867,-1.9124231836221097,-2.523165496279438,0.37344805086314187,-0.24339649311933603,11.206999999994878
311835.0877,-1.4174778451822714,-2.389619788499828,0.46777225747943413,0.11797719854631804,11.207999999984168
311835.0887,-0.732910620879974,-2.016497252022906,0.6532722950193333,0.6352139709947145,11.209000000031665
311835.0897,0.09353618623829371,-1.4374223781259914,0.8976815304344963,1.2689152261162178,11.210000000020955
311835.0907,1.0000570816071184,-0.7030876779316235,1.158716990825582,1.9674117287749615,11.211000000010245
311835.0917,1.9156826218504834,0.12346598935113558,1.3880556653378482,2.671117150580918,11.211999999999534
311835.0927,2.7661351420256586,0.9726878219250853,1.53607561593165,3.31771265738081,11.212999999988824
311835.0937,3.4801117630392047,1.7749112479746727,1.5569031152599306,3.8476752034491293,11.214000000036322
311835.0947,3.9954202285931166,2.4666897101686973,1.4132705929326277,4.209625880456284,11.215000000025611
311835.0957,4.264402590413466,2.996468527477268,1.0807022661347707,4.364989239062462,11.216000000014901
311835.0967,4.258145139328929,3.3290547258199172,0.5506039804168614,4.2915186162445655,11.217000000004191
311835.0977,3.9690842327560576,3.448466214172626,-0.16806465086709255,3.9853499673797987,11.21799999999348
311835.0987,3.4117661224143974,3.358901407260945,-1.0487240056778993,3.4613870732258865,11.21899999998277
311835.0997,2.6216902701271536,3.0837546334116404,-2.0487493717927636,2.751980595185219,11.220000000030268
311835.1007,1.652343482146643,2.6627933301384115,-3.112564964456154,1.9040267275071265,11.221000000019558
311835.1017,0.5706994245216823,2.1477914499237913,-4.175988574274875,0.9747622215450257,11.222000000008848
311835.1027,-0.5484013009519467,1.5970622496289977,-5.171437142823558,0.026656615270140023,11.222999999998137
311835.1037,-1.6284747244617022,1.0694382453772235,-6.03351933882041,-0.8781124834354134,11.223999999987427
311835.1047,-2.5976537800727844,0.6182964715741147,-6.704502239442655,-1.6830774839781342,11.225000000034925
311835.1057,-3.3944213178733134,0.2862185268598293,-7.139149361654132,-2.3422818649429025,11.226000000024214
311835.1067,-3.9723083725380532,0.10080826541904986,-7.308485615249384,-2.8240164731896966,11.227000000013504
311835.1077,-4.3031543898423985,0.0720721358277011,-7.202145653268344,-3.113149331742589,11.228000000002794
311835.1087,-4.378667603367751,0.1916098393925717,-6.829095824685075,-3.211846026452819,11.228999999992084
311835.1097,-4.210188580176373,0.4336817921655709,-6.216673544263336,-3.138635714447494,11.229999999981374
311835.1107,-3.8267319542797638,0.7580327647769016,-5.4080465095425225,-2.9259394112211288,11.231000000028871
311835.1117,-3.2715437720856513,1.1141765309445022,-4.458342458780888,-2.616326610312961,11.23200000001816
311835.1127,-2.597548952054276,1.446701604235457,-3.4298237372252443,-2.2578888350709585,11.23300000000745
311835.1137,-1.8621619498591233,1.7010574530151197,-2.386567899420481,-1.8992024390439417,11.23399999999674
311835.1147,-1.121984509272913,1.829233868754836,-1.3891575795952906,-1.5843897136475689,11.23499999998603
311835.1157,-0.4279128062962278,1.7947580069491467,-0.48987596256127586,-1.348773609086852,11.236000000033528
311835.1167,0.17887702051074725,1.5765028275477622,0.27115078288849265,-1.2155585756157246,11.237000000022817
311835.1177,0.669695293309935,1.17092037532343,0.8685202543931737,-1.193864458621003,11.238000000012107
311835.1187,1.029622613422328,0.5924717120197667,1.292616250770699,-1.2783025096356329,11.239000000001397
311835.1197,1.2572336342968369,-0.12779333460550152,1.5491036899116246,-1.4501260593077872,11.239999999990687
311835.1207,1.3628465916662045,-0.945367069917389,1.6569482044750294,-1.6798287270260621,11.241000000038184
311835.1217,1.3655373094119767,-1.8068130475191302,1.6451977703383907,-1.930916021560152,11.242000000027474
311835.1227,1.289283604111738,-2.6552387365769103,1.548884336393734,-2.1644563897916393,11.243000000016764
311835.1237,1.1586947152692453,-3.436159713408985,1.404487612776705,-2.34393710336078,11.244000000006054
311835.1247,0.9948216685817871,-4.103160657814707,1.2454426655916686,-2.439916906606475,11.244999999995343
311835.1257,0.8115341683439627,-4.622774848530186,1.0981639133219818,-2.4339845213337803,11.245999999984633
311835.1267,0.6128887193555588,-4.978077982308607,0.9790014876362684,-2.3215983753889002,11.24700000003213
311835.1277,0.39180728822438715,-5.170616897424752,0.8924473942893614,-2.1134919188763637,11.24800000002142
311835.1287,0.13024650449092914,-5.220457056380961,0.8307783380675345,-1.8354700216983457,11.24900000001071
311835.1297,-0.19912180738380175,-5.164318484528633,0.7751725053686829,-1.5265814280225867,11.25
311835.1307,-0.6298610077835887,-5.051960038270252,0.6981839856107802,-1.2358144520611059,11.25099999998929
311835.1317,-1.1976434961634552,-4.941147658840806,0.5673162481307548,-1.0176120931137542,11.252000000036787
311835.1327,-1.9354628538209164,-4.891686269160354,0.3493194748300012,-0.9266238290856263,11.253000000026077
311835.1337,-2.8686806322560914,-4.959092861877224,0.01475737252553301,-1.0121925075586569,11.254000000015367
311835.1347,-4.010436323121124,-5.188530249267749,-0.45764453751032486,-1.3131078536088263,11.255000000004657
311835.1357,-5.357928067533766,-5.609602495960963,-1.0773416174548633,-1.8531396917212173,11.255999999993946
311835.1367,-6.8899989963722295,-6.232535728851382,-1.8394128121112834,-2.637795597793599,11.256999999983236
311835.1377,-8.566346351762242,-7.046139077660083,-2.7234070081556614,-3.6526357996661525,11.258000000030734
311835.1387,-10.328518852031456,-8.017772275680889,-3.693759640711982,-4.863333432618745,11.259000000020023
311835.1397,-12.102696697839782,-9.095355146544296,-4.701790721768024,-6.2175046493708885,11.260000000009313
311835.1407,-13.80407477000909,-10.211258317210957,-5.68913696660934,-7.648166362779142,11.260999999998603
311835.1417,-15.342509937677999,-11.287733019301548,-6.592324751609427,-9.078525665219406,11.261999999987893
311835.1427,-16.62896371625425,-12.24338839942746,-7.348071740371269,-10.427679072644553,11.26300000003539
311835.1437,-17.5821847199935,-13.000121904001938,-7.8988250806341185,-11.616713835188945,11.26400000002468
311835.1447,-18.13504029516844,-13.489862086426578,-8.198011265054587,-12.57466590817125,11.26500000001397
311835.1457,-18.23992728777422,-13.660498177656649,-8.214490665451217,-13.24380336904017,11.26600000000326
311835.1467,-17.87276662674993,-13.480445613424612,-7.93577706274494,-13.583768648287682,11.26699999999255
311835.1477,-17.035208584533052,-12.941424276622486,-7.369693056882232,-13.574221584472836,11.26799999998184
311835.1487,-15.754833898725357,-12.059194243362244,-6.544275670962575,-13.215767427038882,11.269000000029337
311835.1497,-14.083315559602054,-10.87218615362431,-5.50590914063644,-12.529115690071501,11.270000000018626
311835.1507,-12.092690038569541,-9.43816145233244,-4.315828255120214,-11.552581534498136,11.271000000007916
311835.1517,-9.870057624394821,-7.829222600895217,-3.0452897154105507,-10.33819511960159,11.271999999997206
311835.1527,-7.511173119155595,-6.1256471732450075,-1.769835943650823,-8.946811335996436,11.272999999986496
311835.1537,-5.113486962700216,-4.409127769894351,-0.5631633200200732,-7.442700390945833,11.274000000033993
311835.1547,-2.7692435093941214,-2.7560515981113007,0.5088536005208416,-5.888140575637162,11.275000000023283
311835.1557,-0.5592332598581633,-1.2314445067212885,1.3934426820732781,-4.338524543424994,11.276000000012573
311835.1567,1.4522696498331005,0.11586472899745587,2.0550436369837297,-2.838430878264559,11.277000000001863
311835.1577,3.220968160778637,1.256426157825516,2.4778785234989784,-1.4190097693921486,11.277999999991152
311835.1587,4.724137654388035,2.1814259117455403,2.666758481656717,-0.09689557952637454,11.27900000003865
311835.1597,5.960268942763646,2.9019367926566573,2.6460659484101567,1.125296462952141,11.28000000002794
311835.1607,6.946855001413208,3.4462751463434573,2.4570211627091267,2.256991904937245,11.28100000001723
311835.1617,7.7165897743296,3.8557599296655796,2.1535006655275097,3.316447569087946,11.28200000000652
311835.1627,8.312392228383455,4.1793228608359465,1.7968085660498148,4.326683330158232,11.282999999995809
311835.1637,8.78177254790805,4.467526746675632,1.4498959155000826,5.311011341371617,11.283999999985099
311835.1647,9.171110188424748,4.766602079301439,1.171570646952296,6.288656332945004,11.285000000032596
311835.1657,9.520410653824136,5.113104768138243,1.0112358247259183,7.270948135971194,11.286000000021886
311835.1667,9.859049946160725,5.5297312952201345,1.0046380282352692,8.258506515077197,11.287000000011176
311835.1677,10.202908638419709,6.022708332888717,1.1710061469465798,9.239734832658016,11.288000000000466
311835.1687,10.553152183157982,6.581013776838248,1.5118236666566576,10.190803323954444,11.288999999989755
311835.1697,10.896744853989807,7.177501053263371,2.0113180999982485,11.07714833448507,11.290000000037253
311835.1707,11.208608380428137,7.771806731779397,2.6385851015481405,11.85635612789091,11.291000000026543
311835.1717,11.455170291304785,8.314741845384447,3.351108166022919,12.482154544278888,11.292000000015832
311835.1727,11.59890758355149,8.753717610827755,4.099302822906441,12.90911742329162,11.293000000005122
311835.1737,11.603392273754375,9.0386512367996,4.831619642456078,13.097607228459054,11.293999999994412
311835.1747,11.43829635210565,9.127747581393303,5.4996921845408915,13.018448841866572,11.294999999983702
311835.1757,11.083819363482018,8.992562527518047,6.063018698281932,12.65684554511024,11.2960000000312
311835.1767,10.534061586632872,8.621823123932028,6.492719350240804,12.015115288824123,11.297000000020489
311835.1777,9.7989735190759,8.023601007086935,6.77400850981369,11.1139351520256,11.298000000009779
311835.1787,8.904657305207907,7.225597436755863,6.907154250207825,9.991923832278868,11.298999999999069
311835.1797,7.891963396641358,6.2734845280829035,6.906851427763022,8.703552298403942,11.299999999988358
311835.1807,6.813499394519187,5.227439612721411,6.800095098403229,7.315535719045482,11.301000000035856
311835.1817,5.729330394482678,4.157189171508307,6.622791681374555,5.902009458436474,11.302000000025146
311835.1827,4.701785060276849,3.136027763926934,6.415471274213383,4.538913549425599,11.303000000014435
311835.1837,3.7898756360805943,2.234381140797238,6.218553440764978,3.298091551018271,11.304000000003725
311835.1847,3.043883761631924,1.5135310061114404,6.067661932829463,2.241642897082171,11.304999999993015
311835.1857,2.5006528416530727,1.0201068715881227,5.98947702730024,1.4170492665957486,11.305999999982305
311835.1867,2.180062812850484,0.7818792136591992,5.998558287132639,0.8535267257734049,11.307000000029802
311835.1877,2.083050728281331,0.8052645884270774,6.09547127469491,0.5599428859445551,11.308000000019092
311835.1887,2.191391610516678,1.0747895000857728,6.266419039221535,0.5244928449453923,11.309000000008382
311835.1897,2.469283092770365,1.5545716118130986,6.48442633908378,0.7161632238949056,11.309999999997672
311835.1907,2.8666012301525594,2.1916826767063022,6.7119667919028245,1.0878460350181558,11.310999999986961
311835.1917,3.323530814115387,2.921076279214738,6.9047761830633405,1.580809601566902,11.312000000034459
311835.1927,3.7761376924198373,3.6716127814548383,7.016473630053993,2.1301072233125606,11.313000000023749
311835.1937,4.162356371660425,4.372608442285838,7.003528291051952,2.67041795327661,11.314000000013039
311835.1947,4.427822891119634,4.960285777596579,6.83007119722905,3.141776032196633,11.315000000002328
311835.1957,4.530994966284244,5.3835126943148435,6.472063415260823,3.4946598120685133,11.315999999991618
311835.1967,4.447067668554438,5.6082877036136045,5.920392032150222,3.6939759216358707,11.316999999980908
311835.1977,4.170307094007346,5.62055076124743,5.182568518953355,3.7215836001962312,11.318000000028405
311835.1987,3.714575553511774,5.427062042509816,4.2828397737765185,3.5771468748521666,11.319000000017695
311835.1997,3.1119951541440627,5.054278342268028,3.260677244737002,3.27726465595406,11.320000000006985
311835.2007,2.40987542051325,4.545350518692626,2.1677687561222987,2.8529950648646833,11.320999999996275
311835.2017,1.666197465629097,3.955546599125644,1.0637853572835623,2.346044234072828,11.321999999985565
311835.2027,0.9440859581369508,3.3465562153002053,0.011317157161527312,1.8040165135808202,11.323000000033062
311835.2037,0.30579727349864144,2.7802382828028116,-0.9295442834002924,1.2752102504598037,11.324000000022352
311835.2047,-0.19320166416629367,2.3124250376834192,-1.7064621173900543,0.8034827314824123,11.325000000011642
311835.2057,-0.5094987051153671,1.9873868400647723,-2.279446774479519,0.4236958319966224,11.326000000000931
311835.2067,-0.6158447228204047,1.8334945617652272,-2.6243443676926694,0.1581917764464303,11.326999999990221
311835.2077,-0.5037157565636634,1.8604966567951908,-2.7348849571285965,0.014642460206335096,11.328000000037719
311835.2087,-0.18408959198647007,2.0586680150299044,-2.6230920892908878,-0.014523446975144738,11.329000000027008
311835.2097,0.31363028468104787,2.399903176809059,-2.3180119482357684,0.04892987724753013,11.330000000016298
311835.2107,0.9444319699592121,2.8406355578493585,-1.8628816518331617,0.17160198248152636,11.331000000005588
311835.2117,1.6519750799741313,3.32628570154619,-1.3110060479267984,0.31225141803542644,11.331999999994878
311835.2127,2.3739150160449385,3.7967926929423896,-0.7207362585326884,0.42643870686740176,11.332999999984168
311835.2137,3.047754446168424,4.19267823361075,-0.15002915197987626,0.4715415532781197,11.334000000031665
311835.2147,3.616656542002436,4.461042617760527,0.34889344998713795,0.4116296250090136,11.335000000020955
311835.2157,4.034661162151563,4.560900740788932,0.7342775410079999,0.22169993927499176,11.336000000010245
311835.2167,4.270806013641348,4.467333272693974,0.9785130117716148,-0.10916294931181014,11.336999999999534
311835.2177,4.311763764722998,4.174046498926242,1.0704073020480689,-0.5760313741435025,11.337999999988824
311835.2187,4.162752354877009,3.6940922978436297,1.0158470702501392,-1.1579739102846451,11.339000000036322
311835.2197,3.8466449630775594,3.0586816467999873,0.8367945260578161,-1.8195218745950172,11.340000000025611
311835.2207,3.4013816561122434,2.3142129629158634,0.5687260761941528,-2.5136336796423175,11.341000000014901
311835.2217,2.875949468315803,1.5178119699866122,0.2567710835278973,-3.1858787414325844,11.342000000004191
311835.2227,2.325335490468431,0.731825389664971,-0.049066753211542545,-3.7794408259809766,11.34299999999348
311835.2237,1.8049550768874547,0.01781230124915638,-0.29913571736919986,-4.240458112123171,11.34399999998277
311835.2247,1.365105115014382,-0.5693754077165133,-0.44929917452318946,-4.523182005905668,11.345000000030268
311835.2257,1.0459859483230511,-0.9868430287449544,-0.4655331511082737,-4.594452361981875,11.346000000019558
311835.2267,0.8737758490526991,-1.2077212344938022,-0.3275135663143962,-4.437051738534347,11.347000000008848
311835.2277,0.85813499592433,-1.2236589226303984,-0.030848876827229536,-4.051609262718698,11.347999999998137
311835.2287,0.9913724511844004,-1.0455043102404624,0.41225238658752267,-3.456865008144807,11.348999999987427
311835.2297,1.2493439438250662,-0.7021179365899861,0.9739360540958433,-2.6882646903005005,11.350000000034925
311835.2307,1.5939767911426554,-0.23744624580812143,1.6131771101493615,-1.795016347179172,11.351000000024214
311835.2317,1.9771579872544307,0.2938439645693796,2.279525486875085,-0.8358895802141862,11.352000000013504
311835.2327,2.345588156009449,0.8317287328311309,2.9177509370673897,0.1258407432216241,11.353000000002794
311835.2337,2.64611079260272,1.3166494173375511,3.4729296184336502,1.027822582584329,11.353999999992084
311835.2347,2.8309820864530497,1.6952131845894356,3.8954749289553967,1.813908514539811,11.354999999981374
311835.2357,2.8625558200041783,1.9252053256734376,4.1456241471894195,2.4387895720245085,11.356000000028871
311835.2367,2.716919272852541,1.9794187958598783,4.196949450699419,2.871545039104114,11.35700000001816
311835.2377,2.3861234548880605,1.847927176168821,4.038561082179293,3.0977802357990476,11.35800000000745
311835.2387,1.8787935341738795,1.5385851833766533,3.675801838003047,3.120164297672767,11.35899999999674
311835.2397,1.219068745509061,1.0757201120739674,3.1293825550678434,2.9573379134070934,11.35999999998603
311835.2407,0.4439890572290715,0.497160270893493,2.4330629140384006,2.6413213163174256,11.361000000033528
311835.2417,-0.40039828819938134,-0.1500856687485237,1.6301253443279433,2.213699704325342,11.362000000022817
311835.2427,-1.263811046244978,-0.8150482276578745,0.7690079432534027,1.7209822062237519,11.363000000012107
311835.2437,-2.096893900655195,-1.4483743491904417,-0.101456510601828,1.2096098141049068,11.364000000001397
311835.2447,-2.856242108411205,-2.007684391832614,-0.9367120953144711,0.7211195838371154,11.364999999990687
311835.2457,-3.5087729966423034,-2.4621523883955336,-1.7005905730585915,0.2879537795869279,11.366000000038184
311835.2467,-4.034996973988041,-2.7958305680440088,-2.368449387284645,-0.06966459223296159,11.367000000027474
311835.2477,-4.430850166694324,-3.009365104349907,-2.9290249315874126,-0.34547754716968937,11.368000000016764
311835.2487,-4.7078951954850075,-3.1199120716927533,-3.3848204701565767,-0.5473870704371305,11.369000000006054
311835.2497,-4.8918606536880835,-3.1592446405578327,-3.750997341600325,-0.6960844933618715,11.369999999995343
311835.2507,-5.01965727301224,-3.170226574320542,-4.0528904562188925,-0.8222584680587852,11.370999999984633
311835.2517,-5.135162979920812,-3.201994815358518,-4.3224094528989045,-0.9626704408021779,11.37200000003213
311835.2527,-5.2841947620525245,-3.3043286323616443,-4.59370125718042,-1.1555026943921203,11.37300000002142
311835.2537,-5.509169993064795,-3.5217709148755967,-4.898526780183438,-1.4354600728120248,11.37400000001071
311835.2547,-5.843995146580184,-3.888099759118987,-5.261836403346448,-1.8291347912886649,11.375
311835.2557,-6.3097020635321845,-4.421721939872075,-5.698012428822002,-2.351121335629285,11.37599999998929
311835.2567,-6.911282728702729,-5.122476452795745,-6.208183322874041,-3.0012974130626557,11.377000000036787
311835.2577,-7.636059518372024,-5.970203878462188,-6.778910440106279,-3.7635740666423407,11.378000000026077
311835.2587,-8.453780156572494,-6.925268543053467,-7.382413113666084,-4.606274364378381,11.379000000015367
311835.2597,-9.318459533907248,-7.931031625267662,-7.978345691449024,-5.4841395375917426,11.380000000004657
311835.2607,-10.171820383558883,-8.918082811769855,-8.51698520515306,-6.3417997762343346,11.380999999993946
311835.2617,-10.948028178088553,-9.809864411365488,-8.943546090423283,-7.118399955403628,11.381999999983236
311835.2627,-11.579287810708943,-10.52918201515556,-9.203222756802429,-7.752952837236428,11.383000000030734
311835.2637,-12.001783162359517,-11.005003623803592,-9.246483299259111,-8.189915425796405,11.384000000020023
311835.2647,-12.161404019196748,-11.178913861399217,-9.034106025563675,-8.384455854122141,11.385000000009313
311835.2657,-12.01872163420996,-11.01061517652589,-8.54146806785995,-8.30690144071015,11.385999999998603
311835.2667,-11.552742958095964,-10.481951647792888,-7.76166068519538,-7.945931338035667,11.386999999987893
311835.2677,-10.763087584101902,-9.599065345698918,-6.707112822461941,-7.310192649197218,11.38800000003539
311835.2687,-9.670379741189292,-8.392467415774455,-5.409542877237117,-6.428165981656235,11.38900000002468
311835.2697,-8.314815884628263,-6.9149997075106455,-3.9182151642940837,-5.346271009070119,11.39000000001397
311835.2707,-6.75304030269284,-5.237859345970077,-2.296637190213396,-4.125368863974073,11.39100000000326
311835.2717,-5.053620075212019,-3.445039290089817,-0.6179811631039966,-2.8359700396412237,11.39199999999255
311835.2727,-3.291541359512828,-1.6266853290774175,1.0403660568265765,-1.552579268669396,11.39299999998184
311835.2737,-1.5422387912822462,0.12802997462931412,2.602637774668223,-0.3476907033075449,11.394000000029337
311835.2747,0.1242897856549914,1.7378727194678218,4.000383833892411,0.7140202565063559,11.395000000018626
311835.2757,1.6487437445552848,3.135726566202647,5.177518575551459,1.5807811317011191,11.396000000007916
311835.2767,2.986680128506317,4.2734360644596645,6.094272011772973,2.2176243123456207,11.396999999997206
311835.2777,4.111208628759995,5.124893804810711,6.729699808481313,2.608761140602671,11.397999999986496
311835.2787,5.01399961734642,5.687118338386902,7.082543931691218,2.758227577963761,11.399000000033993
311835.2797,5.704548056568202,5.97926023916181,7.170391182133554,2.688764485421456,11.400000000023283
311835.2807,6.207804601024737,6.039668650410287,7.027236323314246,2.4390618119917757,11.401000000012573
311835.2817,6.560441485227203,5.921331429879369,6.69970473859311,2.05964892485473,11.402000000001863
311835.2827,6.806149687719166,5.6861513064611495,6.242312307772436,1.6078382433123724,11.402999999991152
311835.2837,6.990452943496031,5.398624115475658,5.712225760785784,1.1422143379236824,11.40400000003865
311835.2847,7.155564936052534,5.119533493536667,5.164027078944277,0.7171977144692789,11.40500000002794
311835.2857,7.335804688101219,4.900265086582548,4.644976927808437,0.378198285868608,11.40600000001723
311835.2867,7.55402314538219,4.778273848971634,4.191215740784244,0.15780969770719697,11.40700000000652
311835.2877,7.819387537857266,4.774117510416516,3.825242695533614,0.07338868150512211,11.407999999995809
311835.2887,8.126729974132429,4.890309805105777,3.5548822768263952,0.12622410194574551,11.408999999985099
311835.2897,8.457506835506303,5.112064375280368,3.3737983462034147,0.30234210239788484,11.410000000032596
311835.2907,8.782251761816788,5.409812355064445,3.263461423595447,0.5748322767413069,11.411000000021886
311835.2917,9.064253598490366,5.743201924119835,3.1963313995746496,0.9074309035627228,11.412000000011176
311835.2927,9.264066604572925,6.066143654055549,3.139899212295476,1.2589754888790476,11.413000000000466
311835.2937,9.344375797670736,6.332365296717603,3.061148738108889,1.5882619988133566,11.413999999989755
311835.2947,9.274703907310727,6.500893443968788,2.9309622464172733,1.858800203835354,11.415000000037253
311835.2957,9.035461651559187,6.540891565573501,2.728002852840914,2.042976864747311,11.416000000026543
311835.2967,8.620908464712056,6.4353529106672305,2.441664323170686,2.1251994929201152,11.417000000015832
311835.2977,8.040699942362174,6.18326565061004,2.0737765597532056,2.1036987609877142,11.418000000005122
311835.2987,7.319840352962295,5.800024554962493,1.6388843105871396,1.9908048219305694,11.418999999994412
311835.2997,6.497019530414974,5.316042802943247,1.1630641602613716,1.8116681919808686,11.419999999983702
311835.3007,5.621477349054621,4.773701418178512,0.6813959575450106,1.601554061940995,11.4210000000312
311835.3017,4.748689500417586,4.222944007993975,0.234344412869766,1.4019842479777258,11.422000000020489
311835.3027,3.935290426778986,3.7159640742844458,-0.13657930427025655,1.2561190710484391,11.423000000009779
311835.3037,3.233730765434,3.301527241042938,-0.3934289770041654,1.203850542414813,11.423999999999069
311835.3047,2.6871992395672355,3.019511798548563,-0.5062283550308194,1.2771104475658146,11.424999999988358
311835.3057,2.325319114664669,2.8962338045281695,-0.4567060812337801,1.495878994267092,11.426000000035856
311835.3067,2.161058795970545,2.941049157497091,-0.2409593164554189,1.8653132950819609,11.427000000025146
311835.3077,2.1891815474673795,3.144601709700343,0.1292519302712943,2.3743065438457953,11.428000000014435
311835.3087,2.386411701423272,3.478925656145662,0.6267438532776052,2.9956489227165397,11.429000000003725
311835.3097,2.713328423349972,3.8994278800647217,1.2106939130814984,3.687803756264339,11.429999999993015
311835.3107,3.117829316217793,4.34858958556269,1.8298304424217067,4.398152691684067,11.430999999982305
311835.3117,3.539851414051532,4.761054751711414,2.426743819475332,5.067417454672961,11.432000000029802
311835.3127,3.916911643328235,5.069632658756281,2.9429213618600647,5.634847433313965,11.433000000019092
311835.3137,4.189945033962896,5.211646872917661,3.3240313441684344,6.043683682756432,11.434000000008382
311835.3147,4.3088852303926055,5.135023116073853,3.5249506908581245,6.246378755533193,11.434999999997672
311835.3157,4.237451724982779,4.803527517280922,3.5140492501212743,6.209071236172801,11.435999999986961
311835.3167,3.9566800386040346,4.200643202550873,3.2763096057171515,5.914882224056004,11.437000000034459
311835.3177,3.4668480762350993,3.331699770537265,2.814968948603119,5.365711704459329,11.438000000023749
311835.3187,2.7876029450974866,2.2240347568949863,2.1515083412771823,4.582355063119159,11.439000000013039
311835.3197,1.9562631587651511,0.9251528157117721,1.3239714093122947,3.602920119511988,11.440000000002328
311835.3207,1.0244449490585508,-0.5009610259760243,0.38375394105053423,2.479687411007421,11.440999999991618
311835.3217,0.053321613869366465,-1.979041535212964,-0.6088473918464309,1.2747052572236468,11.441999999980908
311835.3227,-0.892044024315284,-3.428779773438477,-1.5899192286433401,0.054531890355951414,11.443000000028405
311835.3237,-1.748764565317257,-4.771519854203934,-2.4975595700059188,-1.1153820954974492,11.444000000017695
311835.3247,-2.4620218838795567,-5.936796091627641,-3.2773261365052426,-2.1761444120338758,11.445000000006985
311835.3257,-2.990236558235797,-6.868106318653334,-3.8869970399668827,-3.0801958599693218,11.445999999996275
311835.3267,-3.309027461974172,-7.527390703664977,-4.300199957827624,-3.794966916112896,11.446999999985565
311835.3277,-3.4135902412869363,-7.89780969497634,-4.508572693255404,-4.305083093084878,11.448000000033062
311835.3287,-3.3192727669648767,-7.984577703850871,-4.522256957030779,-4.612927225430701,11.449000000022352
311835.3297,-3.06029587672976,-7.813794986417478,-4.368685047801547,-4.7375261363882615,11.450000000011642
311835.3307,-2.6867424420573403,-7.429410892518277,-4.089780634431125,-4.711891013215221,11.451000000000931
311835.3317,-2.260100232164026,-6.8886287587367,-3.737844505824777,-4.579089489831096,11.451999999990221
311835.3327,-1.8477786532345952,-6.256209125764723,-3.370519556859467,-4.387448435899053,11.453000000037719
311835.3337,-1.5171133842681046,-5.5982295588170095,-3.0453145863509374,-4.185368035029123,11.454000000027008
311835.3347,-1.3294173457614908,-4.97590642266807,-2.8142055594513566,-4.0162620228863535,11.455000000016298
311835.3357,-1.334627272344763,-4.440072105895678,-2.718822186492597,-3.914122705427677,11.456000000005588
311835.3367,-1.5670335622514056,-4.026831738051461,-2.7866681853028417,-3.9001442947464358,11.456999999994878
311835.3377,-2.0424732680933726,-3.7548033399322134,-3.0287213334802012,-3.980730671406018,11.457999999984168
311835.3387,-2.757222758247401,-3.6241864575760987,-3.4386244268977983,-4.147074536651018,11.459000000031665
311835.3397,-3.688661811198109,-3.617722288680433,-3.9935237415658853,-4.376337784687684,11.460000000020955
311835.3407,-4.797610832615697,-3.703420991014147,-4.656452614920893,-4.634303287932718,11.461000000010245
311835.3417,-6.032084086886019,-3.83875763815775,-5.3800097831355185,-4.8792218668505765,11.461999999999534
311835.3427,-7.332069724475738,-3.975894232639476,-6.110959484801321,-5.066459425579058,11.462999999988824
311835.3437,-8.634854704039466,-4.067385405739253,-6.7952949083251335,-5.153469769739547,11.464000000036322
311835.3447,-9.880368276498004,-4.071779680641442,-7.383266494366516,-5.104586309143552,11.465000000025611
311835.3457,-11.01602556348643,-3.958540893576724,-7.833885617132641,-4.895143871265935,11.466000000014901
311835.3467,-12.00061180355433,-3.7117842463060775,-8.118471149771255,-4.514508441529667,11.467000000004191
311835.3477,-12.806851886644777,-3.332441564002479,-8.222905553164939,-3.9677012487743215,11.46799999999348
311835.3487,-13.422448248589427,-2.8386287644202493,-8.148398468058451,-3.275443529464766,11.46899999998277
311835.3497,-13.84952907180695,-2.2641696299474585,-7.910706245081148,-2.472605736791175,11.470000000030268
311835.3507,-14.10261206417051,-1.6554157911237324,-7.537910469868271,-1.6052043727517096,11.471000000019558
311835.3517,-14.205340486929666,-1.0666749759748488,-7.067002007260644,-0.7262352582972122,11.472000000008848
311835.3527,-14.186372415631787,-0.5547009875786667,-6.539635210230678,0.10925050208847746,11.472999999998137
311835.3537,-14.074889010707604,-0.17279549905349267,-5.99749806133919,0.8493440253892706,11.473999999987427
311835.3547,-13.896224372776826,0.03488602953378104,-5.477780167101892,1.4502358291638988,11.475000000034925
311835.3557,-13.668104692012049,0.03824846517939381,-5.009208207936873,1.8804396302800286,11.476000000024214
311835.3567,-13.397919372690925,-0.17511110333602206,-4.609058969828784,2.1238592411073522,11.477000000013504
311835.3577,-13.081338149950817,-0.5979323828027814,-4.28145943860596,2.1813866452572475,11.478000000002794
311835.3587,-12.70244682117298,-1.2031990980342673,-4.017151696086803,2.070862135163433,11.478999999992084
311835.3597,-12.235414291624146,-1.9459583313397908,-3.7947506735575867,1.8253874216318753,11.479999999981374
311835.3607,-11.647541271390788,-2.7668985660378715,-3.5833701236639066,1.4901441909517152,11.481000000028871
311835.3617,-10.903392533625583,-3.5973601852397388,-3.3463516962223214,1.1180178187011791,11.48200000001816
311835.3627,-9.969595186111636,-4.365310839604699,-3.0457177661954336,0.7644443633622873,11.48300000000745
311835.3637,-8.819807113773088,-5.0017221668266405,-2.6468920860538163,0.48197687811288464,11.48399999999674
311835.3647,-7.439330758554758,-5.446743259623999,-2.12320111758024,0.31509677565090016,11.48499999998603
311835.3657,-5.828870984202143,-5.655084080144647,-1.4596862524726415,0.29577445865030516,11.486000000033528
311835.3667,-4.007009991936626,-5.600096960418301,-0.6558214683024609,0.4402127036891443,11.487000000022817
311835.3677,-2.011090150362638,-5.276169054562262,0.2731639455914973,0.7470931940593579,11.488000000012107
311835.3687,0.10365412619086233,-4.699200884706184,1.2965223793340708,1.1975021188837562,11.489000000001397
311835.3697,2.2667062190968235,-3.905130047967889,2.3697966071661996,1.7565489438050508,11.489999999990687
311835.3707,4.396440073944169,-2.946646727929677,3.4380571875526345,2.3765290550910247,11.491000000038184
311835.3717,6.405522655902132,-1.8884205578100266,4.440283530049461,3.0013318775830697,11.492000000027474
311835.3727,8.207088682938226,-0.8012997660894137,5.314488563996128,3.5716757582129324,11.493000000016764
311835.3737,9.72114860653815,0.24396032348557384,6.003110228220605,4.03067106655951,11.494000000006054
311835.3747,10.880659905505592,1.1828407248598196,6.458162216128925,4.329181318602463,11.494999999995343
311835.3757,11.636714841775852,1.9624922000344023,6.645654688973429,4.4304717103594955,11.495999999984633
311835.3767,11.962372945581981,2.5459500151373518,6.548861360512549,4.313703302807696,11.49700000003213
311835.3777,11.854786661777046,2.91474393627776,6.170116186232999,3.9759424929033154,11.49800000002142
311835.3787,11.335422449463366,3.0696769246948943,5.530960578700504,3.432498481924252,11.49900000001071
311835.3797,10.448352570203786,3.029726839911642,4.670617330176457,2.7155622984447705,11.5
311835.3807,9.256768363619068,2.8292097951486244,3.6429252552815297,1.8712839354478474,11.50099999998929
311835.3817,7.83802727288107,2.5135135398751034,2.512013719189505,0.9555735252701727,11.502000000036787
311835.3827,6.2776778831349676,2.1338477569133616,1.3471146710706006,0.029033761787874975,11.503000000026077
311835.3837,4.662997248470699,1.7415519442011456,0.21699013277718399,-0.8484877005141153,11.504000000015367
311835.3847,3.0766143272227997,1.3825415102065892,-0.815512423202784,-1.6232031898065593,11.505000000004657
311835.3857,1.5907787983658948,1.0924550528764934,-1.6982790056602268,-2.2520414089691725,11.505999999993946
311835.3867,0.2627674719327315,0.8929923827592695,-2.3936868009912278,-2.70621514353406,11.506999999983236
311835.3877,-0.8681924461330787,0.7898110301099027,-2.880968854431869,-2.97336836681854,11.508000000030734
311835.3887,-1.7822518033628665,0.7721908271042929,-3.1569891026657575,-3.0581108570318083,11.509000000020023
311835.3897,-2.4784565963032277,0.8144973208846331,-3.2353844891568726,-2.980906584214545,11.510000000009313
311835.3907,-2.972563262729889,0.8792929156202471,-3.1441875680872955,-2.7754429288520415,11.510999999998603
311835.3917,-3.293421955818251,0.9217777199774265,-2.9221877812836916,-2.484755575487344,11.511999999987893
311835.3927,-3.478330046767046,0.8951065836741059,-2.6144084531114706,-2.156504291745017,11.51300000003539
311835.3937,-3.5678501380890957,0.756038157644569,-2.267158017458566,-1.8378760555763205,11.51400000002468
311835.3947,-3.6006297885109912,0.47033502883725886,-1.9231502595557133,-1.5706262607067105,11.51500000001397
311835.3957,-3.608750059629702,0.01735480745505481,-1.6171760377036053,-1.3867527368359844,11.51600000000326
311835.3967,-3.614068173276148,-0.6066514216219768,-1.3727494107105422,-1.3052327050591237,11.51699999999255
311835.3977,-3.625912337870433,-1.3868920009172148,-1.2000503145330237,-1.3301459410727452,11.51799999998184
311835.3987,-3.6403449043177347,-2.2902365905012534,-1.0953539111348023,-1.4503688588646109,11.519000000029337
311835.3997,-3.64104755983387,-3.267283084865756,-1.0419865240114934,-1.6408675776055694,11.520000000018626
311835.4007,-3.601715364070688,-4.256121234241334,-1.0126944945399174,-1.8654586876139392,11.521000000007916
311835.4017,-3.489691593107808,-5.1874555882896125,-0.97317047248098,-2.080760047354913,11.521999999997206
311835.4027,-3.2704478977830336,-5.990613243142685,-0.8863655566149944,-2.24093491653303,11.522999999986496
311835.4037,-2.912426814451221,-6.599870210324936,-0.7171367571178218,-2.302752778632669,11.524000000033993
311835.4047,-2.3917248582347774,-6.960493190507671,-0.4367452357666867,-2.230457222322428,11.525000000023283
311835.4057,-1.6961081560864624,-7.0339149757901644,-0.026735054005664075,-1.99994852537978,11.526000000012573
311835.4067,-0.8279175349869913,-6.80153977913378,0.5182166623664008,-1.601854478833913,11.527000000001863
311835.4077,0.1944701923520645,-6.266802130103001,1.1887851459107055,-1.0431710916204318,11.527999999991152
311835.4087,1.3368141063299752,-5.455267391660361,1.960993029699155,-0.34729456710678286,11.52900000003865
311835.4097,2.5508398062878332,-4.412747607778285,2.797738257100609,0.44757633477222736,11.53000000002794
311835.4107,3.777586881745772,-3.201595340996991,3.6517243567842903,1.2915281975774417,11.53100000001723
311835.4117,4.951976726187029,-1.895512093809239,4.4695210281965245,2.1272247220603364,11.53200000000652
311835.4127,6.008177835948007,-0.5733499401875858,5.1963676279925775,2.8949965890249816,11.532999999995809
311835.4137,6.8852602556648534,0.6875186928155915,5.781254449501725,3.538243611863798,11.533999999985099
311835.4147,7.532594865828033,1.817646951413706,6.181784434978455,4.008630633581738,11.535000000032596
311835.4157,7.914470555617295,2.7611770040072,6.368334503292717,4.2705764077439206,11.536000000021886
311835.4167,8.013471556582804,3.480198243893941,6.3270995848759455,4.304601330615636,11.537000000011176
311835.4177,7.832271803652925,3.9574030703002703,6.061707654620144,4.109208893491136,11.538000000000466
311835.4187,7.393652146047745,4.1968066814940705,5.5932304044820755,3.7011164837891193,11.538999999989755
311835.4197,6.738715160986237,4.2224830838391165,4.95856848778146,3.113809960103018,11.540000000037253
311835.4207,5.923444842396457,4.07545944618929,4.207347496132882,2.39455777967882,11.541000000026543
311835.4217,5.013917765334185,3.8090866075197076,3.397605673784312,1.6001686428659907,11.542000000015832
311835.4227,4.080602928922568,3.483347969230835,2.5906726824112885,0.7918972083792309,11.543000000005122
311835.4237,3.1922765828473456,3.158668213984552,1.8457189079457397,0.029983699593662982,11.543999999994412
311835.4247,2.4101171816706617,2.889827739359742,1.21448894562074,-0.631652714307686,11.544999999983702
311835.4257,1.7825302918654524,2.7205741611481216,0.7367175699337117,-1.1500632860852817,11.5460000000312
311835.4267,1.3411851531388985,2.679450254559486,0.4366630555546194,-1.4968235527790636,11.547000000020489
311835.4277,1.0986301447212634,2.7772353798845066,0.3210872006100859,-1.6601610602236367,11.548000000009779
311835.4287,1.0477046007349304,3.006236795481148,0.3788739436397223,-1.6454657986838754,11.548999999999069
311835.4297,1.1627936612076761,3.341484031814943,0.5823222985391445,-1.4741499053485896,11.549999999988358
311835.4307,1.4027975787851181,3.743691611427316,0.8899895241804772,-1.1809837267507213,11.551000000035856
311835.4317,1.7155240123970403,4.163681218968885,1.250812430498363,-0.8101830483531056,11.552000000025146
311835.4327,2.0430770236068887,4.547810972186279,1.6091128046252974,-0.41064280258901803,11.553000000014435
311835.4337,2.327722733091101,4.843860729817592,1.910008905796525,-0.03079414105656004,11.554000000003725
311835.4347,2.5176679079265116,5.006778030110364,2.1047169505570196,0.28640351067937425,11.554999999993015
311835.4357,2.57219830592232,5.0037036000716695,2.155238161474092,0.5078392416568591,11.555999999982305
311835.4367,2.465687323974651,4.817766984698892,2.037987141576238,0.613564170678151,11.557000000029802
311835.4377,2.1900961626344535,4.450264686983059,1.7460202162968428,0.5987159304751032,11.558000000019092
311835.4387,1.7557335681005066,3.9209933341786942,1.2896579675306186,0.47386658260521536,11.559000000008382
311835.4397,1.190211989787514,3.2666930927399105,0.6954513110415123,0.2637629494609264,11.559999999997672
311835.4407,0.5357113300880343,2.537743925740876,0.003600085488159687,0.004587834057650938,11.560999999986961
311835.4417,-0.1551755235487754,1.7934309407561213,-0.7359182542982328,-0.2599825966664819,11.562000000034459
311835.4427,-0.8246052707446228,1.0962379660167494,-1.468129020371974,-0.4835302673289727,11.563000000023749
311835.4437,-1.415149039132334,0.5057265746894078,-2.138283025203091,-0.6219796111488997,11.564000000013039
311835.4447,-1.8754073213609241,0.07260138691796725,-2.697014631198956,-0.6385049960456762,11.565000000002328
311835.4457,-2.165030246158558,-0.16645272104822184,-3.1049371953224907,-0.5077673166061654,11.565999999991618
311835.4467,-2.2586587029805694,-0.19264846640420447,-3.3362355216068065,-0.2190506653521781,11.566999999980908
311835.4477,-2.148408964504894,-0.007298991272981356,-3.3809151580766184,0.2220229097774699,11.568000000028405
311835.4487,-1.8446668353574962,0.36788304405113526,-3.2455013916206044,0.793383594872317,11.569000000017695
311835.4497,-1.3751228989698288,0.892434795529594,-2.9521335116276424,1.4580347609029274,11.570000000006985
311835.4507,-0.7821519058582147,1.510596929827324,-2.5361573258604877,2.1670704252786415,11.570999999996275
311835.4517,-0.1187999763361969,2.15625254102851,-2.0424655769459976,2.8639077655697562,11.571999999985565
311835.4527,0.5562225831116275,2.7588878437171562,-1.5209574610445638,3.489333327920406,11.573000000033062
311835.4537,1.184050446573248,3.2500117142906464,-1.0215730186966447,3.9868807592562034,11.574000000022352
311835.4547,1.711136035974987,3.569426172483805,-0.5893975356336784,4.308024105848028,11.575000000011642
311835.4557,2.094154452608685,3.6707537618145194,-0.26032150451267555,4.416687284734669,11.576000000000931
311835.4567,2.303868099034564,3.5256990935803603,-0.05768422852190127,4.29263562792312,11.576999999990221
311835.4577,2.3275834811333715,3.12664355112044,0.009770422167525999,3.933423017854982,11.578000000037719
311835.4587,2.169973134003092,2.4873323871248583,-0.05157065628767681,3.3547075218945386,11.579000000027008
311835.4597,1.8521976021586606,1.6415965322271135,-0.2212092628133763,2.5889059307547986,11.580000000016298
311835.4607,1.4094299056102084,0.6402395209084282,-0.4670009590979302,1.6823177863910086,11.581000000005588
311835.4617,0.8870414419976507,-0.45360525780744726,-0.7488125846047781,0.690996680984383,11.581999999994878
311835.4627,0.3358384591989815,-1.5701972033679226,-1.0230003725287726,-0.324233551721722,11.582999999984168
311835.4637,-0.1931706195862485,-2.6394408535049236,-1.2472550842210017,-1.3031393146039993,11.584000000031665
311835.4647,-0.6539534393375199,-3.5970711043031938,-1.3853238110028072,-2.1913019818804953,11.585000000020955
311835.4657,-1.0100625728661237,-4.390185878686927,-1.4111298758254704,-2.944710554765947,11.586000000010245
311835.4667,-1.2382195405621972,-4.981608924564712,-1.3118714121735928,-3.533290324699247,11.586999999999534
311835.4677,-1.3305228388816592,-5.352683305615652,-1.0897798612389622,-3.9430419474020764,11.587999999988824
311835.4687,-1.2950674787862322,-5.504252056203161,-0.7623518935369753,-4.176602988197124,11.589000000036322
311835.4697,-1.1549227154899222,-5.455760976696404,-0.3610191109390837,-4.252199381876292,11.590000000025611
311835.4707,-0.945578545627235,-5.242602058920563,0.07162552002925048,-4.201112025844107,11.591000000014901
311835.4717,-0.7111239131712557,-4.911986538800904,0.4857824201021227,-4.063928353576768,11.592000000004191
311835.4727,-0.49954532856350015,-4.517777401934374,0.8292016638754746,-3.8859660025882623,11.59299999999348
311835.4737,-0.35762135265615386,-4.114808622415183,1.0522806265068394,-3.712334110496548,11.59399999998277
311835.4747,-0.32592759749055683,-3.75326311773691,1.11300746803541,-3.5831297180445065,11.595000000030268
311835.4757,-0.4344547430939426,-3.4736692059935534,0.9812680693487966,-3.529249213963768,11.596000000019558
311835.4767,-0.6992798546658483,-3.303007737166101,0.6420944911063027,-3.5692296140736044,11.597000000008848
311835.4777,-1.1206252657161864,-3.2523059894782853,0.0975348719962045,-3.7074283306486233,11.597999999998137
311835.4787,-1.6825000711485762,-3.315941598944459,-0.6330420665628828,-3.9337136171890306,11.598999999987427
311835.4797,-2.353960740520821,-3.472705555035298,-1.5142431556546558,-4.224684720977539,11.600000000034925
311835.4807,-3.091865315816265,-3.688495061130937,-2.497427749892656,-4.546286229698861,11.601000000024214
311835.4817,-3.844846240953394,-3.9203425961951455,-3.5247024256696013,-4.85754056456565,11.602000000013504
311835.4827,-4.558104962116604,-4.1213531936319825,-4.533752791283421,-5.115010044982638,11.603000000002794
311835.4837,-5.178549182417434,-4.246031124113849,-5.463051595147229,-5.277526624652953,11.603999999992084
311835.4847,-5.65975925453985,-4.255438841649542,-6.256947266164071,-5.3107005661616355,11.604999999981374
311835.4857,-5.966287100458665,-4.121649008273801,-6.870150510132049,-5.190741645295735,11.606000000028871
311835.4867,-6.076857611772711,-3.8310228340891075,-7.271197238730008,-4.9071957367871155,11.60700000001816
311835.4877,-5.986152127562243,-3.3859676187416046,-7.44456790733544,-4.464308945927199,11.60800000000745
311835.4887,-5.704995445032362,-2.80498131862941,-7.3912762256806035,-3.8808699517472935,11.60899999999674
311835.4897,-5.258927817369737,-2.1209667316980427,-7.127891070305961,-3.188535148268571,11.60999999998603
311835.4907,-4.685305639910844,-1.3779750382547833,-6.684109398140253,-2.428795197107839,11.611000000033528
311835.4917,-4.02922287875814,-0.6267002476321073,-6.099139867344744,-1.6488803909682925,11.612000000022817
311835.4927,-3.338664962896876,0.08082364735871674,-5.417272741217402,-0.8970119084899466,11.613000000012107
311835.4937,-2.6593858619809323,0.696785439460684,-4.683090079997265,-0.21747560270117025,11.614000000001397
311835.4947,-2.030029427826225,1.1828498740747355,-3.936803502274001,0.35398266559280994,11.614999999990687
311835.4957,-1.4779946026690904,1.5145563961736797,-3.210191661341907,0.7939683916657981,11.616000000038184
311835.4967,-1.0164727212735347,1.6843980621737022,-2.5235475427524205,1.0940591448659884,11.617000000027474
311835.4977,-0.6429707204214374,1.7032417161126963,-1.8839428817409574,1.2619517529038866,11.618000000016764
311835.4987,-0.33948774779581087,1.5999118882732868,-1.2849835791138078,1.3209964701707966,11.619000000006054
311835.4997,-0.07434874147886142,1.4189413287866914,-0.708079142533978,1.308137024044065,11.619999999995343
311835.5007,0.19446688092388872,1.2166729480000327,-0.12509580912308949,1.2704332759381556,11.620999999984633
311835.5017,0.5148139367928145,1.0560632997347144,0.4978777056575342,1.260485031629864,11.62200000003213
311835.5027,0.9351210844006757,1.0006702592603538,1.1960369830214457,1.3311872890314858,11.62300000002142
311835.5037,1.4988940628797778,1.108394012837962,2.0011024693951422,1.5303178091119332,11.62400000001071
311835.5047,2.2395248434935184,1.425572139544393,2.9367856071635785,1.895480206457451,11.625
311835.5057,3.1759256163934095,1.9820029969181587,4.014954002284871,2.4498973374037107,11.62599999998929
311835.5067,4.309432284508105,2.7873890564442436,5.232903635902846,3.1994731106763776,11.627000000036787
311835.5077,5.622303948175707,3.829560976605986,6.572039749618505,4.13142315836716,11.628000000026077
311835.5087,7.077994015861244,5.07467648669586,7.998131051311759,5.2146272983948005,11.629000000015367
311835.5097,8.623199568979494,6.4694015576797765,9.463147646377019,6.401693539399574,11.630000000004657
311835.5107,10.191524768020574,7.944892826541047,10.908536685835124,7.632560234092447,11.630999999993946
311835.5117,11.708437980461527,9.422228043171256,12.269646494445203,8.83931562733152,11.631999999983236
311835.5127,13.097076137991412,10.81879213652696,13.48089402011305,9.951796734701508,11.633000000030734
311835.5137,14.284365941343141,12.05503392127195,14.481193330076623,10.903453619920635,11.634000000020023
311835.5147,15.206898216301727,13.060971590288856,15.219132312582058,11.636938130384772,11.635000000009313
311835.5157,15.816012396677008,13.781847696733719,15.657403941240746,12.108900711928937,11.635999999998603
311835.5167,16.081620955153245,14.182414306490475,15.776065782579217,12.293552794919874,11.636999999987893
311835.5177,15.99442173898749,14.24945880903324,15.574310523063616,12.184668398504982,11.63800000003539
311835.5187,15.566298296501477,13.992348068118954,15.070570702135225,11.795845919682723,11.63900000002468
311835.5197,14.828879772156192,13.441557069489999,14.300939009462539,11.159015415921216,11.64000000001397
311835.5207,13.830406253292487,12.645339772869105,13.316046106373907,10.321342250877567,11.64100000000326
311835.5217,12.631205706641643,11.664875955508949,12.176685348774626,9.340828816161062,11.64199999999255
311835.5227,11.298219311170817,10.568371370730416,10.948593651128482,8.281037643296452,11.64299999998184
311835.5237,9.89910038498306,9.424685604452733,9.696878320543952,7.205439876511056,11.644000000029337
311835.5247,8.4964496180268,8.297103172338423,8.480613093961843,6.171925047926867,11.645000000018626
311835.5257,7.1427323000233,7.237844677300177,7.348109503737267,5.227988359926479,11.646000000007916
311835.5267,5.876353324704296,6.283838100942039,6.333303671253714,4.407042229970096,11.646999999997206
311835.5277,4.719249768076269,5.454143063291804,5.45359005008543,3.7261865139846426,11.647999999986496
311835.5287,3.676210096939159,4.749255627073138,4.709293031476172,3.185627586181578,11.649000000033993
311835.5297,2.735958290187522,4.1523341502851,4.084808340954708,2.7697744060525804,11.650000000023283
311835.5307,1.8738670509329183,3.6321961572898136,3.551284254570274,2.4498756655937504,11.651000000012573
311835.5317,1.0560038989001361,3.1477609110028952,3.0705636010670543,2.187912085694433,11.652000000001863
311835.5327,0.24408298402894696,2.6534695554137757,2.599985805013533,1.9413365483061609,11.652999999991152
311835.5337,-0.5991931865116359,2.105118417742667,2.097565719096253,1.6681738338049683,11.65400000003865
311835.5347,-1.5049555337350975,1.4655008210777571,1.5270307280587971,1.3319591434209768,11.65500000002794
311835.5357,-2.493689978065114,0.70927257997909,0.8622130161391807,0.9060134571212594,11.65600000001723
311835.5367,-3.571924772701054,-0.1734656393610052,0.09035846954635905,0.37662220292071136,11.65700000000652
311835.5377,-4.730432974779318,-1.175247306175251,-0.785978862430917,-0.2552050628135781,11.657999999995809
311835.5387,-5.9441479202188665,-2.2711919408838184,-1.7486479777725144,-0.9735731923554813,11.658999999985099
311835.5397,-7.1738179885905895,-3.4208532234902207,-2.765250431001975,-1.7491565806294964,11.660000000032596
311835.5407,-8.369252131663997,-4.571795061705497,-3.7919988798191855,-2.542126470645643,11.661000000021886
311835.5417,-9.473846782342948,-5.6645515837276434,-4.777806027683945,-3.3062572638423235,11.662000000011176
311835.5427,-10.429953718849514,-6.638484308123831,-5.669203033842742,-3.9937986487394403,11.663000000000466
311835.5437,-11.184560208221296,-7.437954332165206,-6.415603219607279,-4.560620920810603,11.663999999989755
311835.5447,-11.694716112428637,-8.018188900941992,-6.974390857709533,-4.971109906517535,11.665000000037253
311835.5457,-11.932161403148275,-8.350244268175416,-7.315329557043706,-5.202308594201881,11.666000000026543
311835.5467,-11.886680087059277,-8.42454847941992,-7.423848877727036,-5.246873038877477,11.667000000015832
311835.5477,-11.567826027084683,-8.252640953182544,-7.30287515615172,-5.114523606349997,11.668000000005122
311835.5487,-11.004821097313776,-7.8668977962025375,-6.973012705986724,-4.831818200894826,11.668999999994412
311835.5497,-10.2446015870558,-7.318226115021385,-6.471041010042477,-4.440237675264211,11.669999999983702
311835.5507,-9.348167793801274,-6.671908383306977,-5.846856769714208,-3.9927392645046598,11.6710000000312
311835.5517,-8.38555694925641,-6.001959977322509,-5.159140892292434,-3.5490854871473902,11.672000000020489
311835.5527,-7.429894939200542,-5.384511529153971,-4.470154986186735,-3.1703787146484066,11.673000000009779
311835.5537,-6.55107449902656,-4.890828173201485,-3.8401575950480566,-2.91331348171309,11.673999999999069
311835.5547,-5.809647630125383,-4.580620082967757,-3.321968884903195,-2.8246914912163805,11.674999999988358
311835.5557,-5.251503854816187,-4.496278505234224,-2.9562000225443787,-2.936724780646941,11.676000000035856
311835.5567,-4.903835002844262,-4.658590419284514,-2.767601204375654,-3.263582348301989,11.677000000025146
311835.5577,-4.772768192079712,-5.064350489834905,-2.762876196025197,-3.799521280889869,11.678000000014435
311835.5587,-4.842892877507247,-5.686113828823348,-2.9301715570612945,-4.518795951064538,11.679000000003725
311835.5597,-5.078730206063814,-6.474133877309116,-3.240288943499775,-5.377372265982108,11.679999999993015
311835.5607,-5.428010463778025,-7.360325465651228,-3.6495044457329855,-6.316304218478798,11.680999999982305
311835.5617,-5.826454646483659,-8.263903333372147,-4.103725726215524,-7.266473418938308,11.682000000029802
311835.5627,-6.203615419869626,-9.098189253503415,-4.543590574903088,-8.154263914183089,11.683000000019092
311835.5637,-6.489234458421415,-9.777971455713962,-4.910021678325944,-8.90765676489387,11.684000000008382
311835.5647,-6.61952676353493,-10.226748750356522,-5.14971045645123,-9.462189982286437,11.684999999997672
311835.5657,-6.542812443245224,-10.383203506144607,-5.220011763066377,-9.766243218270867,11.685999999986961
311835.5667,-6.223981535614442,-10.206321250586438,-5.092790130227077,-9.785171674018374,11.687000000034459
311835.5677,-5.647391384770495,-9.67870301975466,-4.756861273435683,-9.503923699594418,11.688000000023749
311835.5687,-4.817947727649804,-8.807787299674798,-4.218809681701133,-8.927920825283095,11.689000000013039
311835.5697,-3.760295280185798,-7.624895034860484,-3.5021209098009765,-8.082143519395794,11.690000000002328
311835.5707,-2.5162242825820313,-6.182214825973237,-2.644730283187969,-7.0085348979214315,11.690999999991618
311835.5717,-1.1405686815200882,-4.548036564286115,-1.6952422353932697,-5.7619916235380035,11.691999999980908
311835.5727,0.3039869479019584,-2.800702087344034,-0.7082015938268956,-4.405341233815506,11.693000000028405
311835.5737,1.7526746028339293,-1.0218557570158429,0.2611125133825097,-3.003795712714773,11.694000000017695
311835.5747,3.1444179235843044,0.7103645613002348,1.161856456885847,-1.6194137275512006,11.695000000006985
311835.5757,4.427055227067786,2.327559976879431,1.9522493641041816,-0.3060947618622578,11.695999999996275
311835.5767,5.561511512694695,3.776155763702286,2.6032085619800545,0.8944313845938276,11.696999999985565
311835.5777,6.524529726962615,5.020888185944775,3.1006447273117868,1.9552604228794372,11.698000000033062
311835.5787,7.309718285765843,6.0464037948628695,3.446202876630387,2.8653935248785283,11.699000000022352
311835.5797,7.926841452188249,6.856870108972068,3.6563904449996723,3.629178493196314,11.700000000011642
311835.5807,8.399454907161921,7.473692289366077,3.7601940406374,4.264212102028123,11.701000000000931
311835.5817,8.761153436202093,7.931614570597572,3.7954362509310053,4.797954952428807,11.701999999990221
311835.5827,9.05083493857701,8.273639873863484,3.80424841327141,5.263435303192772,11.703000000037719
311835.5837,9.307481521846686,8.545311277699682,3.8281223564100824,5.6945050183708785,11.704000000027008
311835.5847,9.565004884683965,8.788954361900368,3.9030452690810513,6.121150683281633,11.705000000016298
311835.5857,9.8476950691812,9.038474836726634,4.055213092792553,6.565352387963293,11.706000000005588
311835.5867,10.166749905276687,9.315242208616871,4.297760103165351,7.037922949486035,11.706999999994878
311835.5877,10.51825326763613,9.625474211870817,4.628841384884428,7.536657574045699,11.707999999984168
311835.5887,10.88282446344315,9.959380175232061,5.03127070154471,8.04598850502351,11.709000000031665
311835.5897,11.226993091628517,10.292140156576785,5.4737620462708,8.538184621495192,11.710000000020955
311835.5907,11.506180142663734,10.586608706243329,5.913664112262146,8.975977658328564,11.711000000010245
311835.5917,11.669004055194478,10.79745622789754,6.300928679871447,9.316350466464318,11.711999999999534
311835.5927,11.66249587411057,10.876314547076923,6.5829310345519,9.515103057637697,11.712999999988824
311835.5937,11.437713813619096,10.777390941588713,6.709675058184964,9.531730972922446,11.714000000036322
311835.5947,10.955203659289616,10.462966604922228,6.638875940690375,9.334115854517103,11.715000000025611
311835.5957,10.18976187609249,9.90820599283477,6.340423405512365,8.902543451384485,11.716000000014901
311835.5967,9.134022028271024,9.104771602491507,5.799786925357223,8.232628169285015,11.717000000004191
311835.5977,7.800495940603296,8.062857605191464,5.0200258507702795,7.336829401042023,11.71799999999348
311835.5987,6.221848110220771,6.811413530056183,4.022201717889708,6.244382779337767,11.71899999998277
311835.5997,4.4493508432195625,5.396510168369816,2.8441440675069387,4.99962556847064,11.720000000030268
311835.6007,2.549641941481297,3.877986042218919,1.5376798073261557,3.6588542321497086,11.721000000019558
311835.6017,0.6000694937528782,2.3246856553552417,0.16458396512690918,2.2859980726696847,11.722000000008848
311835.6027,-1.3169564192696155,0.8087431371762145,-1.2083678126857733,0.9475112849474214,11.722999999998137
311835.6037,-3.1200906536390725,-0.6005373643849832,-2.5147793840412676,-0.2930349542371063,11.723999999987427
311835.6047,-4.735099229690697,-1.8426098435508453,-3.6939414203907006,-1.3801465487714584,11.725000000034925
311835.6057,-6.100274663572282,-2.8708438971620485,-4.695569915866995,-2.270891057430357,11.726000000024214
311835.6067,-7.170732342022751,-3.6564050382527697,-5.483537549524831,-2.938244000814538,11.727000000013504
311835.6077,-7.921208798823605,-4.190474501047193,-6.038259600140992,-3.372977195802932,11.728000000002794
311835.6087,-8.347127687134735,-4.484586487131218,-6.357528637249715,-3.5839100585074206,11.728999999992084
311835.6097,-8.46386593324112,-4.569044509707612,-6.455744121634469,-3.5965032740965297,11.729999999981374
311835.6107,-8.304324657985317,-4.48956654301088,-6.3616393791834005,-3.4499349694963626,11.731000000028871
311835.6117,-7.915070140382522,-4.302482577974768,-6.114753801189414,-3.192946768535272,11.73200000001816
311835.6127,-7.35144372785537,-4.068950796354032,-5.761018321011205,-2.87886639191604,11.73300000000745
311835.6137,-6.672133232129769,-3.848755833024393,-5.347905481413879,-2.5602930510442716,11.73399999999674
311835.6147,-5.933743023287682,-3.6942948687327473,-4.91963365979149,-2.2839639269361687,11.73499999998603
311835.6157,-5.185891621354904,-3.6453403381685314,-4.512904630668435,-2.086301336567701,11.736000000033528
311835.6167,-4.467305191461955,-3.725093410646682,-4.153595787555423,-1.9900725609385337,11.737000000022817
311835.6177,-3.803269189690172,-3.937917316301303,-3.85472886896297,-2.0024843397213576,11.738000000012107
311835.6187,-3.2046591803628304,-4.268976211049639,-3.615905882321038,-2.1148924859387908,11.739000000001397
311835.6197,-2.668609670114131,-4.685819518303943,-3.4242531535435137,-2.304147807431754,11.739999999990687
311835.6207,-2.1807128216291036,-5.141761674118252,-3.2567609314134076,-2.535438154560297,11.741000000038184
311835.6217,-1.7184836943040112,-5.580731481709773,-3.08376398347147,-2.7663387761056044,11.742000000027474
311835.6227,-1.255700584732243,-5.943121010075823,-2.8731922271185923,-2.951663750381259,11.743000000016764
311835.6237,-0.7671407717604692,-6.172065243016457,-2.595141206552288,-3.048631798151165,11.744000000006054
311835.6247,-0.23319222227196404,-6.219540149372321,-2.2262780420765673,-3.021828097546332,11.744999999995343
311835.6257,0.3561655055669327,-6.051682767620184,-1.7536127844808647,-2.8474629477327285,11.745999999984633
311835.6267,0.9984540891790258,-5.652810743349834,-1.1772265578570758,-2.516496417535463,11.74700000003213
311835.6277,1.6771972639845742,-5.027743345188394,-0.5116504684154534,-2.036308809329886,11.74800000002142
311835.6287,2.362021176468833,-4.202189190618554,0.21427707245500294,-1.4307390529683515,11.74900000001071
311835.6297,3.0103831337606035,-3.2211518611541172,0.9590953597130184,-0.738473107938021,11.75
311835.6307,3.5707911181644274,-2.14549519906466,1.6718148847916259,-0.009926447586545876,11.75099999998929
311835.6317,3.9872226188270514,-1.0469868435359457,2.2961430913699843,0.6970871240868762,11.752000000036787
311835.6327,4.204325482906171,-0.0022843434685127727,2.77545014559547,1.3224882202177435,11.753000000026077
311835.6337,4.172898163690493,0.9135711194536327,3.0580042592188823,1.80937429374616,11.754000000015367
311835.6347,3.8551105384483857,1.6335424327882595,3.101973537360258,2.109247953374939,11.755000000004657
311835.6357,3.2289431681256575,2.104267880583055,2.8797077520110106,2.186526546532662,11.755999999993946
311835.6367,2.2913910690725245,2.2904891204865807,2.3808774251170615,2.0218967523214877,11.756999999983236
311835.6377,1.0600913002291257,2.177830267014363,1.6141530410135756,1.6141888702652163,11.758000000030734
311835.6387,-0.4268189573071157,1.773682605423552,0.6072439340814672,0.9805882073486768,11.759000000020023
311835.6397,-2.112639902136357,1.1061324552422132,-0.5947288192106928,0.15516155114664593,11.760000000009313
311835.6407,-3.9256973851758596,0.2210577170205097,-1.9323933432587832,-0.8141604826741906,11.760999999998603
311835.6417,-5.784279250857781,-0.8223066763897485,-3.3365440180880683,-1.8698552980200676,11.761999999987893
311835.6427,-7.602487533752812,-1.9568898114401947,-4.733417756175244,-2.9499234903362845,11.76300000003539
311835.6437,-9.296485806672154,-3.1138476716552796,-6.0503513972635465,-3.9933555263125795,11.76400000002468
311835.6447,-10.790582158491093,-4.2285769560134385,-7.2213067124263475,-4.945425054122526,11.76500000001397
311835.6457,-12.022602952969317,-5.246100893149565,-8.19176330716478,-5.762302008244356,11.76600000000326
311835.6467,-12.948079292349327,-6.1253167494807625,-8.922541317765134,-6.4145460451086285,11.76699999999255
311835.6477,-13.542880517054826,-6.8417130602483365,-9.392219159180952,-6.889150963307604,11.76799999998184
311835.6487,-13.804076210660275,-7.388320752632924,-9.597946606957832,-7.189952868028652,11.769000000029337
311835.6497,-13.748975769350258,-7.774840715395487,-9.554607018452602,-7.336375056617761,11.770000000018626
311835.6507,-13.412466381921547,-8.025073289895191,-9.292439583703723,-7.360645288906312,11.771000000007916
311835.6517,-12.842929605629694,-8.172944504775513,-8.853377892403806,-7.303770383249893,11.771999999997206
311835.6527,-12.097148206627145,-8.257562928931387,-8.286480731704202,-7.210674381604532,11.772999999986496
311835.6537,-11.234705892342566,-8.317836082803066,-7.6429133555424436,-7.124988023938477,11.774000000033993
311835.6547,-10.312424301219737,-8.387217108768077,-6.9709746217981206,-7.084011022504783,11.775000000023283
311835.6557,-9.379370255375013,-8.489136824603362,-6.31165394082847,-7.114351351512885,11.776000000012573
311835.6567,-8.472903138333931,-8.633605011610175,-5.695143240438616,-7.228679169968371,11.777000000001863
311835.6577,-7.616123705106757,-8.815344968843469,-5.138629076942338,-7.423923589761821,11.777999999991152
311835.6587,-6.816942466750464,-9.013668940576006,-4.6455585981848495,-7.681098976599654,11.77900000003865
311835.6597,-6.068822185648384,-9.194124554285727,-4.206423338793399,-7.966787646229091,11.78000000002794
311835.6607,-5.353081118333859,-9.311761529575385,-3.8009516239682983,-8.236143289799228,11.78100000001723
311835.6617,-4.642487991530365,-9.315701614179934,-3.4014588206008045,-8.43713008351852,11.78200000000652
311835.6627,-3.905751608348457,-9.154559520838218,-2.976988781770448,-8.515590771650723,11.782999999995809
311835.6637,-3.112420040051582,-8.78217206646264,-2.4978010207122776,-8.420654910019724,11.783999999985099
311835.6647,-2.2376651852963083,-8.163055850041324,-1.9397241954581599,-8.109963905393965,11.785000000032596
311835.6657,-1.2664418838098326,-7.277034456078824,-1.287910726332217,-7.554205827297923,11.786000000021886
311835.6667,-0.19657538036180264,-6.122552475837267,-0.539588383767498,-6.7405185793749824,11.787000000011176
311835.6677,0.9595596791025596,-4.71831824798375,0.2944935732710153,-5.6744284687177675,11.788000000000466
311835.6687,2.174962224074083,-3.1030780077559514,1.1900937376196647,-4.380131900259994,11.788999999989755
311835.6697,3.409560183112342,-1.3335053844529088,2.1110034884458324,-2.899087109457155,11.790000000037253
311835.6707,4.613262256234852,0.5196258647980486,3.011935076016254,-1.287044997929422,11.791000000026543
311835.6717,5.730216375128611,2.3766494263522735,3.8425003758671554,0.39020255124813247,11.792000000015832
311835.6727,6.703859936111351,4.155121263867628,4.551894279935504,2.061956560261041,11.793000000005122
311835.6737,7.482262480772127,5.7762775844035295,5.093821004199966,3.6581439907301627,11.793999999994412
311835.6747,8.023226463971778,7.171235291479357,5.431171434505279,5.114731321355787,11.794999999983702
311835.6757,8.29862976294502,8.28635607946383,5.539978195413882,6.378515049744471,11.7960000000312
311835.6767,8.297563088103944,9.087273467314253,5.412240802200078,7.4108494064030035,11.797000000020489
311835.6777,8.027929807743964,9.561209054903774,5.0573197829820495,8.189977990496795,11.798000000009779
311835.6787,7.516323797508097,9.717367803251562,4.501735731329558,8.711774401996493,11.798999999999069
311835.6797,6.806168306062864,9.585386274540388,3.787363525646372,8.988853562776574,11.799999999988358
311835.6807,5.954269075073589,9.211994549971708,2.9681683535136933,9.048174829426628,11.801000000035856
311835.6817,5.026091309343585,8.656223711206426,2.1057733744697575,8.927404494829624,11.802000000025146
311835.6827,4.0901971163574595,7.98362956039486,1.264264757997337,8.670424444276621,11.803000000014435
311835.6837,3.212365109876814,7.260096046273505,0.5047169882298388,8.322453881284193,11.804000000003725
311835.6847,2.4499484651701215,6.545819529000281,-0.12004796900177125,7.925284340508515,11.804999999993015
311835.6857,1.8470082172645574,5.89005381659335,-0.5699729750551428,7.513111468167119,11.805999999982305
311835.6867,1.4306866962142017,5.327117874389514,-0.8211217653062796,7.109382032497587,11.807000000029802
311835.6877,1.2091685252231377,4.874040863780811,-0.8675595757459628,6.724967864862508,11.808000000019092
311835.6887,1.1714248844869646,4.530055175612441,-0.7215790146295257,6.357840599722933,11.809000000008382
311835.6897,1.2887654685942376,4.277963492797179,-0.412249426503287,5.99426593935509,11.809999999997672
311835.6907,1.5180483941911787,4.087218816573138,0.017571912847616403,5.611379208669415,11.810999999986961
311835.6917,1.806238227733021,3.9183852763803686,0.5154813611919881,5.180860880738236,11.812000000034459
311835.6927,2.0958719412542086,3.7285093396670335,1.0246180691412117,4.673315888102961,11.813000000023749
311835.6937,2.3309047325730647,3.4768394706979517,1.4891147886390195,4.062885458588451,11.814000000013039
311835.6947,2.4623708995274947,3.1302965226634267,1.859390464961379,3.331592571328444,11.815000000002328
311835.6957,2.4533129874874913,2.668120875955015,2.096781016460055,2.4729448703570482,11.815999999991618
311835.6967,2.282503541814393,2.085203393894567,2.177069612917584,1.494389953505983,11.816999999980908
311835.6977,1.9466011145869724,1.3937378337544608,2.092585015709479,0.41833051932028736,11.818000000028405
311835.6987,1.4605343064929572,0.6229996993836807,1.852675723429623,-0.7184500931055088,11.819000000017695
311835.6997,0.856079777633073,-0.18275574014221646,1.4825252461293184,-1.8669419617453167,11.820000000006985
311835.7007,0.1787755861382674,-0.9680938699575191,1.0204344888207648,-2.9694720806235333,11.820999999996275
311835.7017,-0.5165271585548338,-1.6715442975289216,0.5138453423264511,-3.9643622121715074,11.821999999985565
311835.7027,-1.1710392340372076,-2.2315932928548627,0.014500765667030867,-4.79125074214842,11.823000000033062
311835.7037,-1.7278099996348892,-2.592939602083931,-0.42678086153824757,-5.39657418578264,11.824000000022352
311835.7047,-2.137342349059906,-2.71239389958296,-0.7652035186522655,-5.73867883683778,11.825000000011642
311835.7057,-2.362498571141948,-2.5638285591880963,-0.9664641402970228,-5.79205954948628,11.826000000000931
311835.7067,-2.38221912133207,-2.141669232517402,-1.0101596382528217,-5.550298548224711,11.826999999990221
311835.7077,-2.1936920737153267,-1.462554941515388,-0.8917993192404401,-5.027395373679968,11.828000000037719
311835.7087,-1.8127618986573637,-0.5649660946360345,-0.6232291274846462,-4.2573283252048215,11.829000000027008
311835.7097,-1.2725374777055933,0.4931866035609567,-0.23143023390632714,-3.291853716349243,11.830000000016298
311835.7107,-0.62033423465512,1.638823664765532,0.2441860476383252,-2.1967159050328133,11.831000000005588
311835.7117,0.0867531038219545,2.789441158991992,0.7557177931979041,-1.0465922748482601,11.831999999994878
311835.7127,0.7872180176965451,3.8598255674233513,1.251556567863436,0.08078153014720213,11.832999999984168
311835.7137,1.4209301979974625,4.769130375459678,1.681543888600169,1.110781540521444,11.834000000031665
311835.7147,1.9347842701448914,5.447666902356796,2.0019918609010126,1.977806289211596,11.835000000020955
311835.7157,2.287663944772354,5.84278472375159,2.180073600378172,2.6303970582564387,11.836000000010245
311835.7167,2.4542437694550716,5.923299424832339,2.1971512258806185,3.0351092349618183,11.836999999999534
311835.7177,2.427264433705492,5.682059508268741,2.0507136222332183,3.1787929866168896,11.837999999988824
311835.7187,2.218066503422651,5.136417267765233,1.7547325612853255,3.0690901515316398,11.839000000036322
311835.7197,1.8553369542201534,4.326563772960821,1.338400771498183,2.7331208277321606,11.840000000025611
311835.7207,1.382196381621522,3.311887096283401,0.8433739888595554,2.2145016394213224,11.841000000014901
311835.7217,0.8519153760477022,2.1656965116918667,0.3197854168961939,1.5689919395421246,11.842000000004191
311835.7227,0.3226806394548126,0.9688060750995727,-0.17857892438470502,0.8591895336789876,11.84299999999348
311835.7237,-0.14807781979802878,-0.19742558386314796,-0.5994734805652211,0.14878198232606463,11.84399999998277
311835.7247,-0.5092463958943183,-1.257956036097078,-0.8972486310590974,-0.5031047760745238,11.845000000030268
311835.7257,-0.720935721506111,-2.1501920623583,-1.0372754535859674,-1.0469350406798141,11.846000000019558
311835.7267,-0.7582635918101233,-2.8288410914467375,-0.9993086195418834,-1.4467102227180264,11.847000000008848
311835.7277,-0.6136516267899784,-3.2690540296786406,-0.7794601011220664,-1.6824849529348742,11.847999999998137
311835.7287,-0.29742094653432627,-3.4675990569184965,-0.390592185213098,-1.7512459958195117,11.848999999987427
311835.7297,0.16336070892191362,-3.4419962210567974,0.13890719697447426,-1.666108825089325,11.850000000034925
311835.7307,0.7276566739170218,-3.227738136553899,0.7678456919299029,-1.4539509540374467,11.851000000024214
311835.7317,1.344581417547062,-2.8739039171558787,1.4461768747678394,-1.1517523600849673,11.852000000013504
311835.7327,1.9584499167809013,-2.437624167208093,2.119792142897618,-0.8020369606489846,11.853000000002794
311835.7337,2.514253517683027,-1.9779600122511978,2.7356842814521665,-0.4478931856004573,11.853999999992084
311835.7347,2.963019250708328,-1.5498088200249698,3.2469764882625336,-0.12808822957592542,11.854999999981374
311835.7357,3.266522794175694,-1.198438913003579,3.61732383870624,0.12722381427953816,11.856000000028871
311835.7367,3.4008905938995526,-0.955186508884608,3.8242556585324317,0.299763439421352,11.85700000001816
311835.7377,3.3587376008877947,-0.8347273528134331,3.861131103725441,0.3850269479510809,11.85800000000745
311835.7387,3.1496327732625993,-0.834175040347784,3.737516328863649,0.39263648253844186,11.85899999999674
311835.7397,2.7988505943005557,-0.9340737209007209,3.4779467052360036,0.3451055140100273,11.85999999998603
311835.7407,2.344537074694698,-1.101162849091652,3.119196497605464,0.2751471004914935,11.861000000033528
311835.7417,1.8335763136407113,-1.2926145628228063,2.7063256902446398,0.22180019161443656,11.862000000022817
311835.7427,1.3165731949360935,-1.46129745688197,2.2878948442197804,0.22576993814423585,11.863000000012107
311835.7437,0.8424564365435441,-1.5615183434203113,1.9108220616345235,0.3244594952810046,11.864000000001397
311835.7447,0.45324523092639746,-1.554646012010519,1.6153931042021323,0.5472051182660251,11.864999999990687
311835.7457,0.1795081962263465,-1.4140326319987029,1.4309227304554797,0.9112100003957271,11.866000000038184
311835.7467,0.03697663193968165,-1.128718085587008,1.3725035104516845,1.4186068107610714,11.867000000027474
311835.7477,0.024661580659225937,-0.7055233051500029,1.439173646219105,2.054970579364239,11.868000000016764
311835.7487,0.1246768768563228,-0.16929872648155417,1.6136977679528495,2.7894629782887317,11.869000000006054
311835.7497,0.3038025826181666,0.43872247249721097,1.863997612543672,3.5766298639079483,11.869999999995343
311835.7507,0.5166513678916993,1.064327642654999,2.1461081777533337,4.359711723108655,11.870999999984633
311835.7517,0.7101413187766153,1.6451698120022713,2.408385086999952,5.075177276585752,11.87200000003213
311835.7527,0.8288479664703634,2.1165945701329414,2.5965651201551276,5.658068576431044,11.87300000002142
311835.7537,0.8207188919906205,2.4178877953200395,2.6591962801731643,6.047663472102692,11.87400000001071
311835.7547,0.6425949404945086,2.498337298222982,2.552914794923604,6.192926447281559,11.875
311835.7557,0.2649968557025186,2.322514751455756,2.2470579987249955,6.057235047625742,11.87599999998929
311835.7567,-0.3242962764426263,1.874255698382751,1.727163091819034,5.621934934942866,11.877000000036787
311835.7577,-1.1182364605451,1.158938095990001,0.9970065155292969,4.88838567891119,11.878000000026077
311835.7587,-2.090274506359668,0.2038218341374228,0.07897702859124382,3.8783011659308855,11.879000000015367
311835.7597,-3.195946255856034,-0.9436027803099728,-0.9872658295234753,2.6323492021785593,11.880000000004657
311835.7607,-4.376143006044017,-2.2191185622584952,-2.1477326862303765,1.2071389011903872,11.880999999993946
311835.7617,-5.56176986352897,-3.5468201227872638,-3.3383768864855274,-0.329124158261476,11.881999999983236
311835.7627,-6.679362185266233,-4.845223413435272,-4.490303918208707,-1.9019109332056343,11.883000000030734
311835.7637,-7.657138061614571,-6.033879363710511,-5.535434033668422,-3.436081242640936,11.884000000020023
311835.7647,-8.430922975897994,-7.03987717768453,-6.412092002624106,-4.861509297677756,11.885000000009313
311835.7657,-8.949395415007006,-7.803634673664244,-7.070006180243985,-6.118109999904912,11.885999999998603
311835.7667,-9.178168081695077,-8.283443149847471,-7.474257094935865,-7.15981673047796,11.886999999987893
311835.7677,-9.102332047803438,-8.458355743990241,-7.607817859141407,-7.957167636839956,11.88800000003539
311835.7687,-8.7272396929724,-8.329169208483965,-7.4724648966299165,-8.4982962683073,11.88900000002468
311835.7697,-8.077472100914637,-7.91743367186233,-7.087994472001439,-8.788280072149407,11.89000000001397
311835.7707,-7.194111159264337,-7.262615225164269,-6.489843003531951,-8.846961171367393,11.89100000000326
311835.7717,-6.130598895280257,-6.417713445671464,-5.725361329406319,-8.705502147800349,11.89199999999255
311835.7727,-4.947600754671788,-5.443782933462402,-4.849120204179548,-8.40206066543772,11.89299999998184
311835.7737,-3.707382532128793,-4.403910261903625,-3.9177140285124694,-7.977048813272369,11.894000000029337
311835.7747,-2.4682534685862536,-3.357245501652474,-2.984573538471986,-7.468478026437783,11.895000000018626
311835.7757,-1.2796165453521395,-2.3536761072750476,-2.0952917922778838,-6.9078750245305285,11.896000000007916
311835.7767,-0.17810245728963536,-1.4296617074600697,-1.2839120918835092,-6.317190043657109,11.896999999997206
311835.7777,0.8148474329354893,-0.6056281520470643,-0.5705270856458798,-5.707012216456577,11.897999999986496
311835.7787,1.6937306691395742,0.11484001797289176,0.03959489806161625,-5.076268939941276,11.899000000033993
311835.7797,2.468015266341688,0.7439519300582141,0.5552940628445582,-4.413430264570255,11.900000000023283
311835.7807,3.159575261687068,1.3069384274433837,0.9973109636383115,-3.699081310685117,11.901000000012573
311835.7817,3.798812358577359,1.837860905411941,1.3948320588791243,-2.909581277128753,11.902000000001863
311835.7827,4.419877676659007,2.3744496864236466,1.7811593082314716,-2.0214112355259735,11.902999999991152
311835.7837,5.055498304929118,2.952519515860788,2.1889612421032125,-1.0157363347653772,11.90400000003865
311835.7847,5.731953846360766,3.6005539595306124,2.645604420350787,0.11732090458119815,11.90500000002794
311835.7857,6.464734391252469,4.335035607756802,3.1690560011832547,1.3751777122284938,11.90600000001723
311835.7867,7.255344637536996,5.157026408024358,3.764791072537495,2.7404694107546193,11.90700000000652
311835.7877,8.089605667816661,6.050379210994959,4.424038074021223,4.180206896954949,11.907999999995809
311835.7887,8.93765724887597,6.981799772895635,5.123561929049074,5.6465670032522945,11.908999999985099
311835.7897,9.755693993721508,7.902793881598684,5.827030575735277,7.079308038610912,11.910000000032596
311835.7907,10.489294953175202,8.753345103992821,6.487851596623444,8.409639895070514,11.911000000021886
311835.7917,11.078045273250352,9.466993520501486,7.0532172841718905,9.565229740088979,11.912000000011176
311835.7927,11.461016337798094,9.976842015133128,7.46897340147333,10.47590517206968,11.913000000000466
311835.7937,11.582580410402228,10.221918487290951,7.684841301146569,11.079538687613745,11.913999999989755
311835.7947,11.397996229669344,10.15327956657262,7.659483476305142,11.32756832741568,11.915000000037253
311835.7957,10.878217377406475,9.739258456879341,7.364913049856089,11.189632621021408,11.916000000026543
311835.7967,10.013444246269106,8.969334975757194,6.789807262674422,10.656871556381832,11.917000000015832
311835.7977,8.815056552981371,7.85623253911909,5.941387968155581,9.743562476698417,11.918000000005122
311835.7987,7.3157154310164145,6.436012600918412,4.845668480855089,8.486909524449965,11.918999999994412
311835.7997,5.567597516957675,4.766125889898704,3.54602257153603,6.944973298475183,11.919999999983702
311835.8007,3.638901339567583,2.921573418561144,2.100192676318534,5.192897747289215,11.9210000000312
311835.8017,1.608931484311729,0.9895099132385741,0.5760047348503186,3.3177477211696833,11.922000000020489
311835.8027,-0.4377975940126651,-0.9372293882016128,-0.9538182063119796,1.4123981026474755,11.923000000009779
311835.8037,-2.4179018603247506,-2.767095079698785,-2.4172645893602867,-0.4309981425027678,11.923999999999069
311835.8047,-4.255332678558871,-4.4166527257783,-3.7485455259451914,-2.1273985279789085,11.924999999988358
311835.8057,-5.8868793607260095,-5.816657820468321,-4.892998664939438,-3.604567416649586,11.926000000035856
311835.8067,-7.266468774800087,-6.91683187911265,-5.810933919145074,-4.807598244918206,11.927000000025146
311835.8077,-8.36787603647849,-7.688919165423899,-6.480072887429671,-5.701891200635058,11.928000000014435
311835.8087,-9.185611742106426,-8.127767607836379,-6.896370054865796,-6.274361427068481,11.929000000003725
311835.8097,-9.733924929909278,-8.250365483652155,-7.073160393106743,-6.532818219128775,11.929999999993015
311835.8107,-10.044040231327923,-8.092959252619156,-7.038739551488497,-6.503625119504343,11.930999999982305
311835.8117,-10.15991520858881,-7.706558772179594,-6.83263367361713,-6.2279081060490356,11.932000000029802
311835.8127,-10.132943523972626,-7.15128657406952,-6.500941290682563,-5.7567092150529815,11.933000000019092
311835.8137,-10.016127908369322,-6.490133448753164,-6.091217510665249,-5.145573672764975,11.934000000008382
311835.8147,-9.858294452581786,-5.7827331693698065,-5.647412297142286,-4.449101475005218,11.934999999997672
311835.8157,-9.698912012184163,-5.079760044574808,-5.205365979296088,-3.7159855949508898,11.935999999986961
311835.8167,-9.564018327981602,-4.418485188076834,-4.78930713108209,-2.984999866487746,11.937000000034459
311835.8177,-9.463643925771839,-3.819907708811935,-4.409696304417834,-2.2822962260204616,11.938000000023749
311835.8187,-9.390976759572018,-3.287717285374459,-4.062623775169278,-1.6202338179251075,11.939000000013039
311835.8197,-9.323339324686371,-2.809160514629829,-3.7308137411709223,-0.9978051487505563,11.940000000002328
311835.8207,-9.224872246748712,-2.3576931052812276,-3.3861265848635482,-0.4025625942508543,11.940999999991618
311835.8217,-9.050651418512041,-1.8971221099594846,-2.993300677121927,0.18620191422191218,11.941999999980908
311835.8227,-8.751825807305659,-1.386794414074146,-2.5145505143495335,0.7933954885240984,11.943000000028405
311835.8237,-8.281263645890151,-0.7872841482091967,-1.9145510229302365,1.4436385834511334,11.944000000017695
311835.8247,-7.599145435075517,-0.06598272127585711,-1.1652972161120518,2.156851689951406,11.945000000006985
311835.8257,-6.677947717521264,0.7979944229842033,-0.2503380934560786,2.9444000153496908,11.945999999996275
311835.8267,-5.506321268487016,1.8101014912221483,0.8320571594716454,3.8062215583785095,11.946999999985565
311835.8277,-4.091475252578238,2.9582533652635203,2.0671397260385493,4.729260860797569,11.948000000033062
311835.8287,-2.4598243867964857,4.212550935964886,3.423530947052145,5.687395043021631,11.949000000022352
311835.8297,-0.6558249557509502,5.52689391836529,4.85472689453699,6.642884116274912,11.950000000011642
311835.8307,1.2608988727177468,6.84234481303009,6.302141339805254,7.549219485644227,11.951000000000931
311835.8317,3.21987172638703,8.091931200007679,7.699419598661637,8.35509883333111,11.951999999990221
311835.8327,5.145121174942168,9.206427574370506,8.977630204346701,9.009136790845131,11.953000000037719
311835.8337,6.961064893439926,10.120556937426754,10.070853696983978,9.464840896203532,11.954000000027008
311835.8347,8.598376892663294,10.779006405455872,10.92164660159165,9.685349362550793,11.955000000016298
311835.8357,9.999283448875426,11.14166483097918,11.485867930792876,9.647444584301093,11.956000000005588
311835.8367,11.121797378435476,11.187562613297322,11.73641439761391,9.34442251143879,11.956999999994878
311835.8377,11.942504855844113,10.917117506329346,11.66551322263327,8.787506627118386,11.957999999984168
311835.8387,12.457661529066671,10.352453237160795,11.285357958138617,8.0056356509932,11.959000000031665
311835.8397,12.682520103171676,9.535744162322727,10.627029828988185,7.043612474976355,11.960000000020955
311835.8407,12.648983498545407,8.525730724360118,9.737809419114338,5.958762621559747,11.961000000010245
311835.8417,12.401839209353767,7.392728320612579,8.677135340249308,4.81639782338744,11.961999999999534
311835.8427,11.993965737126405,6.212598879927888,7.51159308834912,3.6844995705320844,11.962999999988824
311835.8437,11.480997739007588,5.060255530689568,6.309406401064005,2.6281167997064685,11.964000000036322
311835.8447,10.91598353415943,4.003316273894235,5.134946540524372,1.7040033470846487,11.965000000025611
311835.8457,10.344562424703792,3.096508037610666,4.043768018303839,0.9560010817253852,11.966000000014901
311835.8467,9.801130753251362,2.3773492697916048,3.07862323109083,0.4116055263084947,11.967000000004191
311835.8477,9.306360762270193,1.8635144730207192,2.266808965818828,0.08003885759966084,11.96799999999348
311835.8487,8.86629574216121,1.5521200066988552,1.619064675901529,-0.047988723277924035,11.96899999998277
311835.8497,8.473082775376513,1.4209831515828142,1.1300889928929334,0.0011898236426725395,11.970000000030268
311835.8507,8.107236839806458,1.431714204814479,0.780582241396349,0.1872295474781501,11.971000000019558
311835.8517,7.741173867283347,1.5343230875392768,0.5405743560053146,0.4600715473094188,11.972000000008848
311835.8527,7.343621148693709,1.6728750685713,0.37367407840227035,0.7650904567213408,11.972999999998137
311835.8537,6.8844241233674435,1.7916291169947023,0.24178867214289812,1.0485923840411033,11.973999999987427
311835.8547,6.3392280009136766,1.8410469773662799,0.10982199855981177,1.2631311288637688,11.975000000034925
311835.8557,5.693524898467192,1.7830757310530168,-0.0501334623152201,1.3721289442227553,11.976000000024214
311835.8567,4.945621042832133,1.5951798885852055,-0.2555391483811831,1.3533564326781298,11.977000000013504
311835.8577,4.10818776145369,1.2727237276541685,-0.5114176304913522,1.2009377167431723,11.978000000002794
311835.8587,3.208203641707586,0.8294683947873479,-0.8098236532385811,0.9256909557280307,11.978999999992084
311835.8597,2.2852591170039362,0.2961351457429335,-1.1308276516858646,0.5537765840078764,11.979999999981374
311835.8607,1.3883625615770336,-0.28282231551743287,-1.444905341794071,0.12379052689296435,11.981000000028871
311835.8617,0.5715420504348608,-0.8539159011215189,-1.7164827683870183,-0.31740892549105076,11.98200000001816
311835.8627,-0.11133619364221053,-1.3603250012319446,-1.9082671238266866,-0.7197286514685346,11.98300000000745
311835.8637,-0.6120256913596771,-1.748035155895145,-1.985911533569203,-1.0352275757988358,11.98399999999674
311835.8647,-0.8930906158391487,-1.9718017018342853,-1.922524998815296,-1.223332867760532,11.98499999998603
311835.8657,-0.9323034874367123,-2.0003416175160753,-1.702550496896662,-1.255371979036084,11.986000000033528
311835.8667,-0.7257925283952122,-1.8202302646185728,-1.324593758848081,-1.117973416102893,11.987000000022817
311835.8677,-0.28959614659195143,-1.438104420246564,-0.802886660945523,-0.8149988251160136,11.988000000012107
311835.8687,0.3405688973159044,-0.8809367223227449,-0.16720254421743208,-0.3678112329421515,11.989000000001397
311835.8697,1.111349907391528,-0.19433342573829437,0.5388069760565588,0.18615474075924074,11.989999999990687
311835.8707,1.9554626389055214,0.5610010222837865,1.260727982372916,0.7963908778320984,11.991000000038184
311835.8717,2.796749222255786,1.3143112867564115,1.9376825409522094,1.4036006253362412,11.992000000027474
311835.8727,3.556149966464294,1.9908823280645231,2.5074197541668233,1.9448671064020455,11.993000000016764
311835.8737,4.158059501695603,2.518605061927639,2.911728332934068,2.3592152163286886,11.994000000006054
311835.8747,4.536497923944585,2.834400756858149,3.101663187104234,2.5930424892283765,11.994999999995343
311835.8757,4.640541777262709,2.889901530386739,3.0420913372394613,2.6049076456226556,11.995999999984633
311835.8767,4.438526498184742,2.6558554202052225,2.7151231397342417,2.369229257619437,11.99700000003213
311835.8777,3.9206449075459155,2.1248465684358493,2.122097538237474,1.8785534198431373,11.99800000002142
311835.8787,3.0997145627194502,1.3120820631761636,1.2839248631585385,1.1441881538269572,11.99900000001071
311835.8797,2.0100559862948963,0.2541811785567108,0.23974453747858096,0.19515984455217977,12.0
311835.8807,0.7045976827355527,-0.9939078102975607,-0.9559869841367385,-0.9243921214807681,12.00099999998929
311835.8817,-0.7495142420006891,-2.363561782039504,-2.2377158886051345,-2.159117869962125,12.002000000036787
311835.8827,-2.2763895942514347,-3.7782603537112656,-3.5339346121519086,-3.4472703929035586,12.003000000026077
311835.8837,-3.797444222508019,-5.159937487770808,-4.772781157275495,-4.725960318172337,12.004000000015367
311835.8847,-5.237474973233537,-6.435309709914457,-5.887586373515698,-5.936346022785897,12.005000000004657
311835.8857,-6.530215380168109,-7.541593726331627,-6.821870615863341,-7.028266167365376,12.005999999993946
311835.8867,-7.622887483675854,-8.431093262258162,-7.533347941732362,-7.963883100839473,12.006999999983236
311835.8877,-8.479370243895506,-9.074251879059217,-7.996594624223913,-8.720008870827304,12.008000000030734
311835.8887,-9.08174503582622,-9.460923572232842,-8.204169470546667,-9.288920363873753,12.009000000020023
311835.8897,-9.430139723550473,-9.599790627075047,-8.166123371416617,-9.677622907066675,12.010000000009313
311835.8907,-9.54095886278499,-9.51604087620055,-7.907989973228516,-9.905677266282524,12.010999999998603
311835.8917,-9.44374233660068,-9.247586113513428,-7.467493276158048,-10.001847918382298,12.011999999987893
311835.8927,-9.177023058796584,-8.840243287068285,-6.890327324899376,-9.99994658620043,12.01300000003539
311835.8937,-8.783643847455304,-8.342396538907046,-6.225446439979908,-9.934322823641962,12.01400000002468
311835.8947,-8.30603565241947,-7.799701852013453,-5.52034368641479,-9.835485260119363,12.01500000001397
311835.8957,-7.781950228964686,-7.250382931742447,-4.816786900055224,-9.726319870807709,12.01600000000326
311835.8967,-7.241081400171679,-6.721598572373177,-4.147426699593926,-9.619307124724658,12.01699999999255
311835.8977,-6.702906514786664,-6.227245206079574,-3.533595198279801,-9.515034574910674,12.01799999998184
311835.8987,-6.175944185307719,-5.767405448456717,-2.984487306903528,-9.40216595788721,12.019000000029337
311835.8997,-5.658469752466771,-5.329479690448739,-2.497771358988041,-9.258875750084947,12.020000000018626
311835.9007,-5.14057192790439,-4.890860659035561,-2.061526857172088,-9.0556046543871,12.021000000007916
311835.9017,-4.607288802087459,-4.422848229099768,-1.6572693618338297,-8.758852096523238,12.021999999997206
311835.9027,-4.042443680330833,-3.8953700304520686,-1.2637097289988612,-8.33561057231468,12.022999999986496
311835.9037,-3.432723087561727,-3.2819859054260125,-0.8608183835901261,-7.757974913178229,12.024000000033993
311835.9047,-2.7715088685543128,-2.564619988933394,-0.43373281137303726,-7.007434645715991,12.025000000023283
311835.9057,-2.0619969391290485,-1.7374867706026795,0.02393867982432285,-6.078382386846031,12.026000000012573
311835.9067,-1.3192051305959653,-0.8097549594655581,0.5078030042489531,-4.980443481576079,12.027000000001863
311835.9077,-0.5705849689485629,0.19338217426559184,1.0016432930221384,-3.7393449631658586,12.027999999991152
311835.9087,0.14490391538936917,1.2314012965357362,1.4778089685520004,-2.3961844316157537,12.02900000003865
311835.9097,0.7792370334691323,2.2509002993442433,1.8990409325812752,-1.005117641880483,12.03000000002794
311835.9107,1.279104167245977,3.189617436067891,2.2215875011265047,0.3703581280259476,12.03100000001723
311835.9117,1.590695877430411,3.981664992910135,2.3993290947022485,1.6622051899357395,12.03200000000652
311835.9127,1.6650524633642545,4.563492914181622,2.388518742407753,2.8032984823906557,12.032999999995809
311835.9137,1.4634564513943282,4.880012997486577,2.1526725190054323,3.733026385167319,12.033999999985099
311835.9147,0.9623261345081852,4.89028482016229,1.6671167422775317,4.402512184644926,12.035000000032596
311835.9157,0.15709767877394518,4.572193919220744,0.9227202785635733,4.778957328926651,12.036000000021886
311835.9167,-0.9353353051755277,3.925638613697548,-0.07159100637733237,4.848684737949278,12.037000000011176
311835.9177,-2.2759302986490066,2.9738763376543527,-1.2878310719206527,4.618579224194437,12.038000000000466
311835.9187,-3.80470007519012,1.7628507136320268,-2.679615217656115,4.1157712126590615,12.038999999989755
311835.9197,-5.4437845743843765,0.35851049740290103,-4.184482695183587,3.3855750720731623,12.040000000037253
311835.9207,-7.102186203584262,-1.1576774033957216,-5.727718031798202,2.4878584952988314,12.041000000026543
311835.9217,-8.681804403617823,-2.6946449939983377,-7.22736360102577,1.4921684340250865,12.042000000015832
311835.9227,-10.084277341210047,-4.158555301144742,-8.599998847752396,0.47205754091204033,12.043000000005122
311835.9237,-11.218055199065509,-5.459943478651011,-9.76678398739924,-0.5008687250003413,12.043999999994412
311835.9247,-12.005099139019341,-6.5205271622892065,-10.659235729488802,-1.362637758511826,12.044999999983702
311835.9257,-12.386625963776838,-7.279073508482956,-11.224222821880934,-2.0618077399423265,12.0460000000312
311835.9267,-12.327398730905244,-7.695796077613287,-11.427738254484611,-2.5631335007749882,12.047000000020489
311835.9277,-11.818190770615814,-7.754890945762113,-11.257116320602888,-2.849674913816235,12.048000000009779
311835.9287,-10.876212866601685,-7.464995158976542,-10.721505791086766,-2.9231725966588273,12.048999999999069
311835.9297,-9.543475501208965,-6.8575452039367475,-9.850571483230068,-2.802682608285019,12.049999999988358
311835.9307,-7.883242823910224,-5.983209812141288,-8.691560004544986,-2.5216291707403293,12.051000000035856
311835.9317,-5.974904879800928,-4.906751154338187,-7.305015667353833,-2.123585962509005,12.052000000025146
311835.9327,-3.907733556639677,-3.700813946153511,-5.759555036156398,-1.657217440398462,12.053000000014435
311835.9337,-1.774082579398106,-2.4392391204997654,-4.126191522489257,-1.1708901673810697,12.054000000003725
311835.9347,0.3373661424583714,-1.1905381709769314,-2.472736974542955,-0.7074926123723799,12.054999999993015
311835.9357,2.3477221604431464,-0.012142295715927844,-0.8587920447559549,-0.2999775989233234,12.055999999982305
311835.9367,4.19285401306829,1.0540406751021736,0.668227069275697,0.03193306114755397,12.057000000029802
311835.9377,5.826803927881781,1.9843608793053888,2.075684673502438,0.2835598442953602,12.058000000019092
311835.9387,7.223402646460644,2.774222295668122,3.346742312151055,0.4654198414163562,12.059000000008382
311835.9397,8.376012143065227,3.436901490598108,4.4797511028335535,0.6017170747439848,12.059999999997672
311835.9407,9.295502964409263,4.000545330094148,5.486134452112681,0.7273280104710584,12.060999999986961
311835.9417,10.00673867269243,4.5036818629703275,6.387022981968346,0.8835918650289616,12.062000000034459
311835.9427,10.543976492522425,4.989722947904309,7.209023381886455,1.113335057820277,12.063000000023749
311835.9437,10.945687764821837,5.501033784384891,7.979583987477807,1.4556365280755286,12.064000000013039
311835.9447,11.249345429130603,6.073183995883912,8.722454396691633,1.940868022664339,12.065000000002328
311835.9457,11.486714771415155,6.729973598224346,9.45372119813767,2.586518195398571,12.065999999991618
311835.9467,11.680119756449074,7.479747330196531,10.178838637447233,3.3942339192406696,12.066999999980908
311835.9477,11.840047274326901,8.313380422213973,10.89096824225481,4.348393994735571,12.068000000028405
311835.9487,11.964306921426704,9.204150862670005,11.570805592407465,5.416381013660636,12.069000000017695
311835.9497,12.038799205894263,10.109524177879242,12.187919115022172,6.550551118054721,12.070000000006985
311835.9507,12.039776896028302,10.97468528124814,12.703470247958519,7.691734998217021,12.070999999996275
311835.9517,11.937329432939721,11.737476880096457,13.07404198176439,8.773952934609854,12.071999999985565
311835.9527,11.699694299702557,12.334262422982297,13.256187763594257,9.72990667971734,12.073000000033062
311835.9537,11.297914436385653,12.70613748127797,13.211236423177096,10.496733179960557,12.074000000022352
311835.9547,10.710325521451384,12.80487598250384,12.909858735647765,11.021477119728205,12.075000000011642
311835.9557,9.926374558858292,12.598020500631687,12.335920485538184,11.26576375018131,12.076000000000931
311835.9567,8.94933980383792,12.072606620877771,11.48921360764948,11.209228066805556,12.076999999990221
311835.9577,7.7976346541540975,11.23714233179586,10.38676465431075,10.851373884914972,12.078000000037719
311835.9587,6.504523392699412,10.121631669363788,9.062557945902862,10.211685344894372,12.079000000027008
311835.9597,5.116240023074159,8.775621025464627,7.565665774625385,9.327979431489302,12.080000000016298
311835.9607,3.6886665318701186,7.264438183095514,5.956934745634554,8.2531551468551,12.081000000005588
311835.9617,2.2828772019313432,5.663969563772509,4.304520359255362,7.050646886903988,12.081999999994878
311835.9627,0.9599760046771831,4.054463263651659,2.678677181361888,5.789011669809731,12.082999999984168
311835.9637,-0.22426752974591535,2.513940356880118,1.1462880262075288,4.53616039337569,12.084000000031665
311835.9647,-1.2244502382367113,1.1118353974092408,-0.23435509552295053,3.3537745357517266,12.085000000020955
311835.9657,-2.009726117593505,-0.09653470831325948,-1.4180259604846783,2.292428731341622,12.086000000010245
311835.9667,-2.566722821824742,-1.0741541538479107,-2.3758711483146335,1.3878685892300509,12.086999999999534
311835.9677,-2.9008702459805864,-1.8047549234866493,-3.097235036965397,0.6587789705532783,12.087999999988824
311835.9687,-3.035979373756651,-2.2933055349398326,-3.58982945478934,0.10623187217204186,12.089000000036322
311835.9697,-3.012078868174882,-2.5645098978024015,-3.878232683408845,-0.2851606720536784,12.090000000025611
311835.9707,-2.881687172429999,-2.659476538322175,-4.000862506988512,-0.5445287193803666,12.091000000014901
311835.9717,-2.7048524769892484,-2.630894867656552,-4.005714466092087,-0.7107527183219298,12.092000000004191
311835.9727,-2.5434165839112786,-2.5371986790085104,-3.945275165435146,-0.8276111975230496,12.09299999999348
311835.9737,-2.45503920525339,-2.4362937010015946,-3.871099850119052,-0.9385623054953403,12.09399999998277
311835.9747,-2.4875484789702016,-2.379466432418502,-3.828575754411573,-1.0816862713941704,12.095000000030268
311835.9757,-2.674158345526161,-2.4060717420282804,-3.852374751485262,-1.2852967726627755,12.096000000019558
311835.9767,-3.0300160521694006,-2.5395188028018185,-3.9630322751865195,-1.5646604080926938,12.097000000008848
311835.9777,-3.5504206684307316,-2.784946475841663,-4.164980740330268,-1.9201518170169,12.097999999998137
311835.9787,-4.210897718669426,-3.12881282017908,-4.4462252420836625,-2.337028458607658,12.098999999987427
311835.9797,-4.9691407400464245,-3.5404352292866865,-4.779690728368421,-2.786847761230756,12.100000000034925
311835.9807,-5.7686544538302496,-3.975326141337825,-5.126108432386121,-3.2303860729818346,12.101000000024214
311835.9817,-6.543773195158256,-4.3799930125685265,-5.4381607200992335,-3.6217695599815607,12.102000000013504
311835.9827,-7.225597747392557,-4.6977274511109774,-5.6654820063036935,-3.9134064859053455,12.103000000002794
311835.9837,-7.748306303530483,-4.8748110719258175,-5.76003074837148,-4.061229929108589,12.103999999992084
311835.9847,-8.055259310527793,-4.866524197679671,-5.681311695656104,-4.0297277602108315,12.104999999981374
311835.9857,-8.104336863229964,-4.642361978228824,-5.400941971055328,-3.7962557076124974,12.106000000028871
311835.9867,-7.872019232913271,-4.189938967861029,-4.906117734098109,-3.3541976678434295,12.10700000001816
311835.9877,-7.355839066912216,-3.5171901601394757,-4.20164393912186,-2.7146483459943758,12.10800000000745
311835.9887,-6.5749863844727585,-2.6526414929570583,-3.3103277508806124,-1.9064359655044842,12.10899999999674
311835.9897,-5.569020014573999,-1.643709764238292,-2.271693088989964,-0.9744632151425763,12.10999999998603
311835.9907,-4.394814992722863,-0.553182493098793,-1.1391343103614033,0.02349285628783398,12.111000000033528
311835.9917,-3.122037812100474,0.5457960495556599,0.024224347406949398,1.0212324664451424,12.112000000022817
311835.9927,-1.8275748405225756,1.575762710463956,1.150574605385192,1.9494260817152258,12.113000000012107
311835.9937,-0.5894310722031728,2.461429483782502,2.172902017548143,2.741257822173708,12.114000000001397
311835.9947,0.5193418257994902,3.1360234461852334,3.030384404141696,3.3378952158547954,12.114999999990687
311835.9957,1.4361410956831557,3.5468790888802735,3.6732107100935507,3.693278806075698,12.116000000038184
311835.9967,2.1132489554225837,3.6597637102488347,4.066379722406649,3.7777915382603138,12.117000000027474
311835.9977,2.5208353132783414,3.461540683630147,4.192139825640123,3.5804764823476134,12.118000000016764
311835.9987,2.64829692768721,2.9609372310491424,4.05086474628238,3.109611540405943,12.119000000006054
311835.9997,2.503866448399803,2.1873668554823116,3.6603127892191947,2.3916075623856443,12.119999999995343
311836.0007,2.112592242509684,1.1879437797611558,3.0533733697414296,1.4683562802414978,12.120999999984633
311836.0017,1.5129447723387845,0.022999280218051855,2.2745493538765533,0.39330104591936627,12.12200000003213
311836.0027,0.7524324737444849,-1.2394491392676634,1.375542701744007,-0.773377730545517,12.12300000002142
311836.0037,-0.1173026616941529,-2.5297288886956326,0.41039261554822976,-1.9699907837860149,12.12400000001071
311836.0047,-1.045400489637385,-3.7824553565589527,-0.5693480037653389,-3.1384771570333108,12.125
