TimeStamp,ECR,FCR,ECU,FCU,time_index
311844.8797,-1.8157231932248572,-17.28594877005457,-4.379418161586304,-17.17675943710638,21.0
311844.8807,-1.3505932873880662,-16.404197986871786,-4.323581092889377,-15.544511860544613,21.00099999998929
311844.8817,-0.7273660095976279,-15.1905253809932,-4.057073175937637,-13.669042788195137,21.002000000036787
311844.8827,0.0827208087560162,-13.640694941909898,-3.5444881290641166,-11.557994179631502,21.003000000026077
311844.8837,1.0958063179715931,-11.765633370592997,-2.7644351252999995,-9.228554457299813,21.004000000015367
311844.8847,2.3122144074210706,-9.593970753164403,-1.712760529111835,-6.709411779072659,21.005000000004657
311844.8857,3.714657167737566,-7.173080672349247,-0.40437239142103465,-4.041643154848904,21.005999999993946
311844.8867,5.268058781152588,-4.568403616093188,1.1265466236753816,-1.2783579929424793,21.006999999983236
311844.8877,6.9210687474241155,-1.8610056495959442,2.8280026161442953,1.5169559912298933,21.008000000030734
311844.8887,8.609169131217383,0.8564992640119969,4.633237593243723,4.273299895982344,21.009000000020023
311844.8897,10.259123938868724,3.485367657690102,6.465118032186226,6.916029082927028,21.010000000009313
311844.8907,11.794385140241323,5.927048633166991,8.241494629609186,9.371392026467646,21.010999999998603
311844.8917,13.140972384599557,8.089871275940972,9.881069407542002,11.571338602482387,21.011999999987893
311844.8927,14.233291777149136,9.895508279844146,11.309256115129267,13.458154276389626,21.01300000003539
311844.8937,15.019358424288603,11.284631887887807,12.46351791864521,14.988480885566448,21.01400000002468
311844.8947,15.46493812890421,12.22123963395462,13.297712990923804,16.13633278617027,21.01500000001397
311844.8957,15.556220964279529,12.695239529361945,13.785069416125008,16.89480472680116,21.01600000000326
311844.8967,15.30077429542568,12.7230369631311,13.919537198693194,17.276286658441766,21.01699999999255
311844.8977,14.726682324464779,12.346044380026681,13.71541507739522,17.31113938416941,21.01799999998184
311844.8987,13.879948172388413,11.62722286021957,13.205309011061429,17.044930044559102,21.019000000029337
311844.8997,12.820396683563866,10.64594415568061,12.436632451386489,16.53446374260221,21.020000000018626
311844.9007,11.616455972057304,9.491615384943204,11.466991250702646,15.842963603136857,21.021000000007916
311844.9017,10.339299755868112,8.256621689553869,10.358895645141585,15.034834684152571,21.021999999997206
311844.9027,9.05689070460632,7.029203782506348,9.174298773798277,14.170488984164912,21.022999999986496
311844.9037,7.828471720045469,5.88689144166148,7.969470313314936,13.301704868408654,21.024000000033993
311844.9047,6.7000066027726115,4.89106009092437,6.790674316577746,12.467944555392833,21.025000000023283
311844.9057,5.700978301059505,4.083070711562337,5.671036229004321,11.693962331353292,21.026000000012573
311844.9067,4.842820893740528,3.4823035805247162,4.628863612058915,10.988912438225801,21.027000000001863
311844.9077,4.119103403143285,3.086218023122442,3.6675401360331628,10.347020930659797,21.027999999991152
311844.9087,3.507414781559059,2.872380539958403,2.776957081688352,9.749734182819866,21.02900000003865
311844.9097,2.9727363327315874,2.802220489046154,1.9362960683343144,9.16911290245514,21.03000000002794
311844.9107,2.4719462444778237,2.826113502503951,1.1178456693624075,8.572118586166226,21.03100000001723
311844.9117,1.9589945584245116,2.889273183973724,0.2914357288133627,7.925351397132802,21.03200000000652
311844.9127,1.3902260927109502,2.9378627444142147,-0.5709838688438682,7.199753298820134,21.03299999999581
311844.9137,0.7293194208669461,2.9247265441914747,-1.4911030258189832,6.374792641189476,21.0339999999851
311844.9147,-0.048647174822017074,2.8141879197369346,-2.480794615355938,5.441696355570981,21.035000000032596
311844.9157,-0.9544010997474811,2.585459441649381,-3.5398032920289033,4.405388895447494,21.036000000021886
311844.9167,-1.9832208060605165,2.2343549524809028,-4.654823736511424,3.284924243292122,21.037000000011176
311844.9177,-3.115333878068402,1.7731652228810724,-5.800069486286022,2.1123464602495696,21.038000000000466
311844.9187,-4.3179140128506965,1.2287438609382533,-6.939280806678088,0.9300709253403445,21.038999999989755
311844.9197,-5.548462185114144,0.639029046553228,-8.028972473383622,-0.2129726966561125,21.040000000037253
311844.9207,-6.759218032893216,0.048382170549697116,-9.022594530687895,-1.2660682329271256,21.041000000026543
311844.9217,-7.902143674199385,-0.4977587165455719,-9.875183786487675,-2.181852449815381,21.042000000015832
311844.9227,-8.933964085911343,-0.9583460379411006,-10.548030542669244,-2.921359672397708,21.043000000005122
311844.9237,-9.820741666238852,-1.3017357161896232,-11.012879237507352,-3.4584667266004945,21.043999999994412
311844.9247,-10.54150839796372,-1.5097188564904318,-11.255224018372688,-3.7832842479174493,21.044999999983702
311844.9257,-11.090572699872029,-1.5801450849301153,-11.276346731895663,-3.9041359188625906,21.0460000000312
311844.9267,-11.478250423117403,-1.5278535718835131,-11.093867006051733,-3.847898345248003,21.04700000002049
311844.9277,-11.72992749203477,-1.3837993949891498,-10.740720041366346,-3.6586285527780844,21.04800000000978
311844.9287,-11.883529804104468,-1.1924460636534233,-10.26263307978606,-3.394568668470881,21.04899999999907
311844.9297,-11.985637546970496,-1.007671531420382,-9.714320957574865,-3.1237725656198654,21.04999999998836
311844.9307,-12.086620012618898,-0.8875872945081095,-9.154749883494999,-2.9187320738365643,21.051000000035856
311844.9317,-12.235269420281796,-0.8887830178672018,-8.641913818287701,-2.850477889123941,21.052000000025146
311844.9327,-12.473467882728587,-1.0605712243240593,-8.227620027452739,-2.9826830521098033,21.053000000014435
311844.9337,-12.831424725703043,-1.439811607657944,-7.952784204541452,-3.3662996062417836,21.054000000003725
311844.9347,-13.32397131275789,-2.046841798147366,-7.843690426528557,-4.035211447567827,21.054999999993015
311844.9357,-13.948301978613905,-2.882935938871753,-7.909581326936284,-5.003292955491888,21.055999999982305
311844.9367,-14.68341205642162,-3.929564465168275,-8.141817882432667,-6.26313271167435,21.057000000029802
311844.9377,-15.491320588323553,-5.149552482171469,-8.514698296608522,-7.786527003649678,21.058000000019092
311844.9387,-16.31999199638038,-6.490047374351394,-8.987866196527344,-9.526683751454032,21.059000000008382
311844.9397,-17.107704645750687,-7.88702713326395,-9.510085246875365,-11.421919768988447,21.05999999999767
311844.9407,-17.788471107823277,-9.270927035128288,-10.02402527346186,-13.400498017320455,21.06099999998696
311844.9417,-18.298009061449793,-10.572848982200819,-10.471606974974149,-15.386149751894953,21.06200000003446
311844.9427,-18.579703595550868,-11.730756348161231,-10.799397889335518,-17.303768858230892,21.06300000002375
311844.9437,-18.589997020681192,-12.695053792228315,-10.963546825891308,-19.084757547580708,21.06400000001304
311844.9447,-18.30269179891549,-13.433006810237774,-10.933788066945349,-20.671544459176015,21.06500000000233
311844.9457,-17.711751248306285,-13.93156461475934,-10.696136047334894,-22.02088374196117,21.065999999991618
311844.9467,-16.832321854439613,-14.198301877848017,-10.254017293769488,-23.105668093699066,21.066999999980908
311844.9477,-15.699867022453411,-14.260375290561289,-9.627736935076895,-23.915137687525764,21.068000000028405
311844.9487,-14.367479025727436,-14.16158234021165,-8.852337492758908,-24.45352573614834,21.069000000017695
311844.9497,-12.901606794241603,-13.9577936099573,-7.974062385027586,-24.737334542672205,21.070000000006985
311844.9507,-11.376585665735423,-13.711188387006414,-7.045770639228028,-24.7915682896657,21.070999999996275
311844.9517,-9.868467097328837,-13.48384097950362,-6.1217497315899685,-24.645347626906467,21.071999999985565
311844.9527,-8.448710948609156,-13.331270382187848,-5.252430555204718,-24.32738677200408,21.073000000033062
311844.9537,-7.178314213452962,-13.296572356618974,-4.47951676465676,-23.861821044349018,21.07400000002235
311844.9547,-6.102907062163061,-13.405699861241189,-3.831999409547992,-23.26483100267375,21.07500000001164
311844.9557,-5.249254054135444,-13.66435011506387,-3.323440912778099,-22.542422969943512,21.07600000000093
311844.9567,-4.623464493135488,-14.05676473405092,-2.9507885511982117,-21.68960342616435,21.07699999999022
311844.9577,-4.211054128999604,-14.546567960044268,-2.6948287220209886,-20.69103878718475,21.07800000003772
311844.9587,-3.9788264022333957,-15.079574496446178,-2.52223390581464,-19.523137048537254,21.07900000002701
311844.9597,-3.878371930253959,-15.58831152853295,-2.3889998456573784,-18.15733912473171,21.080000000016298
311844.9607,-3.8508361720252524,-15.99783714535739,-2.2449360273037304,-16.564280278042855,21.081000000005588
311844.9617,-3.832491311209551,-16.23231519839534,-2.0387710818890787,-14.71838851860862,21.081999999994878
311844.9627,-3.760580036501859,-16.22173631319362,-1.7233760317537041,-12.602436616054225,21.082999999984168
311844.9637,-3.578882261381278,-15.908162945646685,-1.2605979803189744,-10.211562451610398,21.084000000031665
311844.9647,-3.242492045738652,-15.250923986606816,-0.6252358146011882,-7.556319135448466,21.085000000020955
311844.9657,-2.721377050318134,-14.230286642541616,0.19222614448952077,-4.664407087433986,21.086000000010245
311844.9667,-2.002418043510103,-12.849280050640479,1.184389141096961,-1.580866247355747,21.086999999999534
311844.9677,-1.0897787198683395,-11.133521940988475,2.3273315537426944,1.6333446138555876,21.087999999988824
311844.9687,-0.003621220715154706,-9.129089393391686,3.5825793981033076,4.904297476287549,21.08900000003632
311844.9697,1.2226559856201757,-6.898658942801862,4.900461046340885,8.149339698869035,21.09000000002561
311844.9707,2.54633955714999,-4.516302189592773,6.224517740759274,11.28227191045825,21.0910000000149
311844.9717,3.9200554416839997,-2.061445258364715,7.4965401302899854,14.219003920185996,21.09200000000419
311844.9727,5.296664486152892,0.38742763295833094,8.661741867651502,16.883183600346886,21.09299999999348
311844.9737,6.633893239656809,2.758731173435068,9.673569943985505,19.211292461386904,21.09399999998277
311844.9747,7.898229410325666,4.992844017806592,10.497688897090255,21.156749132928567,21.095000000030268
311844.9757,9.067693888399447,7.045825426315647,11.114758528339848,22.692653586789625,21.096000000019558
311844.9767,10.133221886517857,8.891466453649482,11.521744125253653,23.812931784364245,21.097000000008848
311844.9777,11.098532287982795,10.521527513764468,11.731642644057139,24.531790172546668,21.097999999998137
311844.9787,11.97852194411673,11.94419562470584,11.771663657997983,24.881547544923237,21.098999999987427
311844.9797,12.796374594384172,13.180970797306665,11.680054881688463,24.909062892186345,21.100000000034925
311844.9807,13.579706996848454,14.262344556811716,11.501893954528715,24.671107359048005,21.101000000024214
311844.9817,14.356174487916892,15.222749472828609,11.2842680285085,24.22912381023036,21.102000000013504
311844.9827,15.14901461775089,16.095325591282023,11.071320846015178,23.643869641805093,21.103000000002794
311844.9837,15.973015126264105,16.907061446524814,10.899657816744677,22.970442450201126,21.103999999992084
311844.9847,16.831350593594735,17.674822990268243,10.794562174106208,22.254143793167344,21.104999999981374
311844.9857,17.71364481016313,18.40268796072361,10.767393419157386,21.52754806991192,21.10600000002887
311844.9867,18.595491972270274,19.08086566045544,10.814421113795778,20.80902030928393,21.10700000001816
311844.9877,19.439521581463854,19.686316654204973,10.917204384218238,20.10278059048345,21.10800000000745
311844.9887,20.197934205342857,20.185010118455292,11.044474350588308,19.400458346215615,21.10899999999674
311844.9897,20.81628381326181,20.535586157921646,11.155328217365703,18.68393212776302,21.10999999998603
311844.9907,21.238152417435217,20.694043397237632,11.203414558440135,17.92912406823827,21.111000000033528
311844.9917,21.410267326376918,20.618963286605258,11.14169210206201,17.11032567387956,21.112000000022817
311844.9927,21.287560164864384,20.27672278325771,10.927288579863431,16.204581783517384,21.113000000012107
311844.9937,20.83766528786044,19.64614248494461,10.525977365477956,15.195657422041405,21.114000000001397
311844.9947,20.044403770778157,18.72206853179951,9.915828474544929,14.077157993447528,21.114999999990687
311844.9957,18.909893289076287,17.517488757913803,9.089673111048159,12.854462251858825,21.116000000038184
311844.9967,17.455054864613302,16.0639267002267,8.056139096255222,11.545250917046396,21.117000000027474
311844.9977,15.718441951120985,14.410027105797784,6.839156480546375,10.178559412666456,21.118000000016764
311844.9987,13.753480529882305,12.618426750867973,5.475984350094063,8.792436534115193,21.119000000006054
311844.9997,11.62436472122228,10.761176861051089,4.013956282124592,7.4304366364626295,21.119999999995343
311845.0007,9.400985459883742,8.91413105606558,2.506268585648669,6.137296614635627,21.120999999984633
311845.0017,7.153366770755387,7.150820773147106,1.0072298594045692,4.954238112316509,21.12200000003213
311845.0027,4.946135339045923,5.536397637797156,-0.4325568271238054,3.9143809978550217,21.12300000002142
311845.0037,2.8335490863671593,4.122223274337789,-1.7706018818821887,3.0387514115401193,21.12400000001071
311845.0047,0.855559044537651,2.9416311518859275,-2.9760914836647356,2.3333166003698547,21.125
311845.0057,-0.9647192689268852,2.0072774191918765,-4.032253182935062,1.787384066243767,21.12599999998929
311845.0067,-2.6218841387750484,1.310348582694909,-4.937293387158342,1.373573329885864,21.127000000036787
311845.0077,-4.127394319691644,0.8217177291360991,-5.703817919959048,1.04941735972057,21.128000000026077
311845.0087,-5.50707099782119,0.4949548975902181,-6.356798298547798,0.7604921500367258,21.129000000015367
311845.0097,-6.797202355439533,0.27091930603628983,-6.930291636967752,0.4448225453843619,21.130000000004657
311845.0107,-8.039634894136666,0.08350882163047048,-7.463246728005793,0.03818493869946346,21.130999999993946
311845.0117,-9.276335478782686,-0.13396974639142742,-7.994820497033683,-0.5201645380737047,21.131999999983236
311845.0127,-10.543960933661744,-0.4424062715907652,-8.55967853589678,-1.2818551490245917,21.133000000030734
311845.0137,-11.868972630864858,-0.8910684588967083,-9.183755864088962,-2.284376916343305,21.134000000020023
311845.0147,-13.263781648772852,-1.512903185456594,-9.880909139522958,-3.5471318596324553,21.135000000009313
311845.0157,-14.724310680396854,-2.3213952661744743,-10.650803655827815,-5.068930998393815,21.135999999998603
311845.0167,-16.229221545456358,-3.3092713806744514,-11.478256278888448,-6.827175878027137,21.136999999987893
311845.0177,-17.740895253473443,-4.449159894739554,-12.33411105705489,-8.778809479244872,21.13800000003539
311845.0187,-19.208080860851318,-5.696130033354107,-13.177571863799118,-10.862959484242415,21.13900000002468
311845.0197,-20.569966536743152,-6.991854542921787,-13.959771177308683,-13.005042544167324,21.14000000001397
311845.0207,-21.7612872300377,-8.269986050185944,-14.628230359880071,-15.12196620133637,21.14100000000326
311845.0217,-22.717981733612557,-9.46222371357111,-15.131776852913902,-17.12796804044883,21.14199999999255
311845.0227,-23.382857743800997,-10.50448443182957,-15.425436509073428,-18.940578621345292,21.14299999998184
311845.0237,-23.710722052021442,-11.342587750915174,-15.47481958950227,-20.486190614446468,21.144000000029337
311845.0247,-23.672484458656932,-11.936916006504541,-15.25956682596783,-21.70476137924035,21.145000000018626
311845.0257,-23.257843357355693,-12.265615833457442,-14.775512756521197,-22.55326529312676,21.146000000007916
311845.0267,-22.476298490756314,-12.326053533440877,-14.035348416541854,-23.007636462150153,21.146999999997206
311845.0277,-21.356398662076334,-12.134410407370881,-13.067712157570524,-23.06308964370666,21.147999999986496
311845.0287,-19.943303299890943,-11.72348786902257,-11.914791452615688,-22.732862734593564,21.149000000033993
311845.0297,-18.29489993620513,-11.138967836754194,-10.628664849214664,-22.045572746029208,21.150000000023283
311845.0307,-16.47685886075294,-10.434524249781571,-9.26673730650595,-21.041504297113292,21.151000000012573
311845.0317,-14.557107793526873,-9.666291797201518,-7.886711715980447,-19.768243011368682,21.152000000001863
311845.0327,-12.60026340433781,-8.887257288042255,-6.541585549130436,-18.276116914930398,21.152999999991152
311845.0337,-10.66255761804214,-8.142141784461176,-5.275159652988052,-16.613912415208063,21.15400000003865
311845.0347,-8.787744804808606,-7.463287542548939,-4.118496312264563,-14.825287826434714,21.15500000002794
311845.0357,-7.004376321575489,-6.86795846511067,-3.0876706356452055,-12.94622155614133,21.15600000001723
311845.0367,-5.324691323247784,-6.357316768465474,-2.1830321963174137,-11.003713044853926,21.15700000000652
311845.0377,-3.745210931650759,-5.917166542501802,-1.3900451387921735,-9.015814732347266,21.15799999999581
311845.0387,-2.248952772828982,-5.520374070331892,-0.6816192884446289,-6.992927132951401,21.1589999999851
311845.0397,-0.8090214207573176,-5.13070327729891,-0.021697513440148312,-4.9401515624736705,21.160000000032596
311845.0407,0.6068065866746494,-4.707659679440186,0.6302597671999174,-2.860380273895947,21.161000000021886
311845.0417,2.0309832144146336,-4.211832242654787,1.3143411644240972,-0.7577234888336665,21.162000000011176
311845.0427,3.4911057420529414,-3.6101701036078397,2.0652952948668717,1.3591647117011123,21.163000000000466
311845.0437,5.005378669132966,-2.8806354709263187,2.908175981631073,3.474290576483414,21.163999999989755
311845.0447,6.579094665398328,-2.0157348883445834,3.854959785060466,5.562429045427981,21.165000000037253
311845.0457,8.202506489286892,-1.0245424368833786,4.9024790465779216,7.588415302466686,21.166000000026543
311845.0467,9.850322656046119,0.06702062446206436,6.031884816465419,9.50777285897887,21.167000000015832
311845.0477,11.482897154895102,1.2177097895510873,7.209703971981367,11.268687964649942,21.168000000005122
311845.0487,13.049013757070574,2.3741621915211657,8.390398237525345,12.815193335077801,21.168999999994412
311845.0497,14.49000519212949,3.4754882497689428,9.52018505063091,14.091289102314363,21.169999999983702
311845.0507,15.744812522348353,4.45881248375997,10.541755761363929,15.045619425291429,21.1710000000312
311845.0517,16.755493742304033,5.265225071230854,11.399437704318288,15.636250747045892,21.17200000002049
311845.0527,17.472642502226044,5.845557689506195,12.044301959651175,15.83507003640524,21.17300000000978
311845.0537,17.860182701845805,6.16540696382978,12.43872251444465,15.631341875771941,21.17399999999907
311845.0547,17.89906213477979,6.208895797383419,12.559944689108711,15.034030561776403,21.17499999998836
311845.0557,17.5894728359134,5.980780675129747,12.402316032780465,14.072601424757007,21.176000000035856
311845.0567,16.951367135831664,5.506670384572445,11.977962125297394,12.79615420944838,21.177000000025146
311845.0577,16.023202873032027,4.831303215018865,11.315840246153837,11.270897334840322,21.178000000014435
311845.0587,14.859022691969312,4.015017874008552,10.459260991386516,9.576130066715159,21.179000000003725
311845.0597,13.524134085801593,3.1287296762404595,9.462116291342523,7.79904462100944,21.179999999993015
311845.0607,12.08979297750557,2.247870694443088,8.384177402196727,6.0287776441584215,21.180999999982305
311845.0617,10.627390803019216,1.4458559917290332,7.285916068888291,4.350218623473457,21.182000000029802
311845.0627,9.202693691246331,0.7876874935025248,6.223347404365951,2.8381135384221294,21.183000000019092
311845.0637,7.870677594377024,0.32429747119517593,5.243389641967555,1.5519819977277252,21.184000000008382
311845.0647,6.671445497306679,0.08816572903480943,4.380184104260735,0.5322966704730977,21.18499999999767
311845.0657,5.627607710191054,0.09062484134607526,3.6527235467319574,-0.20173871575724187,21.18599999998696
311845.0667,4.743363960839094,0.3211076988343535,3.0640077877977863,-0.6526216623616402,21.18700000003446
311845.0677,4.005360446910142,0.748406670092449,2.601794885535358,-0.8431663028527822,21.18800000002375
311845.0687,3.3852223707208027,1.3238218052561745,2.2408588351648184,-0.8134419384901801,21.18900000001304
311845.0697,2.8434996590345625,1.9858953385245741,1.946516273413313,-0.6163290946857563,21.19000000000233
311845.0707,2.3346265131760484,2.6662787975838,1.679059572138968,-0.3121141980191255,21.190999999991618
311845.0717,1.8123975713856597,3.2961719749041634,1.398644290893256,0.03736918756346294,21.191999999980908
311845.0727,1.235414390382588,3.8127202574305517,1.0701340568009639,0.3745060469812904,21.193000000028405
311845.0737,0.5719604840891578,4.164763453365521,0.6674100178304109,0.6510394203956777,21.194000000017695
311845.0747,-0.19617913880875182,4.317394610758733,0.17670474704211575,0.832114758348973,21.195000000006985
311845.0757,-1.0713327628981544,4.254904979560646,-0.40138322843147245,0.8988688202133405,21.195999999996275
311845.0767,-2.039227441064903,3.9818497137197855,-1.0514075982067883,0.8493455280654842,21.196999999985565
311845.0777,-3.0700157791636813,3.5221526537108465,-1.7441864749651124,0.6976841823862128,21.198000000033062
311845.0787,-4.120941881839186,2.9163596193473933,-2.4394113358288076,0.471692981024939,21.19900000002235
311845.0797,-5.1403814543090744,2.2173294132873753,-3.0895056316161544,0.20907668192818463,21.20000000001164
311845.0807,-6.072854107535275,1.4848026342836307,-3.644359782299473,-0.04728354091734186,21.20100000000093
311845.0817,-6.864508355162514,0.7793956999292204,-4.056479033776199,-0.2545099555368998,21.20199999999022
311845.0827,-7.468531263178036,0.15662072275440245,-4.286035323605528,-0.3748375620412252,21.20300000003772
311845.0837,-7.849940077714891,-0.3384740956378421,-4.305318487588405,-0.38013225528168,21.20400000002701
311845.0847,-7.989272008001858,-0.6755134566800187,-4.102135629678159,-0.2553579636376896,21.205000000016298
311845.0857,-7.884795041034158,-0.8414400309029185,-3.681805280659457,-0.0006385583582336958,21.206000000005588
311845.0867,-7.5530068798007,-0.8413397859571972,-3.0675257799595608,0.36829924175741957,21.206999999994878
311845.0877,-7.027356802105876,-0.697374482762143,-2.299052405573194,0.8213542497153508,21.207999999984168
311845.0887,-6.355300074779004,-0.44593819466481177,-1.4297802333396732,1.3168359308997781,21.209000000031665
311845.0897,-5.593959431433022,-0.13333316605328785,-0.5224838606147829,1.8055358534858732,21.210000000020955
311845.0907,-4.804806862253878,0.18959031532711335,0.3559039249886293,2.235685382406057,21.211000000010245
311845.0917,-4.047877912329197,0.47327989317798075,1.1399974142310703,2.5583087654462746,21.211999999999534
311845.0927,-3.376080030750008,0.6752117623513759,1.7716202006244541,2.7324378550972024,21.212999999988824
311845.0937,-2.8301512621744576,0.7649132622416152,2.204897614994583,2.7296639722198575,21.21400000003632
311845.0947,-2.4347660459681637,0.7277522540569807,2.410303069891667,2.5375630850958393,21.21500000002561
311845.0957,-2.19617669951836,0.5670880946626138,2.37727794311167,2.161636785638629,21.2160000000149
311845.0967,-2.1016326819071804,0.3045399437668877,2.115176936983465,1.6255532819562803,21.21700000000419
311845.0977,-2.120649084386063,-0.021685661270928563,1.6524469228035517,0.9696361227111521,21.21799999999348
311845.0987,-2.208017478860867,-0.3602727353448492,1.0341122143823323,0.24771781939722823,21.21899999998277
311845.0997,-2.3082835549107457,-0.6517626006856966,0.3177972528106844,-0.4773654685766721,21.220000000030268
311845.1007,-2.361273263859761,-0.8345410268596644,-0.4313462680873361,-1.1392288920274665,21.221000000019558
311845.1017,-2.3081463385969996,-0.8512702619442492,-1.1463397252428844,-1.6738398947226005,21.222000000008848
311845.1027,-2.0974030914191637,-0.6551388244308326,-1.7641807204523254,-2.0253152795370055,21.222999999998137
311845.1037,-1.6902725014599078,-0.21531105207802895,-2.2312178235655926,-2.151070665091768,21.223999999987427
311845.1047,-1.0649666452233144,0.4789722577318136,-2.5076094304283685,-2.0258369538637173,21.225000000034925
311845.1057,-0.21939303287089418,1.4160676432673571,-2.570469071345092,-1.6441632803283837,21.226000000024214
311845.1067,0.8279378678943411,2.5616374603060517,-2.415426580021793,-1.0211672624167976,21.227000000013504
311845.1077,2.0389017612483027,3.8604616781230843,-2.056486512858424,-0.19145768834552124,21.228000000002794
311845.1087,3.3585585929699175,5.240222040081765,-1.5242273558107107,0.7936737364282838,21.228999999992084
311845.1097,4.719500926561254,6.6169393238271175,-0.8625416849912283,1.870532743148751,21.229999999981374
311845.1107,6.047348160788227,7.901585555789714,-0.12425345049291563,2.9683787418394187,21.23100000002887
311845.1117,7.266875389130986,9.007278957051815,0.6339491268371257,4.015361360899022,21.23200000001816
311845.1127,8.308208261772085,9.85641119048205,1.356767654389366,4.944489787314259,21.23300000000745
311845.1137,9.11251246764469,10.387059833548916,1.9952272546551968,5.6990878549592425,21.23399999999674
311845.1147,9.636658493014163,10.558103676037028,2.5108219679531576,6.237240435187112,21.23499999998603
311845.1157,9.856443899360094,10.35257828317407,2.8784888978451857,6.534836218691586,21.236000000033528
311845.1167,9.76809645711599,9.77897280022813,3.08814976025722,6.5869486719139205,21.237000000022817
311845.1177,9.387948211580259,8.870360524754338,3.1447046570242603,6.407457455525627,21.238000000012107
311845.1187,8.750346616642535,7.681456969961976,3.0665189964460935,6.026981278150113,21.239000000001397
311845.1197,7.904037057917153,6.283890712969269,2.882595013121494,5.489353642256032,21.239999999990687
311845.1207,6.907395023651789,4.760135952580708,2.6287493853231125,4.847009681121749,21.241000000038184
311845.1217,5.8229919148502995,3.1966758157822945,2.343215175053474,4.155752104594849,21.242000000027474
311845.1227,4.712035848673022,1.6770307150750363,2.06214023092335,3.4694176284303397,21.243000000016764
311845.1237,3.6292324163816874,0.27529046760015863,1.8154600814639115,2.834967188243226,21.244000000006054
311845.1247,2.618560128605338,-0.9492676572899404,1.6235807777841673,2.288473813633511,21.244999999995343
311845.1257,1.7103564409116851,-1.956004493584511,1.4952205133497942,1.8523863712786703,21.245999999984633
311845.1267,0.9199728076402026,-2.724873402912552,1.4266369292479044,1.5343151093275036,21.24700000003213
311845.1277,0.24809495540155907,-3.256373262017679,1.4023220855123915,1.3274292487615384,21.24800000002142
311845.1287,-0.317346285501726,-3.5695647718697043,1.397093708377471,1.2123932357116542,21.24900000001071
311845.1297,-0.7979106705744254,-3.698401533646098,1.3793649161540609,1.160612900092873,21.25
311845.1307,-1.2204056430342733,-3.686787534825907,1.3152499041029395,1.13843101771066,21.25099999998929
311845.1317,-1.6121392381660848,-3.5828909487360012,1.173072610202485,1.1118166442105009,21.252000000036787
311845.1327,-1.9961944638272964,-3.43330918373516,0.9277983807737952,1.0510434467835565,21.253000000026077
311845.1337,-2.38724878087891,-3.277685882435608,0.5649100012356394,0.9348539229171616,21.254000000015367
311845.1347,-2.788407088818095,-3.1443268472140633,0.08329926101072357,0.7536586691410158,21.255000000004657
311845.1357,-3.189413665333599,-3.0472542620901275,-0.5031612116255979,0.511417560872589,21.255999999993946
311845.1367,-3.566467974749283,-2.9849879611689585,-1.1655728217204167,0.22598316493153664,21.256999999983236
311845.1377,-3.883705041886906,-2.9411639141711445,-1.8615490654491593,-0.0721572577938932,21.258000000030734
311845.1387,-4.096229445116258,-2.8869113169080514,-2.5382352968892388,-0.3426416065643942,21.259000000020023
311845.1397,-4.154429948101695,-2.784729404959955,-3.136558870627105,-0.539240876332444,21.260000000009313
311845.1407,-4.009165498370947,-2.593451193524709,-3.5963314026502387,-0.6147314173383475,21.260999999998603
311845.1417,-3.6173164247059195,-2.2737690063440392,-3.861733554532926,-0.5261549291395479,21.261999999987893
311845.1427,-2.9471469930617675,-1.7937370053014656,-3.8866662262934626,-0.23994320221998183,21.26300000003539
311845.1437,-1.9829320675438071,-1.13366489156511,-3.63945523437425,0.26361058735951187,21.26400000002468
311845.1447,-0.72836120804227,-0.2898746725224046,-3.1064495153628777,0.9869964858836333,21.26500000001397
311845.1457,0.7916574248932066,0.7230967523661204,-2.294150842544586,1.9136092618166252,21.26600000000326
311845.1467,2.5310237950577,1.8721133000435504,-1.2296467774644422,3.007570283481794,21.26699999999255
311845.1477,4.42436250284381,3.106957444540576,0.040724613743562135,4.215312941055759,21.26799999998184
311845.1487,6.39070934679367,4.3636438485724796,1.4543848817903453,5.468827112268153,21.269000000029337
311845.1497,8.338678967056708,5.5692420720447435,2.9369496829399955,6.690299369874638,21.270000000018626
311845.1507,10.172681451552496,6.647767929545225,4.407703042879148,7.7977510758340065,21.271000000007916
311845.1517,11.799652654488025,7.5265917581490385,5.78562861442961,8.711179257376251,21.271999999997206
311845.1527,13.135709977928277,8.142753986708778,6.995462426556471,9.358654670854335,21.272999999986496
311845.1537,14.112147787983286,8.448579898113897,7.973229522162278,9.681832668110557,21.274000000033993
311845.1547,14.680244417729682,8.416046475934406,8.670775663945918,9.640385324331021,21.275000000023283
311845.1557,14.814460438725291,8.03946902895684,9.058900286016305,9.21496270939043,21.276000000012573
311845.1567,14.513755320649613,7.336232912660315,9.12882894251664,8.408427629398027,21.277000000001863
311845.1577,13.80092266350763,6.345480919854363,8.89191992320784,7.245268505558345,21.277999999991152
311845.1587,12.72002632457233,5.124861859663341,8.377665390446174,5.769263876791242,21.27900000003865
311845.1597,11.332193551005156,3.745631561923145,7.6302063825553486,4.039633102390712,21.28000000002794
311845.1607,9.710170069270431,2.286555968317251,6.703718039450309,2.126045774745248,21.28100000001723
311845.1617,7.93215180467057,0.8271816606188477,5.657123312942459,0.1029639794783272,21.28200000000652
311845.1627,6.07546813945862,-0.5588991793713454,4.548650537858734,-1.9561527424652865,21.28299999999581
311845.1637,4.210696796339377,-1.810160855733274,3.4307572462676323,-3.9842452032695856,21.2839999999851
311845.1647,2.3967403171973864,-2.8820635945607154,2.345899074840547,-5.9251671678927424,21.285000000032596
311845.1657,0.677293800395956,-3.7503241951426514,1.3235330301303718,-7.736917749998658,21.286000000021886
311845.1667,-0.921006991908811,-4.412239119617295,0.37861769260484246,-9.393328760219683,21.287000000011176
311845.1677,-2.3886350356379866,-4.8859472148610665,-0.4882783026443864,-10.88409663778178,21.288000000000466
311845.1687,-3.731473945552875,-5.207715883207404,-1.2893090799638627,-12.213212238250144,21.288999999989755
311845.1697,-4.967597357201641,-5.42752281075275,-2.046329994988454,-13.395998567841236,21.290000000037253
311845.1707,-6.122897171032914,-5.603367165351123,-2.7868596712512974,-14.45510128454936,21.291000000026543
311845.1717,-7.2260407342189,-5.7948639258314,-3.539462808901492,-15.415876378778835,21.292000000015832
311845.1727,-8.303297651494546,-6.056741241052426,-4.329046434812225,-16.301674335389254,21.293000000005122
311845.1737,-9.373783815694845,-6.4328672005328995,-5.172568623600824,-17.12952510959005,21.293999999994412
311845.1747,-10.445623066071342,-6.951378700124127,-6.075615548501289,-17.906683169324737,21.294999999983702
311845.1757,-11.513430540683856,-7.6213766191444545,-7.03021445045586,-18.628401330361076,21.2960000000312
311845.1767,-12.557385996642472,-8.431498994917062,-8.014125581804855,-19.27717524485851,21.29700000002049
311845.1777,-13.544003652038652,-9.35050221996858,-8.991707749844515,-19.82354984376483,21.29800000000978
311845.1787,-14.428533452878451,-10.329787182129884,-9.916294414329492,-20.228419705322924,21.29899999999907
311845.1797,-15.158763979592369,-11.307621419217488,-10.733865890238665,-20.446602962890054,21.29999999998836
311845.1807,-15.679855611031687,-12.214647656409257,-11.38767290712829,-20.431337973210418,21.301000000035856
311845.1817,-15.939727854007076,-12.980148876278875,-11.823370289890486,-20.13925633240806,21.302000000025146
311845.1827,-15.894467047623513,-13.538471656299176,-11.994166207008238,-19.535334291907972,21.303000000014435
311845.1837,-15.51321545057897,-13.834999119938438,-11.865487382841986,-18.597322182349895,21.304000000003725
311845.1847,-14.782050357751848,-13.831113047658178,-11.418704263942951,-17.319198277100725,21.304999999993015
311845.1857,-13.70645756347713,-13.507686371999295,-10.653548002246898,-15.713284985633676,21.305999999982305
311845.1867,-12.312137736046068,-12.866792189162554,-9.58897462065915,-13.810792392316541,21.307000000029802
311845.1877,-10.644043927781903,-11.931489204098517,-8.262378787871302,-11.660704533614059,21.308000000019092
311845.1887,-8.763717942754143,-10.743729144097463,-6.727215946199283,-9.327082792799454,21.309000000008382
311845.1897,-6.745156152148715,-9.36061106078298,-5.049241970726869,-6.885012937392785,21.30999999999767
311845.1907,-4.669575820022162,-7.849363254715489,-3.301709585201046,-4.4155528713486785,21.31099999998696
311845.1917,-2.6195575353346636,-6.2815508628960846,-1.5599579467197167,-2.00013447378325,21.31200000003446
311845.1927,-0.6730979157731455,-4.727074840822407,0.10411310871229704,0.28507437101940575,21.31300000002375
311845.1937,1.101886192033877,-3.24853992815919,1.6271848331141203,2.3743373774522345,21.31400000001304
311845.1947,2.652105788239099,-1.8965244604322573,2.9588179804829715,4.216581895479091,21.31500000000233
311845.1957,3.9420963977522803,-0.7061883503615972,4.064532182328314,5.778319825875479,21.315999999991618
311845.1967,4.955790686797411,0.30448297519316725,4.927409701261805,7.045007469658353,21.316999999980908
311845.1977,5.69635100324635,1.1346675469535257,5.548109799501466,8.02074373686346,21.318000000028405
311845.1987,6.184312825795238,1.798975765206433,5.943332530069307,8.726364743061765,21.319000000017695
311845.1997,6.454251185842403,2.324218291187081,6.142918208653816,9.196145224409161,21.320000000006985
311845.2007,6.550321612300234,2.7450407817227633,6.185896828504666,9.473448563818152,21.320999999996275
311845.2017,6.521131503247684,3.0989042771746935,6.115897858291971,9.60576475153892,21.321999999985565
311845.2027,6.414456966256936,3.420952199554048,5.9763859864681885,9.63962982225989,21.323000000033062
311845.2037,6.2723284564486175,3.7393121979692245,5.8061972748049095,9.615925986985781,21.32400000002235
311845.2047,6.126965346961263,4.071332880129962,5.635812249915447,9.56601835484756,21.32500000001164
311845.2057,5.997949327539407,4.4211566974053005,5.484721704564787,9.50909618844276,21.32600000000093
311845.2067,5.890898311169596,4.778890847219314,5.360125628682799,9.450962828679934,21.32699999999022
311845.2077,5.797749138579056,5.121472011201102,5.257067371928912,9.384371071280446,21.32800000003772
311845.2087,5.698594075661611,5.41514471444713,5.1599577288594975,9.290844507227723,21.32900000002701
311845.2097,5.564859123529707,5.619304734076416,5.045301873671267,9.143775654671241,21.330000000016298
311845.2107,5.3634770752996195,5.691315221673884,4.885320094900922,8.91246344519749,21.331000000005588
311845.2117,5.061608431840073,5.591798523173007,4.652063228758141,8.566658480595116,21.331999999994878
311845.2127,4.631408583912668,5.289851698394872,4.3215744922109405,8.081133748009286,21.332999999984168
311845.2137,4.054335439278412,4.7676341465205265,3.877645909539849,7.439796153638984,21.334000000031665
311845.2147,3.32453825760242,4.02383171631347,3.3147599739869027,6.638900478376281,21.335000000020955
311845.2157,2.4509611402001665,3.075607875657506,2.6398912606982137,5.689017517887695,21.336000000010245
311845.2167,1.4579241147654545,1.9587985825993148,1.8729599196890467,4.615533229674927,21.336999999999534
311845.2177,0.38409811448983544,0.7262791010557574,1.045867526588603,3.457603195474348,21.337999999988824
311845.2187,-0.7200479298585301,-0.5553887721936458,0.20019171707712288,2.265641927144384,21.33900000003632
311845.2197,-1.796095335097909,-1.810749568702542,-0.6162453053485202,1.097574052801707,21.34000000002561
311845.2207,-2.7824553393540645,-2.96126270392024,-1.3536018843901811,0.014199555712273286,21.3410000000149
311845.2217,-3.6196210017178556,-3.9315979919760426,-1.9646188324970995,-0.9258844203188284,21.34200000000419
311845.2227,-4.255382397022991,-4.655836038121418,-2.409138687509996,-1.6713160891972432,21.34299999999348
311845.2237,-4.64949697913384,-5.082994513360358,-2.658086236367039,-2.1824685002759745,21.34399999998277
311845.2247,-4.777358264147775,-5.181360724562171,-2.6965035043725214,-2.4349784942017987,21.345000000030268
311845.2257,-4.632302661436349,-4.941220973689641,-2.525322760871872,-2.421960700154434,21.346000000019558
311845.2267,-4.2263267701517195,-4.3757273127556395,-2.1616836428353823,-2.154689103498335,21.347000000008848
311845.2277,-3.589142620051884,-3.519817865081604,-1.6377431303496357,-1.661677019667799,21.347999999998137
311845.2287,-2.7656607754881386,-2.42729080675629,-0.9980756795353418,-0.9862412929271863,21.348999999987427
311845.2297,-1.8121448230744068,-1.166306461869843,-0.2959005639787493,-0.1827829035249832,21.350000000034925
311845.2307,-0.7914102824606838,0.18626023438686615,0.41150952578528377,0.6878604961342786,21.351000000024214
311845.2317,0.2324664468074836,1.5510878107359685,1.0678020190099236,1.5635463916598509,21.352000000013504
311845.2327,1.1994170688295547,2.8527122955918336,1.6224237255715872,2.385955380244135,21.353000000002794
311845.2337,2.0581206452761074,4.025283881700514,2.0349364458490076,3.105230691826529,21.353999999992084
311845.2347,2.7697602400370394,5.017250683542377,2.278352905137804,3.6836957701361985,21.354999999981374
311845.2357,3.3104438803097715,5.794552684516275,2.3411715450852415,4.098309962310082,21.35600000002887
311845.2367,3.6720717386695156,6.342057750221598,2.227915281663139,4.341648985844594,21.35700000001816
311845.2377,3.861588236221132,6.66314588340616,1.958125569691272,4.421343972709809,21.35800000000745
311845.2387,3.89872082758496,6.777530582040319,1.563914663040458,4.358065952558642,21.35899999999674
311845.2397,3.8124603357039812,6.717579268678581,1.0863209297682797,4.18228647828611,21.35999999998603
311845.2407,3.6366655699189265,6.523541247050677,0.5708304735058528,3.930165484225522,21.361000000033528
311845.2417,3.405264736417405,6.238197068761747,0.06251140025258853,3.6390024843726354,21.362000000022817
311845.2427,3.1475687038178477,5.901497136611865,-0.3987534466007117,3.342728440100144,21.363000000012107
311845.2437,2.8842020171621883,5.545754460461681,-0.7824576344346531,3.0679089506914226,21.364000000001397
311845.2447,2.6240972549763004,5.191896937780513,-1.0706637568729829,2.830675473274576,21.364999999990687
311845.2457,2.3628925511784367,4.847174160935623,-1.2598721851148629,2.6349053656018158,21.366000000038184
311845.2467,2.0829310408934925,4.504563396032071,-1.3613702401494094,2.471843133913131,21.367000000027474
311845.2477,1.7548983724552571,4.143943855905327,-1.4000156823609293,2.321207069397716,21.368000000016764
311845.2487,1.3409662132366986,3.7349250646700893,-1.4115634778167268,2.1536721811575568,21.369000000006054
311845.2497,0.7991524862842206,3.2410421873198425,-1.4387901733800088,1.9344772498329648,21.369999999995343
311845.2507,0.08847856844439697,2.624885935853352,-1.5267916287747458,1.6277852595877371,21.370999999984633
311845.2517,-0.8255869827498602,1.8536316803779138,-1.7179153122923347,1.2013443848596874,21.37200000003213
311845.2527,-1.9659500729240782,0.9043822163799271,-2.0468293110030706,0.6309595343472322,21.37300000002142
311845.2537,-3.3395176427708164,-0.23125334702115052,-2.5362223701484985,-0.09570378030120551,21.37400000001071
311845.2547,-4.934103181710192,-1.5438562167440597,-3.1935731189833207,-0.9764015563481329,21.375
311845.2557,-6.716972250181216,-3.0045639214886672,-4.009327322911829,-1.992995140782953,21.37599999998929
311845.2567,-8.635239182189881,-4.565341014672372,-4.956688907621687,-3.111717132374524,21.377000000036787
311845.2577,-10.618153417443757,-6.1612056973832585,-5.993076343076754,-4.285044473955956,21.378000000026077
311845.2587,-12.581134801073867,-7.7142717218476236,-7.063135576421432,-5.455043984388694,21.379000000015367
311845.2597,-14.431248862833362,-9.139283984889575,-8.103049564927433,-6.557906705467695,21.380000000004657
311845.2607,-16.073671799262048,-10.350173917927634,-9.045757261138476,-7.529264292115497,21.380999999993946
311845.2617,-17.418594387305465,-11.267052191043735,-9.826604067465682,-8.309795573153572,21.381999999983236
311845.2627,-18.387964276029145,-11.823002289407647,-10.388900263242483,-8.85059305445608,21.383000000030734
311845.2637,-18.921472145445748,-11.970044875953318,-10.688868319166682,-9.117771739149081,21.384000000020023
311845.2647,-18.98124887934018,-11.683709403340318,-10.699514144464919,-9.095865491625826,21.385000000009313
311845.2657,-18.55485264489379,-10.965770240144856,-10.41305614493778,-8.789663684514636,21.385999999998603
311845.2667,-17.656276274062574,-9.844868423646199,-9.841680153243171,-8.224283087574433,21.386999999987893
311845.2677,-16.32488244275339,-8.37493163737434,-9.016545033463615,-7.443433509681748,21.38800000003539
311845.2687,-14.62236021080462,-6.6315060068357665,-7.985128057934807,-6.506005068844096,21.38900000002468
311845.2697,-12.627974000748912,-4.70630470752005,-6.807155242564958,-5.481263963324161,21.39000000001397
311845.2707,-10.432528332695941,-2.7004419521899012,-5.549494709233664,-4.443076974057917,21.39100000000326
311845.2717,-8.131584272221835,-0.7169410724794084,-4.280488040763173,-3.4636797476021344,21.39199999999255
311845.2727,-5.8185260391612985,1.1468293156463412,-3.0642461854776992,-2.6075509232814746,21.39299999998184
311845.2737,-3.5780828078658145,2.8061328609413057,-1.9554378011106255,-1.9259486473365381,21.394000000029337
311845.2747,-1.480860985081806,4.194655717687092,-0.9950488987888604,-1.4526082361249,21.395000000018626
311845.2757,0.42065886084762577,5.2686214622734555,-0.20749801735530718,-1.200994979532168,21.396000000007916
311845.2767,2.094348872307716,6.008900591599393,0.4006399099803441,-1.1633640848445819,21.396999999997206
311845.2777,3.528743376901077,6.420972146779102,0.8402026625339173,-1.3117138917435995,21.397999999986496
311845.2787,4.731471438335595,6.532794349958807,1.1373681041017818,-1.6005443781465536,21.399000000033993
311845.2797,5.726028546217546,6.39083312621298,1.330161742617058,-1.9711670597672195,21.400000000023283
311845.2807,6.5472562661337035,6.054663731126595,1.4639009470424047,-2.3571703213872173,21.401000000012573
311845.2817,7.236014138774024,5.590685703347924,1.5860318300253056,-2.69053938444879,21.402000000001863
311845.2827,7.833595502547811,5.065563372033589,1.7408698291834137,-2.9078723340229176,21.402999999991152
311845.2837,8.376452130437167,4.540016723955699,1.964760356717666,-2.956128222085895,21.40400000003865
311845.2847,8.891750805023129,4.06353992128421,2.282131191718187,-2.7973905560725494,21.40500000002794
311845.2857,9.394192724556547,3.6705223383101817,2.702818070074105,-2.412224770796728,21.40600000001723
311845.2867,9.884393329910584,3.3781001340409045,3.2209180971659785,-1.80134230322789,21.40700000000652
311845.2877,10.348959102014483,3.1858898317635793,3.8152746140392466,-0.985443713116927,21.40799999999581
311845.2887,10.762225067610387,3.077566665460708,4.451536749856262,-0.0032835727792305865,21.4089999999851
311845.2897,11.089449200148083,3.024068174144021,5.085582729988429,1.0918356920438521,21.410000000032596
311845.2907,11.29111404623272,2.988045520607626,5.667963071975113,2.2367908320959073,21.411000000021886
311845.2917,11.327875978224267,2.9290666225301236,6.14892097855993,3.3641274574762807,21.412000000011176
311845.2927,11.16563911424432,2.809007759371151,6.483492060291052,4.407791120053285,21.413000000000466
311845.2937,10.78022018032289,2.5970601149855304,6.636179242638051,5.308566146234134,21.413999999989755
311845.2947,10.161113236733849,2.2738253037616603,6.584741801976838,6.018727503930754,21.415000000037253
311845.2957,9.313954802190938,1.8340741556541784,6.322725574737032,6.505496939605629,21.416000000026543
311845.2967,8.261421213772605,1.2878855550335242,5.860485745675827,6.753018721331717,21.417000000015832
311845.2977,7.042447885513868,0.6600524320089394,5.224601963853087,6.762720024564587,21.418000000005122
311845.2987,5.7098287087917114,-0.012177131509798272,4.455743251265183,6.5520813214594495,21.418999999994412
311845.2997,4.326416374599784,-0.6827825262133338,3.605191759059863,6.151997159827967,21.419999999983702
311845.3007,2.960284724061916,-1.3016877230730357,2.7303650178419563,5.603042154617,21.4210000000312
311845.3017,1.679318413576853,-1.8200155224149903,1.88977313822279,4.951057719707905,21.42200000002049
311845.3027,0.5457528915914522,-2.1953243910460083,1.1379010057965342,4.242532342688632,21.42300000000978
311845.3037,-0.38880676366763095,-2.396272794864458,0.5205107122605533,3.5202567518212002,21.42399999999907
311845.3047,-1.0874066945564642,-2.406212179252275,0.0708158796836663,2.8196947594488075,21.42499999998836
311845.3057,-1.530418351121755,-2.2253171956315665,-0.1931084113874647,2.1664254447683047,21.426000000035856
311845.3067,-1.716612748712049,-1.871009690954071,-0.26943989395451984,1.5748916844465735,21.427000000025146
311845.3077,-1.662540268377175,-1.3766065545635937,-0.17215417957474732,1.048546425679421,21.428000000014435
311845.3087,-1.400289045207987,-0.7883033277614764,0.07093730502403464,0.581336374322142,21.429000000003725
311845.3097,-0.9738551674420726,-0.16077722103525655,0.4214456656074703,0.16031856888514676,21.429999999993015
311845.3107,-0.4344946182830197,0.4481625045748207,0.8346210140099535,-0.23091654372697396,21.430999999982305
311845.3117,0.16447349355606372,0.9833466258006388,1.2640956330930888,-0.6084288949684751,21.432000000029802
311845.3127,0.7728902729379857,1.3978607598872883,1.6666723582129854,-0.9841759505316645,21.433000000019092
311845.3137,1.3484844614624827,1.657931460936261,2.006674795485524,-1.362774555808729,21.434000000008382
311845.3147,1.8606333906364572,1.7465779904805434,2.2594223468504757,-1.7391757143470294,21.43499999999767
311845.3157,2.292785930926032,1.6656412232127793,2.4134829458841907,-2.0975549007537975,21.43599999998696
311845.3167,2.643312130569625,1.4359581857386825,2.4714809326607523,-2.4115919835223987,21.43700000003446
311845.3177,2.9247040836334253,1.0956323718380707,2.4493841871749633,-2.6461664862341183,21.43800000002375
311845.3187,3.161220080944904,0.6965383678699534,2.3743488786214346,-2.760340878149223,21.43900000001304
311845.3197,3.3852225580193673,0.29937583863039363,2.2813466048728563,-2.711362531555715,21.44000000000233
311845.3207,3.632593927468658,-0.03226496404994178,2.2089227014837864,-2.459298550937689,21.440999999991618
311845.3217,3.937709698771652,-0.2382610075325007,2.1945237225950964,-1.971838991330371,21.441999999980908
311845.3227,4.328495766753149,-0.2681239700081799,2.2698776139260635,-1.228771422853693,21.443000000028405
311845.3237,4.822091557654854,-0.08637494887674092,2.456907317514028,-0.22564715578764058,21.444000000017695
311845.3247,5.421583251098413,0.323406043109482,2.764607661003561,1.0237744779196212,21.445000000006985
311845.3257,6.114167130052161,0.9562658366067532,3.1872213495971278,2.4866086556484586,21.445999999996275
311845.3267,6.870962469104951,1.7855461142329536,3.7039219312084604,4.111618240824542,21.446999999985565
311845.3277,7.648530099267477,2.764592652958871,4.280062343683985,5.831681717056848,21.448000000033062
311845.3287,8.39198298501484,3.8303699865915757,4.869891795266366,7.567797116368814,21.44900000002235
311845.3297,9.039415577871415,4.90866296415841,5.420496660302658,9.23431306721942,21.45000000001164
311845.3307,9.52724513744923,5.92039378212406,5.876597325263032,10.744955476617292,21.45100000000093
311845.3317,9.795963852489557,6.788474826578436,6.185744746624833,12.019135354985714,21.45199999999022
311845.3327,9.795754817376007,7.444564589963728,6.303416645586564,12.987988183813853,21.45300000003772
311845.3337,9.49143232051738,7.835101188965,6.197518180126434,13.599611681794434,21.45400000002701
311845.3347,8.866226859547462,7.926054921925534,5.851845237213472,13.823035532428415,21.455000000016298
311845.3357,7.924042042747012,7.705961408874059,5.268165068225776,13.650567431735317,21.456000000005588
311845.3367,6.689953714367383,7.18695856171325,4.466699498705942,13.098304284631961,21.456999999994878
311845.3377,5.20888733969653,6.403738340200885,3.4849477049028166,12.204761867672362,21.457999999984168
311845.3387,3.5425817933478982,5.410519881452501,2.374943806495364,11.027745209258121,21.459000000031665
311845.3397,1.765109482566244,4.27633534030858,1.1991938811712015,9.639739325195514,21.460000000020955
311845.3407,-0.042641504385545426,3.0790759347754717,0.02566293341586365,8.122230921772424,21.461000000010245
311845.3417,-1.7990209638866592,1.8988583539633777,-1.0777273939571042,6.559463929435151,21.461999999999534
311845.3427,-3.4276555322594,0.8113302015518962,-2.0485837478201745,5.032176682398586,21.462999999988824
311845.3437,-4.862927723979455,-0.11846786786750768,-2.8350050291193356,3.611862191705071,21.46400000003632
311845.3447,-6.054407229259835,-0.8411258121420553,-3.3995732951774005,2.356036180894681,21.46500000002561
311845.3457,-6.969850854866438,-1.3263293149362647,-3.7220144087527514,1.3048961051676038,21.4660000000149
311845.3467,-7.59652812206826,-1.564476917192253,-3.80030023052785,0.4796182616213638,21.46700000000419
311845.3477,-7.940792738178503,-1.5663411480071707,-3.65011457756724,-0.1176173893798811,21.46799999999348
311845.3487,-8.025989893513623,-1.3608557588448411,-3.3027623103176955,-0.501948651884032,21.46899999998277
311845.3497,-7.888948948244445,-0.9912914275102132,-2.8017494027778373,-0.7027266181928109,21.470000000030268
311845.3507,-7.575444926593608,-0.5102351617477563,-2.198387200012628,-0.759342572166706,21.471000000019558
311845.3517,-7.135107245951568,0.02610070080245519,-1.546864068605805,-0.7164362427558522,21.472000000008848
311845.3527,-6.6163010315646,0.563656143619809,-0.8992735795240461,-0.6189826682129626,21.472999999998137
311845.3537,-6.0615007074158145,1.0558043759956515,-0.30108585173578173,-0.5077526552278976,21.473999999987427
311845.3547,-5.503618006109449,1.467610827886714,0.21250187692870248,-0.41559068110223757,21.475000000034925
311845.3557,-4.963642925365422,1.7786551603332879,0.6189928703634012,-0.3648595872814861,21.476000000024214
311845.3567,-4.449816851664803,1.9841520479173813,0.9095811765969098,-0.36627328275836396,21.477000000013504
311845.3577,-3.958395985449374,2.0942829591556107,1.08863699417741,-0.4191899198921285,21.478000000002794
311845.3587,-3.4758964207722345,2.131835663006282,1.1717736663427165,-0.5132836102569881,21.478999999992084
311845.3597,-2.9825564288304514,2.12842235082999,1.182727794363927,-0.6313682048289371,21.479999999981374
311845.3607,-2.456622291079781,2.1196937480517546,1.1494052891532127,-0.7530264372485046,21.48100000002887
311845.3617,-1.8789744525658374,2.1400708068161096,1.0995317659109445,-0.8586138368184012,21.48200000001816
311845.3627,-1.237569966136139,2.2175671071724987,1.056386930574605,-0.933167640787203,21.48300000000745
311845.3637,-0.5311895254863553,2.3692687408566457,1.035095285855083,-0.9697603946203982,21.48399999999674
311845.3647,0.2279580463356998,2.5979747188182576,1.039890176467472,-0.9718950985617847,21.48499999998603
311845.3657,1.0131102314270448,2.8903860152873233,1.062670229491206,-0.9546379559425336,21.486000000033528
311845.3667,1.7834942602469703,3.2170764931833276,1.0830361974923284,-0.944316121522514,21.487000000022817
311845.3677,2.4865620322721016,3.5342993758167784,1.0698449566223318,-0.9767582274618555,21.488000000012107
311845.3687,3.061766439326178,3.7874963471671914,0.9841608743760512,-1.0942098341271715,21.489000000001397
311845.3697,3.4455685296294822,3.91620123192007,0.7833384519307126,-1.3411988124493908,21.489999999990687
311845.3707,3.577232426193287,3.859883915027693,0.42584863600472955,-1.7597425895871015,21.491000000038184
311845.3717,3.4048736213695343,3.5641773210005456,-0.12362331447117704,-2.3843682593332973,21.492000000027474
311845.3727,2.8911855371779587,2.986881281698728,-0.8893194053739172,-3.2374495400481482,21.493000000016764
311845.3737,2.018283529199303,2.1031471298167137,-1.8802899894187306,-4.325347735182854,21.494000000006054
311845.3747,0.7911739647449192,0.9093152549246214,-3.087454314512894,-5.635778388808666,21.494999999995343
311845.3757,-0.7605274806332163,-0.5750016711199814,-4.482176697105655,-7.1367172023138306,21.495999999984633
311845.3767,-2.5828503648734853,-2.3068359781169723,-6.01655671554786,-8.777018187964359,21.49700000003213
311845.3777,-4.599742242059678,-4.221842633362237,-7.6254731775573115,-10.48875742220933,21.49800000002142
311845.3787,-6.717222141914466,-6.238203434074597,-9.230257257303801,-12.191152504847079,21.49900000001071
311845.3797,-8.82910546874675,-8.262141694221896,-10.74371588689884,-13.795756745628786,21.5
311845.3807,-10.823846605423954,-10.194578073796682,-12.07609706548307,-15.212502896576328,21.50099999998929
311845.3817,-12.59194215748146,-11.938348710633806,-13.14149669255456,-16.35608608833139,21.502000000036787
311845.3827,-14.033285269122352,-13.405351728663955,-13.864160739746943,-17.152137934063102,21.503000000026077
311845.3837,-15.063864719090455,-14.522992856907049,-14.184141505726958,-17.542657386678695,21.504000000015367
311845.3847,-15.621261176198791,-15.239364873019568,-14.061821939503286,-17.49022777169812,21.505000000004657
311845.3857,-15.668501407063859,-15.526712729604402,-13.480922326857224,-16.980657510932932,21.505999999993946
311845.3867,-15.19597901201008,-15.382895252906305,-12.449739455130741,-16.023824159884228,21.506999999983236
311845.3877,-14.221323341968564,-14.830739921025595,-11.000526760317072,-14.65266397121956,21.508000000030734
311845.3887,-12.787280199466684,-13.915381598378382,-9.187089847508163,-12.920416754517627,21.509000000020023
311845.3897,-10.957841574025736,-12.699860591452547,-7.080829427011333,-10.896392341031936,21.510000000009313
311845.3907,-8.813010728432992,-11.259412373817328,-4.76559824871028,-8.660655571665027,21.510999999998603
311845.3917,-6.442699621091812,-9.674995898485713,-2.33183746673659,-6.298119021911868,21.511999999987893
311845.3927,-3.9403178869145337,-8.026668823170679,0.1294880499143215,-3.8925780008075956,21.51300000003539
311845.3937,-1.3966211037247191,-6.387420659989783,2.5326313331397197,-1.5212166176502242,21.51400000002468
311845.3947,1.1056592367954716,-4.818018984767736,4.8020024886399195,0.7499422370964524,21.51500000001397
311845.3957,3.495975632639602,-3.3633152473563217,6.8759153106525766,2.869270573872926,21.51600000000326
311845.3967,5.718618817871154,-2.0503063582306016,8.708875821134532,4.80121509871288,21.51699999999255
311845.3977,7.733729104768478,-0.8880710496285623,10.272294643810898,6.5263415506724325,21.51799999998184
311845.3987,9.516695397711496,0.13048647353779902,11.553660742823208,8.039823754662473,21.519000000029337
311845.3997,11.056133162720505,1.0253305382593698,12.554362546349612,9.348609219676598,21.520000000018626
311845.4007,12.350770414734061,1.8248216909092982,13.286469339680277,10.467619887011987,21.521000000007916
311845.4017,13.405672206978743,2.5605841136935314,13.768878793045655,11.415436223762255,21.521999999997206
311845.4027,14.228289445612758,3.262277189333871,14.02328676589057,12.209956658838214,21.522999999986496
311845.4037,14.824822022456646,3.9528369093815554,14.070438569378208,12.864518299638382,21.524000000033993
311845.4047,15.19733929899732,4.644697200848463,13.927076859415711,13.384909797153737,21.525000000023283
311845.4057,15.342008029477006,5.337394545576479,13.603915142177055,13.76760882396717,21.526000000012573
311845.4067,15.248648601541776,6.01681233476719,13.104846555277513,13.99944483172561,21.527000000001863
311845.4077,14.901688323663828,6.656149035869585,12.427457465385125,14.058735775346712,21.527999999991152
311845.4087,14.282420995747252,7.218513733466854,11.564768861620585,13.917790513204114,21.52900000003865
311845.4097,13.372331479612455,7.660881999045134,10.50799049452063,13.546522272663912,21.53000000002794
311845.4107,12.157117855535864,7.939001400011659,9.249957299076382,12.916797501170498,21.53100000001723
311845.4117,10.630954995755827,8.012733643207843,7.788836648507221,12.00706070252125,21.53200000000652
311845.4127,8.800501274037416,7.851269628875648,6.131656756539837,10.80673790657798,21.53299999999581
311845.4137,6.68815929232525,7.437659723568433,4.29721513812177,9.319933160939426,21.5339999999851
311845.4147,4.334161470851285,6.772163883801524,2.317980821799637,7.567992909371916,21.535000000032596
311845.4157,1.7971565846639723,5.874038843805913,0.24069972505724568,5.59061659605191,21.536000000021886
311845.4167,-0.8468862206201758,4.781531409202808,-1.87446010766186,3.445328347645014,21.537000000011176
311845.4177,-3.5074773418758,3.550023064556604,-3.9562403948086455,1.2052809273176552,21.538000000000466
311845.4187,-6.083964121449486,2.2484542629743305,-5.925967792047457,-1.0444758479503093,21.538999999989755
311845.4197,-8.471142158954187,0.9543288446646684,-7.70229816613165,-3.2119800447429703,21.540000000037253
311845.4207,-10.565686062059106,-0.25225700377061844,-9.20663999141136,-5.204189365493805,21.541000000026543
311845.4217,-12.272873611550796,-1.2950153019390245,-10.36878736108771,-6.9331666186335585,21.542000000015832
311845.4227,-13.513034420228426,-2.1077014757977337,-11.132258045160913,-8.322085577424462,21.543000000005122
311845.4237,-14.22716457679576,-2.639598099974187,-11.45884533126973,-9.31053404205842,21.543999999994412
311845.4247,-14.38121198745733,-2.8597269328541577,-11.331953237899256,-9.858650619510355,21.544999999983702
311845.4257,-13.968647548368455,-2.759385779204283,-10.758387633836861,-9.9497353776473,21.5460000000312
311845.4267,-13.011084705763349,-2.3527632625019277,-9.76841125194399,-9.591112247225984,21.54700000002049
311845.4277,-11.55688058250266,-1.675565820683908,-8.414025765462261,-8.813179671948705,21.54800000000978
311845.4287,-9.677829582887252,-0.78177962702534,-6.765604248127304,-7.666750352656946,21.54899999999907
311845.4297,-7.464228413643674,0.26113258793950644,-4.907147168981609,-6.218935254024151,21.54999999998836
311845.4307,-5.018733853016612,1.3781509096969375,-2.930560219965933,-4.547956570704045,21.551000000035856
311845.4317,-2.4495378707542863,2.49317883665189,-0.9294407095865519,-2.737366720422922,21.552000000025146
311845.4327,0.13656090076121244,3.53547729779116,1.0070975520068393,-0.8701968858529497,21.553000000014435
311845.4337,2.6406098828556623,4.44544991601361,2.800037202870195,0.9764451351068638,21.554000000003725
311845.4347,4.976953351012543,5.179240981033662,4.385039590842898,2.7358614134716266,21.554999999993015
311845.4357,7.077257105237824,5.711723163326826,5.715626626319353,4.354965995604022,21.555999999982305
311845.4367,8.892823269194698,6.0376083631023,6.764725511420751,5.79596611378389,21.557000000029802
311845.4377,10.395076892193984,6.170597137690566,7.5244940953101915,7.036439681258658,21.558000000019092
311845.4387,11.574280374381972,6.140672269204887,8.004505718046492,8.067886333740026,21.559000000008382
311845.4397,12.43669818853224,5.989821805165883,8.228524720816091,8.89298002394834,21.55999999999767
311845.4407,13.000576930566462,5.766628903004118,8.230232734632756,9.521877802999379,21.56099999998696
311845.4417,13.291410772993494,5.520275297594837,8.04835910446199,9.968029538809924,21.56200000003446
311845.4427,13.337020000229092,5.294561574673714,7.721717523335755,10.24397813519007,21.56300000002375
311845.4437,13.162975213142929,5.122545214328785,7.284650631086235,10.357634996538545,21.56400000001304
311845.4447,12.788851907211374,5.022336797698125,6.763335227791184,10.309461589345991,21.56500000000233
311845.4457,12.225704519676519,4.994481739923296,6.17330785011324,10.090890371752344,21.565999999991618
311845.4467,11.475015422460922,5.0212004029462705,5.518442990150216,9.684186787601574,21.566999999980908
311845.4477,10.529216112644106,5.067578445340724,4.791466770981801,9.063801495700183,21.568000000028405
311845.4487,9.373710788490646,5.084609324266153,3.97593211040971,8.199103646433532,21.569000000017695
311845.4497,7.990173176433796,5.013810356069014,3.0494326603774082,7.058237537779141,21.570000000006985
311845.4507,6.360751658941855,4.792980094778146,1.9877066391690992,5.612721146647228,21.570999999996275
311845.4517,4.472718853784191,4.362552785240011,0.7691903759792094,3.8423182132135003,21.571999999985565
311845.4527,2.323049556408871,3.6719459987840533,-0.620466167695915,1.7396745256116475,21.573000000033062
311845.4537,-0.07758948579046201,2.685295869891379,-2.1844088657156058,-0.6857818832230236,21.57400000002235
311845.4547,-2.701903110347445,1.3860305980772119,-3.9115518974905554,-3.405118335843777,21.57500000001164
311845.4557,-5.504451566096844,-0.22015856983786897,-5.7748589417039105,-6.368691937281857,21.57600000000093
311845.4567,-8.42178630236095,-2.1042394697924305,-7.731152242590401,-9.506662799925348,21.57699999999022
311845.4577,-11.374310210725811,-4.214767660153807,-9.722520232373498,-12.731269685975162,21.57800000003772
311845.4587,-14.269767326892971,-6.4807479372581716,-11.679238530575766,-15.940747218868609,21.57900000002701
311845.4597,-17.008107585351407,-8.816176240500882,-13.523971068125203,-19.02460902136273,21.580000000016298
311845.4607,-19.48733642143539,-11.125855888601903,-15.176892197673954,-21.869890890599088,21.581000000005588
311845.4617,-21.609860046366276,-13.311968327935634,-16.561279154037834,-24.36785492772892,21.581999999994878
311845.4627,-23.288784671913124,-15.280815185283384,-17.609075945004278,-26.420608334704742,21.582999999984168
311845.4637,-24.453626874797706,-16.94914099026425,-18.265929278757824,-27.94709387029318,21.584000000031665
311845.4647,-25.05494268330496,-18.24949457581798,-18.49524440120854,-28.887962354438574,21.585000000020955
311845.4657,-25.067479846492002,-19.134186538029926,-18.280899013405637,-29.208935943250424,21.586000000010245
311845.4667,-24.49159161423473,-19.577540014378698,-17.628377888008025,-28.902404688525746,21.586999999999534
311845.4677,-23.352808162520727,-19.5762983519611,-16.564237241399308,-27.987155309128315,21.587999999988824
311845.4687,-21.69962822692228,-19.148229477558193,-15.133962096449395,-26.506295202664358,21.58900000003632
311845.4697,-19.599752486465235,-18.32913564339663,-13.398426857376643,-24.523590944815627,21.59000000002561
311845.4707,-17.13511652012059,-17.168622304737283,-11.4292949578518,-22.11857417107281,21.5910000000149
311845.4717,-14.396181800858052,-15.725087294685231,-9.303785741254018,-19.380866424048204,21.59200000000419
311845.4727,-11.47599882867169,-14.060451158731475,-7.099287017587193,-16.404229380027243,21.59299999999348
311845.4737,-8.464562234690574,-12.235156270021923,-4.888295504341139,-13.280853266146561,21.59399999998277
311845.4747,-5.443933538991787,-10.303916231558862,-2.7341246701408646,-10.09635439929983,21.595000000030268
311845.4757,-2.4845181333003876,-8.312603396326491,-0.6877349842053255,-6.925867442612266,21.596000000019558
311845.4767,0.35724171772268143,-6.296531100291699,1.2140760707882754,-3.831498159494975,21.597000000008848
311845.4777,3.039643777097633,-4.280232073088373,2.949025745747067,-0.8612603578553382,21.597999999998137
311845.4787,5.535014324049632,-2.2786714244077304,4.508287269864537,1.950529420923046,21.598999999987427
311845.4797,7.8276981743167955,-0.2996782522555041,5.894207349646692,4.581569274626208,21.600000000034925
311845.4807,9.91106623424919,1.6527500312903987,7.117104782124402,7.018893781971685,21.601000000024214
311845.4817,11.783948070477448,3.5747089477701954,8.191540667957595,9.255582779509961,21.602000000013504
311845.4827,13.44694502496481,5.458697553283213,9.132495586648263,11.287288604390897,21.603000000002794
311845.4837,14.899079552900966,7.290456182248322,9.951889043432379,13.109017084018964,21.603999999992084
311845.4847,16.13518904914859,9.046752277219817,10.655831824592191,14.7125561924784,21.604999999981374
311845.4857,17.14438255909923,10.694433309233196,11.242917356450693,16.08486449823851,21.60600000002887
311845.4867,17.90975578613458,12.190929093589082,11.703742464515187,17.20761796481389,21.60700000001816
311845.4877,18.40941636416786,13.486228219698578,12.021712873833303,18.057980120295,21.60800000000745
311845.4887,18.618722164973367,14.526190879438692,12.175048097696648,18.610520811780834,21.60899999999674
311845.4897,18.51349575260096,15.256909705091848,12.139768306172204,18.840077018701233,21.60999999998603
311845.4907,18.073862349678773,15.629706838422623,11.893335771276343,18.7252389934194,21.611000000033528
311845.4917,17.288278853254663,15.606272230990678,11.418546791225928,18.252067639239808,21.612000000022817
311845.4927,16.15728598197686,15.163414070312017,10.707234541688422,17.41761254590916,21.613000000012107
311845.4937,14.696528589373829,14.296911335759845,9.763352933228953,16.232808411541416,21.614000000001397
311845.4947,12.938649742291382,13.024029625394196,8.605065630296679,14.724380129016993,21.614999999990687
311845.4957,10.933766761054992,11.384378172933603,7.265557827735687,12.935478599330075,21.616000000038184
311845.4967,8.748372217055378,9.438937405233029,5.792412151067981,10.92489138530763,21.617000000027474
311845.4977,6.462656749702042,7.267257945270569,4.245532033860699,8.76481258080922,21.618000000016764
311845.4987,4.166408342987702,4.96300698562993,2.693742122158455,6.537300786521826,21.619000000006054
311845.4997,1.9537887058481245,2.628199286696796,1.210331135904354,4.329688376811999,21.619999999995343
311845.5007,-0.08259303771541462,0.3665817256304654,-0.13208543272858284,2.2293157531160848,21.620999999984633
311845.5017,-1.8578082145879284,-1.723270862367975,-1.2669287358354286,0.3180397189342371,21.62200000003213
311845.5027,-3.300403089747626,-3.5545539680098686,-2.138758624880119,-1.3330024048812386,21.62300000002142
311845.5037,-4.357342300434006,-5.057950486943421,-2.707640443727019,-2.6679054567641485,21.62400000001071
311845.5047,-4.997650839995311,-6.1859652963481455,-2.9523624119212424,-3.649378305226583,21.625
311845.5057,-5.21441553424085,-6.915498197137003,-2.8721900208064715,-4.260687460763651,21.62599999998929
311845.5067,-5.024952046455673,-7.248435025222646,-2.486975858443862,-4.505985935244647,21.627000000036787
311845.5077,-4.469108609757365,-7.210217443577478,-1.8355941650205565,-4.409000065668607,21.628000000026077
311845.5087,-3.605847176701282,-6.846537217017158,-0.9728247396544997,-4.010200035860219,21.629000000015367
311845.5097,-2.508400224456641,-6.218472918556104,0.03504441216677902,-3.3627217393951385,21.630000000004657
311845.5107,-1.2584318417448919,-5.3965294787579685,1.1155061332798688,-2.527424513737342,21.630999999993946
311845.5117,0.060277723382539346,-4.45414002111801,2.195541485400712,-1.5675495943254172,21.631999999983236
311845.5127,1.3680630409123522,-3.461235420091829,3.2072328305560034,-0.5434798614588138,21.633000000030734
311845.5137,2.5949700782635476,-2.4784754542500025,4.0927793913129875,0.4919111196611561,21.634000000020023
311845.5147,3.6852315772513737,-1.5526673295779667,4.808469306438371,1.4968926266101252,21.635000000009313
311845.5157,4.600243632692847,-0.7137792045844588,5.327261960646521,2.443166244304065,21.635999999998603
311845.5167,5.319810756121671,0.026200502768690025,5.639767138308767,3.3166180473044893,21.636999999987893
311845.5177,5.841593356859689,0.672487705334579,5.7535605974592805,4.116492687417512,21.63800000003539
311845.5187,6.1788639490912916,1.2449274718650922,5.69093424928851,4.853105154844044,21.63900000002468
311845.5197,6.356839870945346,1.7739102529738169,5.485327958020427,5.544351447265742,21.64000000001397
311845.5207,6.407995285019092,2.2952167704705277,5.1768146663089745,6.211399472753777,21.64100000000326
311845.5217,6.366850675721775,2.8443320667903595,4.807099046370724,6.874024397654001,21.64199999999255
311845.5227,6.264784748218007,3.4508196017564092,4.4145336246369515,7.54609009175646,21.64299999998184
311845.5237,6.12540707360571,4.133338972795802,4.029651116389353,8.231666491279196,21.644000000029337
311845.5247,5.9609706895038785,4.895826564401841,3.6716580800385925,8.922212560317798,21.645000000018626
311845.5257,5.770197933399829,5.725243477018731,3.34623820558099,9.595151757740382,21.646000000007916
311845.5267,5.537750381537109,6.591140641677837,3.044883028530039,10.21403134816529,21.646999999997206
311845.5277,5.235408754510486,7.447112126016036,2.745816322392648,10.730301584973706,21.647999999986496
311845.5287,4.824857092761629,8.23402168236951,2.4164206165466307,11.08659074048539,21.649000000033993
311845.5297,4.261804096395354,8.884712658761039,2.016925556541918,11.221202656113274,21.650000000023283
311845.5307,3.5010389733250715,9.32976448422832,1.5049926186396339,11.073439414981888,21.651000000012573
311845.5317,2.5019226456861743,9.503754308010599,0.8407411572615078,10.589264966018561,21.652000000001863
311845.5327,1.2337671332723241,9.35143014888677,-0.008284429439806597,9.726784529719128,21.652999999991152
311845.5337,-0.3194389319171314,8.833207117887978,-1.0627031353768868,8.461023460713085,21.65400000003865
311845.5347,-2.1554428577178673,7.929460341371068,-2.327886305622032,6.787547198076226,21.65500000002794
311845.5357,-4.251657711242119,6.643201025598036,-3.791897018387299,4.724565539710604,21.65600000001723
311845.5367,-6.56484659274382,5.0008746311516745,-5.425000809441148,2.3133000744639136,21.65700000000652
311845.5377,-9.032633233231834,3.051197481180868,-7.180818269083642,-0.3834497199105795,21.65799999999581
311845.5387,-11.57673812412741,0.862133039070973,-8.99903284613254,-3.284443372072094,21.6589999999851
311845.5397,-14.107676039939049,-1.4837164101928524,-10.809418425272405,-6.29458745059586,21.660000000032596
311845.5407,-16.530512517222483,-3.894879761845105,-12.536825285185243,-9.310593223370507,21.661000000021886
311845.5417,-18.751176893339323,-6.2774201965929235,-14.106672027631294,-12.227228828471329,21.662000000011176
311845.5427,-20.68277744091153,-8.541388748587703,-15.450443700683344,-14.943641981854839,21.663000000000466
311845.5437,-22.251364857074208,-10.606748253817088,-16.510697068597622,-17.36922947802336,21.663999999989755
311845.5447,-23.400643657242558,-12.408246227562218,-17.245122568055237,-19.428578670581814,21.665000000037253
311845.5457,-24.09523156868239,-13.898823881340196,-17.629304048887402,-21.06509867816569,21.666000000026543
311845.5467,-24.32220494684185,-15.05129625109903,-17.657942879893678,-22.243086007633146,21.667000000015832
311845.5477,-24.09083008543177,-15.858210533202895,-17.3444600923525,-22.948118129069062,21.668000000005122
311845.5487,-23.430550327744797,-16.329969128829898,-16.719044562020652,-23.185824760898413,21.668999999994412
311845.5497,-22.387460646106103,-16.491472834357936,-15.825361769841765,-22.979235109295836,21.669999999983702
311845.5507,-21.01963924338099,-16.3776814248441,-14.716262223090704,-22.365025803898938,21.6710000000312
311845.5517,-19.39180653529643,-16.028589625175943,-13.44891915386981,-21.389086782103863,21.67200000002049
311845.5527,-17.569836049589057,-15.484166309452027,-12.079873000344847,-20.101872305440555,21.67300000000978
311845.5537,-15.615644365782575,-14.779798934656661,-10.660460981439337,-18.554007280786944,21.67399999999907
311845.5547,-13.58293830979241,-13.942724447778499,-9.233063988932328,-16.79257537733166,21.67499999998836
311845.5557,-11.514202333688962,-12.989818403860124,-7.828514830679739,-14.858429933307173,21.676000000035856
311845.5567,-9.439176993865697,-11.926966830185245,-6.464890471541969,-12.784750279638349,21.677000000025146
311845.5577,-7.374923896712045,-10.750075251228239,-5.147768476704719,-10.59692701024666,21.678000000014435
311845.5587,-5.327408881724473,-9.447593324267935,-3.8718785450110564,-8.31371402978181,21.679000000003725
311845.5597,-3.294379776895109,-8.004269411023687,-2.623938648063236,-5.949447630217189,21.679999999993015
311845.5607,-1.2691831661304924,-6.4057136782566175,-1.3863458671893825,-3.517017248403572,21.680999999982305
311845.5617,0.7549307202069702,-4.643254766453524,-0.14130635366228309,-1.0311905699158646,21.682000000029802
311845.5627,2.780515241282577,-2.7185333472765527,1.1250546181472274,1.488144472053105,21.683000000019092
311845.5637,4.802145494116246,-0.6472905727072746,2.41905851070985,4.013252433037436,21.684000000008382
311845.5647,6.803594034444726,1.5381204897429546,3.736722132916636,6.506718226749141,21.68499999999767
311845.5657,8.756313207940327,3.7878533115870274,5.06220542575302,8.920798952342222,21.68599999998696
311845.5667,10.619439670515842,6.035512492056612,6.367652190622808,11.19812570885538,21.68700000003446
311845.5677,12.341380587507151,8.200941603729799,7.614474808365562,13.27377967817806,21.68800000002375
311845.5687,13.86287773995809,10.194687229017047,8.755985410252583,15.078620267778696,21.68900000001304
311845.5697,15.121291521317332,11.923800904936481,9.741136297984912,16.54360661933942,21.69000000000233
311845.5707,16.05571690948326,13.298499344979717,10.519015600175345,17.604741131462756,21.690999999991618
311845.5717,16.612450909321836,14.239105921716822,11.043661896148317,18.208186336557993,21.691999999980908
311845.5727,16.75028499662136,14.682652879685351,11.278722141558708,18.31507258644812,21.693000000028405
311845.5737,16.44510150844168,14.588538840791449,11.201484787221982,17.90552734766335,21.694000000017695
311845.5747,15.693309433647906,13.94270894608525,10.80587396169135,16.981516639207076,21.695000000006985
311845.5757,14.51375736587002,12.759948945886038,10.10408588035996,15.568189827129665,21.695999999996275
311845.5767,12.9478996988799,11.084048231846023,9.126676058419985,13.713551118434191,21.696999999985565
311845.5777,11.058153144566116,8.985774856288561,7.9210530680888365,11.486432026561234,21.698000000033062
311845.5787,8.924548778415277,6.558800271263572,6.54848714760359,8.972894262809508,21.69900000002235
311845.5797,6.639943801187933,3.9138944294497175,5.079885031925472,6.271336917405314,21.70000000001164
311845.5807,4.304191666418316,1.1718657108804236,3.590701922592033,3.4867014061273167,21.70100000000093
311845.5817,2.017766165640824,-1.5441696611455833,2.1554458095617757,0.7242508290049966,21.70199999999022
311845.5827,-0.12461485640426535,-4.1165478302519976,0.8422700894329589,-1.9165610022044723,21.70300000003772
311845.5837,-2.039822049512356,-6.440209195161956,-0.29185647746159904,-4.347625355406151,21.70400000002701
311845.5847,-3.6611122363764714,-8.42866563332685,-1.2049673893494877,-6.496670869781721,21.705000000016298
311845.5857,-4.941499248899033,-10.018320891217046,-1.8725643761449298,-8.31036315377456,21.706000000005588
311845.5867,-5.855441598220006,-11.17083760292628,-2.2885209826699104,-9.755793957767047,21.706999999994878
311845.5877,-6.398749575778523,-11.87342644927027,-2.464361694848564,-10.820293256285186,21.707999999984168
311845.5887,-6.586781135278712,-12.137123942099096,-2.4270089732575886,-11.509653615651102,21.709000000031665
311845.5897,-6.451154328449332,-11.99330695242335,-2.2152357469786303,-11.845002140189713,21.710000000020955
311845.5907,-6.035338858194509,-11.488847141650192,-1.875182756169738,-11.858676990551663,21.711000000010245
311845.5917,-5.389587517277873,-10.68042232113429,-1.4553867734045955,-11.589551241386971,21.711999999999534
311845.5927,-4.565720555349204,-9.628563950922262,-1.0018087696131108,-11.078288510837021,21.712999999988824
311845.5937,-3.6122775369298736,-8.392025068675698,-0.5533463635016109,-10.363008499864378,21.71400000003632
311845.5947,-2.570502179181521,-7.023001077008814,-0.1382629137879486,-9.475787183980662,21.71500000002561
311845.5957,-1.4715311191109786,-5.56363272602019,0.22812848508656164,-8.440321391053253,21.7160000000149
311845.5967,-0.33502714587477367,-4.044076996352068,0.5443148003542496,-7.270960458390866,21.71700000000419
311845.5977,0.8306557435948704,-2.4822620193229294,0.8219026773941788,-5.973161328842398,21.71799999999348
311845.5987,2.02684870389921,-0.885263739875867,1.0834971095076895,-4.545272464764351,21.71899999998277
311845.5997,3.26171100129682,0.7479273986547637,1.3593724007759573,-2.9814114418151165,21.720000000030268
311845.6007,4.5464928528434365,2.422624993945253,1.6832892742768562,-1.2750851168550048,21.721000000019558
311845.6017,5.891362820300545,4.144129053050156,2.087897294051859,0.5768784916292223,21.722000000008848
311845.6027,7.3012899426495155,5.913403763414744,2.6002033473106234,2.570552939055025,21.722999999998137
311845.6037,8.772465782364137,7.723279647047299,3.237580630780146,4.691744533850836,21.723999999987427
311845.6047,10.289696449013414,9.555651316127197,4.004738974371515,6.913826419024656,21.725000000034925
311845.6057,11.82509487928613,11.38003503841502,4.891981656841788,9.196869564557169,21.726000000024214
311845.6067,13.338269116914965,13.153704927931694,5.87494552253003,11.488233060427543,21.727000000013504
311845.6077,14.778046488826929,14.82345753106236,6.915872837528244,13.724626383806816,21.728000000002794
311845.6087,16.08561204444324,16.32887901316044,7.966309570738363,15.835503438330433,21.728999999992084
311845.6097,17.19878868155378,17.606824895208664,8.970980854171339,17.747507456321852,21.729999999981374
311845.6107,18.05706131247018,18.596686092766696,9.872474535133858,19.389571512185356,21.73100000002887
311845.6117,18.60686100976808,19.245920865875686,10.616279904276137,20.69820306704837,21.73200000001816
311845.6127,18.806586306484217,19.515290040666397,11.155689269068493,21.622450590895582,21.73300000000745
311845.6137,18.630852011473717,19.38324720977048,11.456079087871734,22.128069318469745,21.73399999999674
311845.6147,18.073520199260322,18.849005634540983,11.498144170434626,22.200470152999323,21.73499999998603
311845.6157,17.14917753435758,17.9339227860099,11.279757573661541,21.846144459842332,21.736000000033528
311845.6167,15.892867375098813,16.681000480294244,10.816260691147408,21.092397663436675,21.737000000022817
311845.6177,14.358050259451488,15.152478184649333,10.139139827713919,19.985382700417986,21.738000000012107
311845.6187,12.612936357213018,13.425681767535098,9.293202457964433,18.586585178621554,21.739000000001397
311845.6197,10.735491666715996,11.587461611221732,8.332513046760866,16.968059894405194,21.739999999990687
311845.6207,8.80755059154588,9.727695645957628,7.315470381352748,15.206838708216548,21.741000000038184
311845.6217,6.908558097805273,7.932430390849771,6.299493825039413,13.379010817497091,21.742000000027474
311845.6227,5.109505837637825,6.277276622720133,5.335826295782293,11.55401011714469,21.743000000016764
311845.6237,3.467614110868037,4.82166117795927,4.464953024452268,9.789627093495717,21.744000000006054
311845.6247,2.0222462080219517,3.604463646265263,3.713077962199019,8.12819597747225,21.744999999995343
311845.6257,0.792429550121974,2.6414429637748853,3.0899995076787197,6.594297906856826,21.745999999984633
311845.6267,-0.22379031296208424,1.92469575412919,2.588593628215615,5.194178045490075,21.74700000003213
311845.6277,-1.048107249755097,1.4242011553098277,2.1859583296508855,3.916912612061316,21.74800000002142
311845.6287,-1.7189443334794259,1.0913136293207226,1.8461136716905802,2.737196104677276,21.74900000001071
311845.6297,-2.2869617869124985,0.8638843437394456,1.5240015752644793,1.6194655774887359,21.75
311845.6307,-2.809507321142413,0.6725404533758046,1.1704040328743983,0.5229523856368506,21.75099999998929
311845.6317,-3.344531239851758,0.44754448366808114,0.7373091703340986,-0.5928354670549387,21.752000000036787
311845.6327,-3.944537233476164,0.12560327867554,0.183210547137674,-1.7627369641976185,21.753000000026077
311845.6337,-4.651134130437394,-0.3439973485114177,-0.5221696150693652,-3.011192622248936,21.754000000015367
311845.6347,-5.490694604824112,-0.9944907244590817,-1.3941884365050494,-4.34859295947071,21.755000000004657
311845.6357,-6.471519725613346,-1.838400850738573,-2.4309790180732436,-5.76907771723841,21.755999999993946
311845.6367,-7.58276363852673,-2.8662692047868292,-3.6127612002096625,-7.250002443874308,21.756999999983236
311845.6377,-8.795204557653609,-4.047434060146305,-4.902838588205669,-8.753128312569157,21.758000000030734
311845.6387,-10.063772805146792,-5.332766951463699,-6.2501940140453485,-10.227425261785667,21.759000000020023
311845.6397,-11.331580730856817,-6.659088665044122,-7.593444383654809,-11.613223656670707,21.760000000009313
311845.6407,-12.535058854028684,-7.954832631527142,-8.865787900059008,-12.847320530432281,21.760999999998603
311845.6417,-13.60970087005348,-9.14641144174944,-10.000484174088324,-13.86855541486302,21.761999999987893
311845.6427,-14.495866830268874,-10.164682855135379,-10.936359482197757,-14.623326441331786,21.76300000003539
311845.6437,-15.144093688006526,-10.950910426883699,-11.622829845096055,-15.070523885007457,21.76400000002468
311845.6447,-15.519415192748214,-11.461670408211589,-12.023983396509959,-15.185414813949457,21.76500000001397
311845.6457,-15.604293366586855,-11.67226495171704,-12.121355724646795,-14.962113344906463,21.76600000000326
311845.6467,-15.39990149914621,-11.578350978789224,-11.915158357382003,-14.414406293185499,21.76699999999255
311845.6477,-14.925660153283832,-11.195669538547634,-11.423868911021952,-13.574860545997259,21.76799999998184
311845.6487,-14.217097246302727,-10.557944871707903,-10.682247165907011,-12.492301108988716,21.769000000029337
311845.6497,-13.322264332317404,-9.713197705516862,-9.737989370203254,-11.227901788467166,21.770000000018626
311845.6507,-12.297078157835532,-8.718866574546713,-8.647359144782103,-9.850259208881441,21.771000000007916
311845.6517,-11.200056233997401,-7.636239872850775,-7.470225429546996,-8.429913094772179,21.771999999997206
311845.6527,-10.086968120164707,-6.524759623725275,-6.264987323048672,-7.033822848287099,21.772999999986496
311845.6537,-9.005925519345343,-5.4367603560918365,-5.083867983050306,-5.7203082356666854,21.774000000033993
311845.6547,-7.993384389493863,-4.413153264912829,-3.969015160102822,-4.534911077415702,21.775000000023283
311845.6557,-7.071436339126355,-3.480462729490115,-2.9497591958727942,-3.5075405579296297,21.776000000012573
311845.6567,-6.2466343449635175,-2.6494798630862952,-2.041259293430763,-2.6511366470341597,21.777000000001863
311845.6577,-5.510442554194113,-1.915630477227509,-1.2446276258646112,-1.9619368991616175,21.777999999991152
311845.6587,-4.841237059295784,-1.2609794531937197,-0.548472471487497,-1.4212762729045532,21.77900000003865
311845.6597,-4.207630176559978,-0.6576275325776779,0.06833924979759556,-0.99870282396831,21.78000000002794
311845.6607,-3.572760128738397,-0.07211647520114352,0.6330190344992631,-0.6560684318889206,21.78100000001723
311845.6617,-2.8990939388154517,0.5296417354055521,1.1746986733526072,-0.3521650357730182,21.78200000000652
311845.6627,-2.1532429509136852,1.1774465443638975,1.7202268932182887,-0.0474315812112241,21.78299999999581
311845.6637,-1.3102923349649795,1.8924322178337927,2.290369683872465,0.291740888705567,21.7839999999851
311845.6647,-0.3571978528155947,2.6837057402948847,2.8968167797177578,0.6895294344203798,21.785000000032596
311845.6657,0.7051002237939807,3.5463656711129743,3.540309709143043,1.1583573409157932,21.786000000021886
311845.6667,1.861064549102887,4.4611246136704805,4.210088004663202,1.6979396153342488,21.787000000011176
311845.6677,3.0815145602253677,5.395591105514961,4.884711576098916,2.2957622625375063,21.788000000000466
311845.6687,4.32605186665057,6.30709361419282,5.534172839659814,2.928913208934305,21.788999999989755
311845.6697,5.546711783742687,7.146767346590549,6.123076504520886,3.5670436521187376,21.790000000037253
311845.6707,6.692469631107334,7.86449011186756,6.614551629580642,4.176122905033154,21.791000000026543
311845.6717,7.714141585823769,8.41416019375223,6.9744811537886084,4.722569076597457,21.792000000015832
311845.6727,8.569177201088236,8.758766709955555,7.175596703583932,5.17730028655751,21.793000000005122
311845.6737,9.225848607796147,8.874715867868803,7.200995059160872,5.5192603469800945,21.793999999994412
311845.6747,9.666399334861223,8.754943973558758,7.046686618014404,5.738028065469287,21.794999999983702
311845.6757,9.888818066314219,8.410463690397249,6.722880403780773,5.835215037640197,21.7960000000312
311845.6767,9.9070395079694,7.870142717987382,6.253835466554672,5.824483429472443,21.79700000002049
311845.6777,9.749532396496855,7.178688863145861,5.676252592749901,5.7301601045332635,21.79800000000978
311845.6787,9.456397921891673,6.392995197311947,5.036328824989927,5.584571950767104,21.79899999999907
311845.6797,9.075254198523432,5.5771658246826625,4.385735574186442,5.424364397110895,21.79999999998836
311845.6807,8.656308637592462,4.796680055713019,3.7768951887278446,5.286176928901809,21.801000000035856
311845.6817,8.247107367423212,4.11224662342538,3.2580091232005697,5.202124407369231,21.802000000025146
311845.6827,7.887490212094396,3.5739403101407023,2.8683251667298317,5.1955632670968726,21.803000000014435
311845.6837,7.605266850896141,3.2161964459580052,2.634117672098335,5.27760370238442,21.804000000003725
311845.6847,7.41306545478233,3.054165309749611,2.565794181666288,5.444764026571071,21.804999999993015
311845.6857,7.306695230320809,3.0818051787637,2.6564397228087557,5.678057437669027,21.805999999982305
311845.6867,7.265219327964116,3.271931236800104,2.8819759242839167,5.943664501824856,21.807000000029802
311845.6877,7.252768451130899,3.5782531849833927,3.202958783885441,6.195189971376026,21.808000000019092
311845.6887,7.221954372008016,3.9392449500995252,3.5678811781646202,6.377345148873543,21.809000000008382
311845.6897,7.118583155029826,4.283513696527343,3.917699374645301,6.430752347662137,21.80999999999767
311845.6907,6.887235903395048,4.5361895651099955,4.1911812618457995,6.297450414720811,21.81099999998696
311845.6917,6.4771933835452735,4.625756452760829,4.330589764182237,5.926601566134399,21.81200000003446
311845.6927,5.848139168318798,4.4906976934903975,4.28717641676381,5.279868025508107,21.81300000002375
311845.6937,4.975088389002273,4.085343417271046,4.0259714014319306,4.335945718087267,21.81400000001304
311845.6947,3.8520549645016615,3.3843776169945397,3.5294167384889636,3.0938102375653784,21.81500000000233
311845.6957,2.494083259969321,2.3855858618465784,2.7994932767396525,1.574341368965436,21.815999999991618
311845.6967,0.9374198821086828,1.110587464144245,1.8581298766506227,-0.17986368109302156,21.816999999980908
311845.6977,-0.7622264780341425,-0.396516833693791,0.7458416842027966,-2.1065150376963064,21.818000000028405
311845.6987,-2.5332110230854763,-2.0724568687645197,-0.4812914474176599,-4.127352555672874,21.819000000017695
311845.6997,-4.292971325571978,-3.8397583629856933,-1.7560411857262554,-6.153270453477961,21.820000000006985
311845.7007,-5.954104828573452,-5.6129029808863,-3.0054469897606855,-8.090420376936233,21.820999999996275
311845.7017,-7.43097220516786,-7.305116440881096,-4.156745507922825,-9.846779533937045,21.821999999985565
311845.7027,-8.646243708059142,-8.835164052605222,-5.143279754234588,-11.338628286576563,21.823000000033062
311845.7037,-9.53681064454508,-10.133538334026978,-5.909858517583771,-12.49639055531954,21.82400000002235
311845.7047,-10.058543275145112,-11.147487100434992,-6.417090016011217,-13.269349603578927,21.82500000001164
311845.7057,-10.189484002297485,-11.844446208634812,-6.64431185031714,-13.628855457326743,21.82600000000093
311845.7067,-9.931210290739957,-12.213597559607406,-6.590872300179929,-13.56977837318207,21.82699999999022
311845.7077,-9.308271316678429,-12.265454687579751,-6.275673069482357,-13.110122152248929,21.82800000003772
311845.7087,-8.365779588709607,-12.029567567978042,-5.735045777117165,-12.288876501186195,21.82900000002701
311845.7097,-7.16540675106047,-11.550616766178935,-5.01918823749814,-11.162343381668688,21.830000000016298
311845.7107,-5.780175469897721,-10.883317453234007,-4.187517208237842,-9.799303717518887,21.831000000005588
311845.7117,-4.288543237733983,-10.086661671538364,-3.303389444549073,-8.275485747883554,21.831999999994878
311845.7127,-2.7683294538790904,-9.218082294989912,-2.428693742633603,-6.667846144822081,21.832999999984168
311845.7137,-1.2910393444820192,-8.328119353785876,-1.6188186826627549,-5.049175602711933,21.834000000031665
311845.7147,0.08291252272723368,-7.456109430766909,-0.9184542714320285,-3.4834926070991705,21.835000000020955
311845.7157,1.3076747352470384,-6.627307941361484,-0.35859563120907717,-2.022597863449556,21.836000000010245
311845.7167,2.3538590027447976,-5.851703521393707,0.04500751040605714,-0.7040369278483745,21.836999999999534
311845.7177,3.2087587401128737,-5.1246085693550985,0.2918580117106052,0.4494273558416431,21.837999999988824
311845.7187,3.87494504215139,-4.428927694531212,0.39523121222988344,1.428883304467088,21.83900000003632
311845.7197,4.3674578394583685,-3.738834525863172,0.3794092466338596,2.23707396142826,21.84000000002561
311845.7207,4.709944833944181,-3.024444013494946,0.2759550594030121,2.885250694790589,21.8410000000149
311845.7217,4.930198325242867,-2.2569661698604633,0.119440850790803,3.389477872841537,21.84200000000419
311845.7227,5.055590943454767,-1.4137781144318358,-0.05690753214496678,3.766833089049417,21.84299999999348
311845.7237,5.108910965492754,-0.48285909796635706,-0.22518889702134842,4.031944314216766,21.84399999998277
311845.7247,5.105046792310789,0.5339029536640286,-0.36601301468287795,4.194256608128063,21.845000000030268
311845.7257,5.048873824561947,1.6189113013389456,-0.47056842641564894,4.2563320695471685,21.846000000019558
311845.7267,4.934565387367914,2.7387926643778715,-0.541365794232668,4.213366991347504,21.847000000008848
311845.7277,4.7463959728180365,3.846112665195605,-0.5915914659402286,4.053972207892122,21.847999999998137
311845.7287,4.460945453410002,4.882744010592035,-0.6431523826670894,3.7621206440131783,21.848999999987427
311845.7297,4.050463189898154,5.7845877610429,-0.723630971433978,3.320034711433106,21.850000000034925
311845.7307,3.48702618721972,6.4872075800873406,-0.8624834128719305,2.7116789397205667,21.851000000024214
311845.7317,2.747038179352035,6.931839090616867,-1.0868951407150063,1.926451095083788,21.852000000013504
311845.7327,1.8155755115356287,7.071191144297874,-1.4177455503983158,0.962635482659878,21.853000000002794
311845.7337,0.6900950669943242,6.874467542324199,-1.8661258450588392,-0.16980171203779146,21.853999999992084
311845.7347,-0.6169216453153112,6.331105547144645,-2.4308005163024102,-1.447434787346115,21.854999999981374
311845.7357,-2.076711596781226,5.452844921324753,-3.0969094583567567,-2.832879648266239,21.85600000002887
311845.7367,-3.644547881531296,4.273896891720948,-3.8360834557082826,-4.275707576779962,21.85700000001816
311845.7377,-5.261663245966797,2.8491612899512333,-4.608003142241663,-5.714762615049292,21.85800000000745
311845.7387,-6.858650377007716,1.250624818683131,-5.3632847212942085,-7.081729180000705,21.85899999999674
311845.7397,-8.360060797398969,-0.4377539825224946,-6.047439410931934,-8.305665287583011,21.85999999998603
311845.7407,-9.689801467352844,-2.126223692998187,-6.605541370783839,-9.318111906485218,21.861000000033528
311845.7417,-10.776843945992377,-3.725932459138474,-6.98716204500557,-10.058321180822986,21.862000000022817
311845.7427,-11.560723658047248,-5.155534977786896,-7.151095210754798,-10.478122610552793,21.863000000012107
311845.7437,-11.996320251881285,-6.3471237028943985,-7.069410094091566,-10.545969459279055,21.864000000001397
311845.7447,-12.057473039643057,-7.250958867000937,-6.7304286459358,-10.249775752688315,21.864999999990687
311845.7457,-11.739092020362609,-7.838586687434729,-6.140321900977965,-9.598260882899204,21.866000000038184
311845.7467,-11.057564669973306,-8.104088560153993,-5.323149758258147,-8.620653879059141,21.867000000027474
311845.7477,-10.049417952747145,-8.06338117918448,-4.319315985928464,-7.364759864173541,21.868000000016764
311845.7487,-8.76835836460619,-7.751671138851049,-3.1825614310664543,-5.893542574238621,21.869000000006054
311845.7497,-7.280964365034831,-7.219339882772072,-1.9757585820728516,-4.2805144317103005,21.869999999995343
311845.7507,-5.661430560704261,-6.526679221552266,-0.7658861079694774,-2.6043362161741515,21.870999999984633
311845.7517,-3.9858493462448026,-5.738000196187153,0.38135850658063514,-0.9431011460475014,21.87200000003213
311845.7527,-2.3265550505375807,-4.915689090469902,1.4068144019877762,0.6311938866228253,21.87300000002142
311845.7537,-0.7470442438769249,-4.1147792342968295,2.26249865645554,2.0575068272892945,21.87400000001071
311845.7547,0.7020750464914273,-3.3785467398155324,2.9152091756210097,3.289520953288836,21.875
311845.7557,1.9857568344658065,-2.735528732194647,3.3487635061667986,4.298014336898651,21.87599999998929
311845.7567,3.085602551452346,-2.1982150167168064,3.5646777850617464,5.071649327338616,21.877000000036787
311845.7577,3.999304665693349,-1.7634931931396172,3.5812385755878746,5.616153561348657,21.878000000026077
311845.7587,4.738556344965742,-1.4147499541707655,3.4310731907514227,5.9520163622998385,21.879000000015367
311845.7597,5.325684811430026,-1.1253652265880256,3.157466477323654,6.11096394407185,21.880000000004657
311845.7607,5.789389617035904,-0.8631973228129151,2.809790157683221,6.131590148786856,21.880999999993946
311845.7617,6.160052270245397,-0.5955600074818912,2.438493282980422,6.054595602416954,21.881999999983236
311845.7627,6.465122116037753,-0.2941459012266742,2.0901411844383597,5.918119846569345,21.883000000030734
311845.7637,6.725071330225094,0.06064052539016315,1.8029818025029387,5.753635180912042,21.884000000020023
311845.7647,6.950350503668669,0.4764139050862043,1.6034633108135465,5.582809217343657,21.885000000009313
311845.7657,7.139671574718269,0.9469651343429231,1.504030937945226,5.415641556939073,21.885999999998603
311845.7667,7.279807102743543,1.4520587316921467,1.5024032267677352,5.250048497767952,21.886999999987893
311845.7677,7.346937625753453,1.9589138797717525,1.582381147703967,5.072921148933962,21.88800000003539
311845.7687,7.309417640975453,2.425236893653862,1.71609185955858,4.8625313444974045,21.88900000002468
311845.7697,7.131681574412546,2.803509443104431,1.867427325363035,4.592021186043123,21.89000000001397
311845.7707,6.77888884201332,3.046102180659448,1.9963203022131788,4.23359959634191,21.89100000000326
311845.7717,6.221824059669286,3.1106911230969976,2.0634179645378645,3.7629941330687053,21.89199999999255
311845.7727,5.44153315190394,2.9654137012766593,2.0346746594678886,3.1636760711661305,21.89299999998184
311845.7737,4.433192417195822,2.593217247276148,1.8853938447550826,2.4303946224444055,21.894000000029337
311845.7747,3.208774361541372,1.9949237007805098,1.6033043022515636,1.5716206207218797,21.895000000018626
311845.7757,1.7981851814278464,1.1906539049150728,1.1903518698695243,0.6106049763193698,21.896000000007916
311845.7767,0.2486936462872028,0.21941160749272756,0.6630157681155897,-0.4151073975275936,21.896999999997206
311845.7777,-1.3773640999656414,-0.8631939647031671,0.05110556694608316,-1.4557147925492748,21.897999999986496
311845.7787,-3.0064505691723795,-1.9889247484055834,-0.6048534988831874,-2.452598566238127,21.899000000033993
311845.7797,-4.5589542886520125,-3.0822575390371094,-1.2573977290912561,-3.3428748999705875,21.900000000023283
311845.7807,-5.955140541513165,-4.066622792857086,-1.8566982849267828,-4.064652272619309,21.901000000012573
311845.7817,-7.1213996213234205,-4.870970918229936,-2.3554827786662664,-4.5625113693636745,21.902000000001863
311845.7827,-7.99622820855128,-5.436056588714907,-2.713819651089297,-4.792693165443186,21.902999999991152
311845.7837,-8.535394459854539,-5.719848104127481,-2.9032899244690644,-4.727499388335062,21.90400000003865
311845.7847,-8.715804848927881,-5.701542525419031,-2.9101277770336877,-4.3584759883116115,21.90500000002794
311845.7857,-8.537704578528876,-5.38379150995811,-2.7370095674560755,-3.6980584794165927,21.90600000001723
311845.7867,-8.024992859054064,-4.792905835092768,-2.4033009064528352,-2.7794978063905798,21.90700000000652
311845.7877,-7.223605392240445,-3.9769930613785336,-1.9437204550223108,-1.6550434077466465,21.90799999999581
311845.7887,-6.198092754847458,-3.002174869254791,-1.4055327611930237,-0.3925212407354731,21.9089999999851
311845.7897,-5.026688237862909,-1.9472099186284417,-0.8445256021171031,0.92940675657613,21.910000000032596
311845.7907,-3.7952963286531194,-0.8969974258437788,-0.32014596040369714,2.226893254848656,21.911000000021886
311845.7917,-2.5909302960022966,0.06445832462567544,0.10974869544118142,3.4169740178158867,21.912000000011176
311845.7927,-1.4951749983528793,0.860991720700319,0.39402883695183005,4.423524877033445,21.913000000000466
311845.7937,-0.578244606655886,1.4305057108652188,0.49283569888301687,5.182590464545947,21.913999999989755
311845.7947,0.10585485328703446,1.7299329243328003,0.38109995900755306,5.646629259522923,21.915000000037253
311845.7957,0.5226555117653227,1.738492333055336,0.05070607866417908,5.7873234143737,21.916000000026543
311845.7967,0.6587919328224064,1.4589655899662262,-0.4888975422859397,5.596738255413626,21.917000000015832
311845.7977,0.5217088020827226,0.9169022798308009,-1.2116927830884914,5.086772082430171,21.918000000005122
311845.7987,0.13759552780466977,0.157855977978591,-2.0775861887631804,4.286996867411018,21.918999999994412
311845.7997,-0.4522042282160109,-0.7570651765415362,-3.0361552405513965,3.2411392522498654,21.919999999983702
311845.8007,-1.195921169514269,-1.7568960329675012,-4.031278486991336,2.002574572084406,21.9210000000312
311845.8017,-2.0367401438500985,-2.7672117945636767,-5.006197780029181,0.6292927006090063,21.92200000002049
311845.8027,-2.918292264545805,-3.7166190209663523,-5.908521284555853,-0.8211648064147535,21.92300000000978
311845.8037,-3.7897216549250086,-4.542734536464203,-6.69468435458766,-2.2963051998364974,21.92399999999907
311845.8047,-4.609842638488418,-5.197104852595731,-7.333440956073778,-3.752387989347866,21.92499999998836
311845.8057,-5.350003593250945,-5.648628936848934,-7.808055621887606,-5.156895317381215,21.926000000035856
311845.8067,-5.995410797385185,-5.885198269638498,-8.116995429209377,-6.489564186486051,21.927000000025146
311845.8077,-6.544825722223443,-5.913445224695701,-8.27307052191774,-7.741925768500754,21.928000000014435
311845.8087,-7.008716476934544,-5.756676530543607,-8.3011256706676,-8.915451743830442,21.929000000003725
311845.8097,-7.406101925153307,-5.451244813787402,-8.23452918315153,-10.01855144046724,21.929999999993015
311845.8107,-7.760459793970397,-5.041760885173875,-8.110825032288796,-11.062782214330417,21.930999999982305
311845.8117,-8.095164787637326,-4.575658068989547,-7.966997598577695,-12.058717247426841,21.932000000029802
311845.8127,-8.428969979880938,-4.097677120183461,-7.834837666039817,-13.011951567871108,21.933000000019092
311845.8137,-8.772039948192177,-3.644840807960621,-7.736889325960011,-13.91971486736368,21.934000000008382
311845.8147,-9.122987723114102,-3.2424313219174836,-7.683400993688715,-14.768499656587771,21.93499999999767
311845.8157,-9.467265233725985,-2.901377057521363,-7.670605237818409,-15.533011214572207,21.93599999998696
311845.8167,-9.77711865708144,-2.617308794154938,-7.680521088551257,-16.176611571920876,21.93700000003446
311845.8177,-10.013159597357793,-2.3713734175086114,-7.682321666704791,-16.65327654325148,21.93800000002375
311845.8187,-10.127436219707992,-2.1327132433684706,-7.635154059500526,-16.91092765102072,21.93900000001304
311845.8197,-10.067731895958824,-1.8623485396176427,-7.492152608446085,-16.89585519515967,21.94000000000233
311845.8207,-9.78268817553188,-1.5180569175126915,-7.2052654704319,-16.557829214531246,21.940999999991618
311845.8217,-9.227257073667326,-1.059740146922502,-6.730429429541997,-15.855413691064527,21.941999999980908
311845.8227,-8.367944083205549,-0.4547168909441747,-6.032587926663234,-14.760964451868064,21.943000000028405
311845.8237,-7.1873125673755425,0.3176159363391915,-5.090056242564129,-13.264806728709242,21.944000000017695
311845.8247,-5.687281701948882,1.2622503542250574,-3.8977950612782286,-11.37815324531559,21.945000000006985
311845.8257,-3.890858188968053,2.366550028442155,-2.4692538833345608,-9.134432204123469,21.945999999996275
311845.8267,-1.8420862498447297,3.5999861085023235,-0.8365793758474598,-6.588836534218967,21.946999999985565
311845.8277,0.39583298286178126,4.915689918557039,0.9508621205648364,-3.816067817919729,21.948000000033062
311845.8287,2.7441287604567766,6.253705079640757,2.8295389518937673,-0.9064149819382898,21.94900000002235
311845.8297,5.113468601457373,7.545651154756432,4.72612649332044,2.0395368632711555,21.95000000001164
311845.8307,7.409964887368461,8.720368020725934,6.562813062505999,4.9171430820441815,21.95100000000093
311845.8317,9.541662162302677,9.710009120634856,8.263066014372278,7.624367138746429,21.95199999999022
311845.8327,11.424940015459905,10.456002664440309,9.757340807514586,10.068322025720422,21.95300000003772
311845.8337,12.990272922150423,10.914307725533723,10.988221368978735,12.171137416684573,21.95400000002701
311845.8347,14.186847877245047,11.059456402264711,11.914534362122668,13.874664460745558,21.955000000016298
311845.8357,14.985647259838188,10.886987576173766,12.514077616414458,15.143635304448653,21.956000000005588
311845.8367,15.380747717033298,10.414031137666784,12.78473442911904,15.967034703366883,21.956999999994878
311845.8377,15.388751989015606,9.677978835941058,12.743897853319305,16.357603016665788,21.957999999984168
311845.8387,15.0464433799658,8.733361736287257,12.426287604547685,16.349557972836653,21.959000000031665
311845.8397,14.406915283867153,7.647226572332547,11.8803914728796,15.994780819516116,21.960000000020955
311845.8407,13.534565127608014,6.493447133309398,11.163888713150333,15.357845816979689,21.961000000010245
311845.8417,12.499440208548618,5.346508103585934,10.338502775776407,14.510367978833363,21.961999999999534
311845.8427,11.37147295236289,4.275347552131383,9.464776454771544,13.52519367470996,21.962999999988824
311845.8437,10.215140622515017,3.3378358122729757,8.597259953148649,12.470957898978272,21.96400000003632
311845.8447,9.085030169740234,2.5764037006344,7.780552135611652,11.407481325298276,21.96500000002561
311845.8457,8.022688495682706,2.0152183519958946,7.046542661128419,10.382385207633492,21.9660000000149
311845.8467,7.055002191309896,1.6591517538182243,6.41307720111857,9.429172537503765,21.96700000000419
311845.8477,6.19419253619544,1.4946104892653496,5.884122176802217,8.566872710126912,21.96799999999348
311845.8487,5.439347048261314,1.4921126604353143,5.451353948361134,7.801189372334251,21.96899999998277
311845.8497,4.7792545268673345,1.6103274441987934,5.096955207362719,7.126942710929349,21.970000000030268
311845.8507,4.1961816242978385,1.8011509997851485,4.797282517783936,6.531472747932455,21.971000000019558
311845.8517,3.6701382139222165,2.015293407310718,4.5269851995525565,5.998581336561559,21.972000000008848
311845.8527,3.183135067392606,2.2078046517078027,4.263115210548202,5.512545959792915,21.972999999998137
311845.8537,2.722944780097239,2.3429778870078026,3.988774200992191,5.061742132112455,21.973999999987427
311845.8547,2.285934566124719,2.398134222791543,3.695896645961538,4.6414623820970125,21.975000000034925
311845.8557,1.8786415545689297,2.365908473951805,3.3868614742414698,4.255612918042654,21.976000000024214
311845.8567,1.5178972239510466,2.254808270043127,3.074749426147341,3.9170944705311483,21.977000000013504
311845.8577,1.229463893003365,2.087994477737512,2.7822069076071605,3.6468186088817,21.978000000002794
311845.8587,1.0453069979100007,1.9004116672169007,2.53902492462636,3.471460295249629,21.978999999992084
311845.8597,0.9997760080785282,1.7345654462627638,2.3786789146114202,3.4201863965996613,21.979999999981374
311845.8607,1.125089171289383,1.6353822243596852,2.3341881126271535,3.520714223912126,21.98100000002887
311845.8617,1.4466003597315815,1.6446825543896664,2.4337300818155394,3.795132284576503,21.98200000001816
311845.8627,1.9783614907211378,1.795842060434243,2.6964793146928545,4.2559493141114135,21.98300000000745
311845.8637,2.7194774139864513,2.1091996983119348,3.129124812062172,4.902823706728298,21.98399999999674
311845.8647,3.6516829986002977,2.588702924605835,3.723461383621837,5.720364871223929,21.98499999998603
311845.8657,4.73846063509437,3.2201599877918716,4.455348782230599,6.677296637759948,21.986000000033528
311845.8667,5.925871126723078,3.971312576148707,5.285201403541072,7.727140557016116,21.987000000022817
311845.8677,7.145106000394523,4.793762769198362,6.160021956652478,8.810426801636808,21.988000000012107
311845.8687,8.316600667939655,5.6266041924477275,7.016839871148026,9.858287263984867,21.989000000001397
311845.8697,9.355392114795142,6.401436547369814,7.787274278236376,10.797144568973804,21.989999999990687
311845.8707,10.177277230405243,7.048302116574269,8.40282613501594,11.554096168983458,21.991000000038184
311845.8717,10.705241203053076,7.501986370646577,8.80042594404133,12.062516005812684,21.992000000027474
311845.8727,10.875588348353029,7.70808210374061,8.927730460142502,12.267365274759275,21.993000000016764
311845.8737,10.643224309580296,7.62823204978245,8.74767730456944,12.129722000495045,21.994000000006054
311845.8747,9.985607557683194,7.244037456105975,8.241869324388388,11.630105007866199,21.994999999995343
311845.8757,8.905003244184055,6.559242824558107,7.412465019269929,10.770275325907075,21.995999999984633
311845.8767,7.428822951979928,5.599968262928545,6.282387518695154,9.573336879487464,21.99700000003213
311845.8777,5.60800553106312,4.412945129663825,4.893819430764295,8.082115168477806,21.99800000002142
311845.8787,3.5135707091499957,3.061900130481448,3.30510955127791,6.3559523664665205,21.99900000001071
311845.8797,1.2316417455020234,1.6224094138916954,1.5863646645678853,4.46620441608635,22.0
311845.8807,-1.1426296067345454,0.1756904234295382,-0.18587869134002924,2.490845965671627,22.00099999998929
311845.8817,-3.511706160187235,-1.1980988956637657,-1.9344233042244343,0.5086706768471678,22.002000000036787
311845.8827,-5.78230000201815,-2.4264363814663508,-3.5871031492262904,-1.406390435567723,22.003000000026077
311845.8837,-7.871429800871687,-3.450281671658926,-5.081890281023665,-3.1903248399346973,22.004000000015367
311845.8847,-9.711392135105568,-4.228655495089041,-6.370967481753347,-4.793024162431677,22.005000000004657
311845.8857,-11.253245909813828,-4.741536353468058,-7.4234183581085595,-6.180861243419061,22.005999999993946
311845.8867,-12.468553240161071,-4.990818936791784,-8.226320260425334,-7.337658129741732,22.006999999983236
311845.8877,-13.34928714934513,-4.99926305535049,-8.784178847950173,-8.264001254141562,22.008000000030734
311845.8887,-13.90598991777449,-4.807552732328414,-9.116801505801302,-8.975020157542973,22.009000000020023
311845.8897,-14.164429211389121,-4.4697639790676655,-9.255854825901151,-9.496893998502836,22.010000000009313
311845.8907,-14.161136547034298,-4.047689433994991,-9.240474715154805,-9.86247132536469,22.010999999998603
311845.8917,-13.938311124212442,-3.6045740905767967,-9.112384518040164,-10.106471317334664,22.011999999987893
311845.8927,-13.538622301616055,-3.1988686111225393,-8.911018528815562,-10.260770850325828,22.01300000003539
311845.8937,-13.000441485514628,-2.878600285711718,-8.669141481282573,-10.350267794031275,22.01400000002468
311845.8947,-12.353979544745615,-2.6768973133691416,-8.409399853334865,-10.389748297911,22.01500000001397
311845.8957,-11.618704780092953,-2.6090861451457465,-8.142143592471689,-10.382080666967624,22.01600000000326
311845.8967,-10.802279181470212,-2.671625527612522,-7.864726776443432,-10.317921150064212,22.01699999999255
311845.8977,-9.901090946072374,-2.842959904784696,-7.562345587609539,-10.176961135847279,22.01799999998184
311845.8987,-8.902294910790499,-3.086186664241222,-7.210316564894601,-9.930586303839947,22.019000000029337
311845.8997,-7.78711618254507,-3.3532547151545335,-6.777552672894956,-9.545671984077797,22.020000000018626
311845.9007,-6.535041323591055,-3.5902633140181828,-6.230873575425617,-8.989119900242692,22.021000000007916
311845.9017,-5.128428919528382,-3.7433243608781015,-5.53970151708215,-8.23266152033962,22.021999999997206
311845.9027,-3.557026368420278,-3.764398815877904,-4.680653747340631,-7.2574204933618445,22.022999999986496
311845.9037,-1.8218867122589666,-3.6165234606343573,-3.641550444883961,-6.057744546025004,22.024000000033993
311845.9047,0.06176242727484007,-3.27790727410018,-2.4244128335848734,-4.643884193411499,22.025000000023283
311845.9057,2.06304203835328,-2.7444908930303478,-1.0471241607298007,-3.0432052729912114,22.026000000012573
311845.9067,4.135542382165801,-2.030716650027848,0.45644318110518034,-1.2997640055376696,22.027000000001863
311845.9077,6.219086207999318,-1.1684352895762395,2.0378806847277584,0.5277668065998292,22.027999999991152
311845.9087,8.243013852134903,-0.20406100894941315,3.637167742860469,2.369669370000829,22.02900000003865
311845.9097,10.13071479852599,0.805739361660422,5.186812238868316,4.149950134173462,22.03000000002794
311845.9107,11.805001915054516,1.7993916248214936,6.616832561333461,5.791885516873514,22.03100000001723
311845.9117,13.193835407613825,2.7162598427991194,7.860121506174755,7.22384198082336,22.03200000000652
311845.9127,14.23586249656831,3.50240862690023,8.857692805272903,8.384835416220383,22.03299999999581
311845.9137,14.885250110003339,4.115706716081655,9.563319870238601,9.229313340276656,22.0339999999851
311845.9147,15.115350534810974,4.529761899591961,9.947132911779086,9.7307118116232,22.035000000032596
311845.9157,14.920847927731407,4.736293389866089,9.997839354022236,9.883450687655527,22.036000000021886
311845.9167,14.318176343716308,4.745702946086324,9.723363736402531,9.703175221281638,22.037000000011176
311845.9177,13.344163525751668,4.585785035876323,9.14985422469512,9.22521511979406,22.038000000000466
311845.9187,12.05302308909736,4.298701399039131,8.319158658066861,8.50139837055643,22.038999999989755
311845.9197,10.511974407586056,3.936518234366264,7.285018494284552,7.595510380636834,22.040000000037253
311845.9207,8.795899096336793,3.5557477626878713,6.108349867195266,6.577814547855591,22.041000000026543
311845.9217,6.981532769698222,3.2114359133320356,4.852065457089396,5.519136239977159,22.042000000015832
311845.9227,5.141731936074833,2.9513844195377694,3.575930802740106,4.485050128258321,22.043000000005122
311845.9237,3.3403444572081944,2.8110840475230487,2.331940254236255,3.530697371464152,22.043999999994412
311845.9247,1.6281491140916557,2.8098671107534385,1.160641942123791,2.6966957298927823,22.044999999983702
311845.9257,0.04022171677313267,2.948668543442806,0.08874354830384071,2.006498589426129,22.0460000000312
311845.9267,-1.405057445954049,3.209627290684024,-0.8717989612814986,1.4654185839467389,22.04700000002049
311845.9277,-2.7053031176521714,3.5575790879633815,-1.7231562721765992,1.0613716870644148,22.04800000000978
311845.9287,-3.871847308591613,3.9433056026664706,-2.4795641720107913,0.7672338047992524,22.04899999999907
311845.9297,-4.9261553285888215,4.308231681833134,-3.164067857057196,0.5445498676310884,22.04999999998836
311845.9307,-5.895334546040447,4.590119119356372,-3.804432139477958,0.3482098052389381,22.051000000035856
311845.9317,-6.807222591995225,4.729206015542114,-4.4286589143901764,0.1316185700174882,22.052000000025146
311845.9327,-7.685580807308123,4.674195233502146,-5.060590181049432,-0.14815325202131024,22.053000000014435
311845.9337,-8.545905249614082,4.387508172510783,-5.716063872712548,-0.5257421206133717,22.054000000003725
311845.9347,-9.392302868214152,3.8492898820101185,-6.4000318851309945,-1.0238328775362913,22.054999999993015
311845.9357,-10.215770905132036,3.0597716455414776,-7.104950784065335,-1.6508127138284296,22.055999999982305
311845.9367,-10.994074004328434,2.039755860848049,-7.81062555626759,-2.3999476675429583,22.057000000029802
311845.9377,-11.69325009294082,0.8291698407029309,-8.48553837287547,-3.2501381395081377,22.058000000019092
311845.9387,-12.270609003009097,-0.5161776965593868,-9.089542399971258,-4.168152338304653,22.059000000008382
311845.9397,-12.678933588481252,-1.9293294722564995,-9.577660320045522,-5.112090338653569,22.05999999999767
311845.9407,-12.871467087204348,-3.3379496138832563,-9.904612393740809,-6.035710892598656,22.06099999998696
311845.9417,-12.807185266703703,-4.67057835688863,-10.029621059104095,-6.8931700207944155,22.06200000003446
311845.9427,-12.455816076605732,-5.862772788685132,-9.921006059461202,-7.643682753002715,22.06300000002375
311845.9437,-11.802086869833584,-6.862547027557242,-9.560099316733666,-8.255630694640113,22.06400000001304
311845.9447,-10.848748286449323,-7.634594519096409,-8.944070870718745,-8.709697037130855,22.06500000000233
311845.9457,-9.618038062353973,-8.16289483363797,-8.087360200525461,-9.000711167336087,22.065999999991618
311845.9467,-8.1513963123072,-8.451465722394033,-7.0215410983356925,-9.138017029182226,22.066999999980908
311845.9477,-6.507411835635861,-8.523202702858425,-5.793599881077414,-9.14432962048074,22.068000000028405
311845.9487,-4.758150315393675,-8.416935285270382,-4.462761229865786,-9.053197461224189,22.069000000017695
311845.9497,-2.9841731653780155,-8.18300278308958,-3.0961381553646596,-8.90533024391643,22.070000000006985
311845.9507,-1.2686847347371308,-7.877796407389119,-1.7635984975967962,-8.744166089728566,22.070999999996275
311845.9517,0.30866708595951736,-7.557813917398286,-0.5323185413286552,-8.611130417440442,22.071999999985565
311845.9527,1.6777747458216161,-7.273818721477423,0.5384729873696151,-8.541070662574802,22.073000000033062
311845.9537,2.783294233935711,-7.0656825384104325,1.4020733775416734,-8.558334747944349,22.07400000002235
311845.9547,3.5886318556330146,-6.95842083380901,2.0277830756970303,-8.67389791514008,22.07500000001164
311845.9557,4.078334089728365,-6.959810164112406,2.4029623209145123,-8.883838554765891,22.07600000000093
311845.9567,4.258669966279353,-7.059818163114573,2.533483663314352,-9.16932933976752,22.07699999999022
311845.9577,4.156365497542878,-7.231895845918289,2.442550138181868,-9.498158611329776,22.07800000003772
311845.9587,3.815623449518598,-7.43599607483574,2.1680050817417604,-9.827643633464872,22.07900000002701
311845.9597,3.293722305867131,-7.623009799138323,1.7584033665773218,-10.10865727805041,22.080000000016298
311845.9607,2.6556200923039723,-7.740170078120718,1.2682311582552521,-10.290376888262816,22.081000000005588
311845.9617,1.9680790561764314,-7.73687694006933,0.7527406881898991,-10.325289776678138,22.081999999994878
311845.9627,1.2938673531885383,-7.570353431767102,0.2629002504940389,-10.173961525196333,22.082999999984168
311845.9637,0.6865801110042649,-7.210559033789511,-0.15905561373276833,-9.809093899447937,22.084000000031665
311845.9647,0.1865560232051387,-6.6438594381188265,-0.4830534586704558,-9.218466855705056,22.085000000020955
311845.9657,-0.18174639335392323,-5.8750743572410755,-0.6932674477332514,-8.406467223057879,22.086000000010245
311845.9667,-0.41069546910152566,-4.927685479728527,-0.7886816355011071,-7.39404458573954,22.086999999999534
311845.9677,-0.5087055219307778,-3.842169089063066,-0.7820972972878387,-6.217089091352277,22.087999999988824
311845.9687,-0.497848754285737,-2.6726042235137286,-0.6977099614045696,-4.92338115785503,22.08900000003632
311845.9697,-0.4101379678231213,-1.4818791751449605,-0.5675235502055704,-3.568404006556166,22.09000000002561
311845.9707,-0.28288750276657953,-0.33595961813673725,-0.42698507590907164,-2.210422666158092,22.0910000000149
311845.9717,-0.15364810489565453,0.7022231773293929,-0.31030119594533767,-0.9053064084211092,22.09200000000419
311845.9727,-0.0552501130806297,1.5786651866320733,-0.24592988796317153,0.2984017926529763,22.09299999999348
311845.9737,-0.011474791272733438,2.2533830765784533,-0.2527233449754171,1.3636879195919869,22.09399999998277
311845.9747,-0.033807397797271946,2.7042032839371317,-0.3371335342022906,2.2681307481542037,22.095000000030268
311845.9757,-0.11961436754254663,2.9288669569716017,-0.4917859995042051,3.005526209843106,22.096000000019558
311845.9767,-0.25194186274166275,2.945233684718177,-0.6955907639411836,3.5859115150933527,22.097000000008848
311845.9777,-0.40096831375104997,2.789551223954808,-0.9154049951437293,4.033984101253311,22.097999999998137
311845.9787,-0.5269756916682033,2.5129463047609013,-1.1091055512078773,4.386067044214246,22.098999999987427
311845.9797,-0.5845496771175667,2.1764647147854097,-1.2297859984196482,4.685914645634092,22.100000000034925
311845.9807,-0.5275928165813621,1.8451303581433538,-1.2306763020593394,4.97976566814086,22.101000000024214
311845.9817,-0.3146495631780858,1.581589099605813,-1.0703056263745174,5.311126101747752,22.102000000013504
311845.9827,0.08599387187324509,1.4399446314637585,-0.7173972805597427,5.715791204463861,22.103000000002794
311845.9837,0.6919551615209921,1.460376378031322,-0.15500305668200823,6.217595186989698,22.103999999992084
311845.9847,1.5035994324029185,1.6650553342547112,0.6165495453735651,6.825308387813764,22.104999999981374
311845.9857,2.5024208377256927,2.055749995855685,1.5782156456030458,7.5309927415467905,22.10600000002887
311845.9867,3.6511562962042112,2.6133532475933006,2.692475696526596,8.309987306168424,22.10700000001816
311845.9877,4.89566025962238,3.299377903162453,3.9052835923102154,9.12253998156614,22.10800000000745
311845.9887,6.168400706875487,4.059281269177853,5.149580247270991,9.916944294676455,22.10899999999674
311845.9897,7.3932808491511555,4.82730570670362,6.350084067085461,10.63389634893785,22.10999999998603
311845.9907,8.491363298117228,5.532379340210462,7.428947611017682,11.211670518670003,22.111000000033528
311845.9917,9.386985987860882,6.104522445348638,8.311785839404493,11.591634347809817,22.112000000022817
311845.9927,10.013720324569919,6.481159932763024,8.933543692646522,11.723590809648565,22.113000000012107
311845.9937,10.319635521178112,6.612752822151805,9.243682961112855,11.570452600426224,22.114000000001397
311845.9947,10.271397455324506,6.467230169179055,9.210229312138885,11.111816770965685,22.114999999990687
311845.9957,9.856839357004052,6.032820649399988,8.822324117092903,10.346112509637758,22.116000000038184
311845.9967,9.085784589935598,5.319038272915078,8.091062452873938,9.29113011436728,22.117000000027474
311845.9977,7.9890648898847,4.355754276246239,7.0485552884942075,7.98289203059813,22.118000000016764
311845.9987,6.615844913004993,3.190469800085323,5.745315483585504,6.47298251829484,22.119000000006054
311845.9997,5.029519703738016,1.884073799410378,4.24621846059541,4.824596040787596,22.119999999995343
311846.0007,3.3025807819093562,0.5055113563851171,2.6254149495772796,3.1076820570358312,22.120999999984633
311846.0017,1.5109366770256367,-0.8741142976398532,0.9606631512837112,1.3936443172020645,22.12200000003213
311846.0027,-0.2717835639125837,-2.1874364509454103,-0.6724073035348985,-0.24991157695105734,22.12300000002142
311846.0037,-1.9794239253548793,-3.3761563629262277,-2.205591061369669,-1.763900889231944,22.12400000001071
311846.0047,-3.557530688073346,-4.395315910553711,-3.5825058149915505,-3.1015300789208724,22.125
311846.0057,-4.966258704756303,-5.216128081816426,-4.7617321224457285,-4.230791346923402,22.12599999998929
311846.0067,-6.181732276187142,-5.827130737984776,-5.71845997790421,-5.135487788104515,22.127000000036787
311846.0077,-7.1957945636646015,-6.233599428648866,-6.4445559670985535,-5.8147429213686435,22.128000000026077
