TimeStamp,ECR,FCR,ECU,FCU,time_index
311859.8797,0.09159547653993358,7.82812653328301,25.30897757218962,29.545757286930215,36.0
311859.8807,4.280850581990886,12.226407767344561,27.72403791227572,36.23129677692203,36.00099999998929
311859.8817,8.070388507737226,16.06067280229626,28.886772741827247,41.56494671807714,36.00200000003679
311859.8827,11.319196545962447,19.198055087050033,28.748923766045202,45.39388656860981,36.00300000002608
311859.8837,13.902799621499723,21.526589905168326,27.304988644325316,47.6180488006727,36.00400000001537
311859.8847,15.717834897724282,22.95946735063258,24.592130333073854,48.192892411839104,36.00500000000466
311859.8857,16.686654926101525,23.439223083142533,20.689291419280636,47.13073882259428,36.005999999993946
311859.8867,16.761638204586603,22.941540469557673,15.71545076773265,44.500526098391816,36.006999999983236
311859.8877,15.928827692589849,21.47827840579811,9.826925857818585,40.42584144817584,36.008000000030734
311859.8887,14.210498039667362,19.099321099796036,3.2136130638062803,35.081120613768334,36.00900000002002
311859.8897,11.666276210061454,15.892874820078363,-3.9059254394751184,28.685958783703477,36.01000000000931
311859.8907,8.392508454055282,11.98391254323567,-11.290574294567863,21.497560201145916,36.0109999999986
311859.8917,4.519675070418262,7.530585869729061,-18.683951888148158,13.801458169016115,36.01199999998789
311859.8927,0.2077945544426975,2.7185750034331964,-25.822754883491157,5.900755779757379,36.01300000003539
311859.8937,-4.360081718602868,-2.246481479304049,-32.44594102918982,-1.8957401831082017,36.01400000002468
311859.8947,-8.986018942668487,-7.148161079414674,-38.304428115080164,-9.286006354009224,36.01500000001397
311859.8957,-13.466574186710126,-11.769559712536767,-43.17089574696575,-15.987333083323692,36.01600000000326
311859.8967,-17.602852945494252,-15.904115805191893,-46.84920831831447,-21.74826107501101,36.01699999999255
311859.8977,-21.210615910290535,-19.366265020174804,-49.1829417580923,-26.359270730735357,36.01799999998184
311859.8987,-24.129768312316667,-22.001204663352336,-50.06250010942409,-29.661601812320242,36.01900000002934
311859.8997,-26.232582721407844,-23.69307755387898,-49.430353897538104,-31.553661795709704,36.02000000001863
311859.9007,-27.43008008397857,-24.370976100822457,-47.284019647575356,-31.994608369328404,36.021000000007916
311859.9017,-27.676118016418595,-24.012312421365145,-43.67652375611056,-31.004857138089783,36.021999999997206
311859.9027,-26.96890003570862,-22.643288157228728,-38.71424540085793,-28.66345792846763,36.022999999986496
311859.9037,-25.34981065536447,-20.33641251330825,-32.55220051231684,-25.10248734548847,36.02400000003399
311859.9047,-22.89968259526719,-17.205240449337186,-25.386998360974424,-20.498804944717563,36.02500000002328
311859.9057,-19.732796158631142,-13.396715321211289,-17.447859763462887,-15.063698958412182,36.02600000001257
311859.9067,-15.989080119805642,-9.081682798760676,-8.986217760631966,-9.031089794275594,36.02700000000186
311859.9077,-11.825113442519227,-4.444279355611028,-0.2645163801375285,-2.645053207762747,36.02799999999115
311859.9087,-7.404606586261193,0.32902309289263365,8.455127613198108,3.8525381489593116,36.02900000003865
311859.9097,-2.8890634327514473,5.059921634479349,16.921735741432972,10.23347966825502,36.03000000002794
311859.9107,1.5707114802161002,9.587594052444054,24.90513817216129,16.293113394788183,36.03100000001723
311859.9117,5.841686891577414,13.776190095125758,32.20398673919709,21.85806189669728,36.03200000000652
311859.9127,9.813823702591469,17.520039678047194,38.6517285387895,26.79143447045492,36.03299999999581
311859.9137,13.40317336025116,20.746316385327027,44.120318982404754,30.995324732546035,36.0339999999851
311859.9147,16.552778921113177,23.415113607279867,48.5216267996977,34.41063035350093,36.035000000032596
311859.9157,19.231491478135556,25.517108045755876,51.806654905747244,37.014429503656956,36.036000000021886
311859.9167,21.430988065564186,27.0691818612305,53.96285564959237,38.81532758140975,36.037000000011176
311859.9177,23.161419200951062,28.108533151976275,55.00994365066539,39.84732719931076,36.038000000000466
311859.9187,24.446212548346246,28.68591104080795,54.99469384477192,40.16286285497843,36.038999999989755
311859.9197,25.316605570949708,28.858657511547882,53.98524985380265,39.825672295841706,36.04000000003725
311859.9207,25.806471126942274,28.68422003196042,52.06545607978407,38.90414746417326,36.04100000002654
311859.9217,25.947937570687003,28.214719607014388,49.32966833682389,37.465722534902035,36.04200000001583
311859.9227,25.768195896136138,27.49302660653021,45.87839913957741,35.572723415555835,36.04300000000512
311859.9237,25.28774203623037,26.55062480754855,41.81502555066777,33.27993496081617,36.04399999999441
311859.9247,24.520137192210008,25.407349569230426,37.24364316794058,30.633955051342582,36.0449999999837
311859.9257,23.473199558373395,24.0728879870351,32.26800436664892,27.67421634317829,36.0460000000312
311859.9267,22.151383965166797,22.549746600968657,26.991347350097612,24.435384788949214,36.04700000002049
311859.9277,20.558977468721324,20.837243534639086,21.516818547933024,20.950705309611287,36.04800000000978
311859.9287,18.70365165994612,18.935981302122116,15.948125290463505,17.255772509712493,36.04899999999907
311859.9297,16.599875264673805,16.85221371311783,10.390035419546674,13.392166948854603,36.04999999998836
311859.9307,14.271707285381826,14.601539418216367,4.948367833658263,9.410418787129363,36.051000000035856
311859.9317,11.754559903487113,12.211433618912213,-0.2708098139988157,5.371838488445867,36.052000000025146
311859.9327,9.09563470621112,9.722260295043917,-5.162950450827075,1.3488809923351135,36.053000000014435
311859.9337,6.352883916828564,7.186576708941504,-9.627802787872389,-2.5761272496323575,36.054000000003725
311859.9347,3.592515000053303,4.666732690523332,-13.57308471543144,-6.313886063208803,36.054999999993015
311859.9357,0.8852249977916006,2.2309597563513908,-16.91880568152983,-9.77244751019287,36.055999999982305
311859.9367,-1.6984974322467434,-0.05168042844569463,-19.601868303585174,-12.862606425889277,36.0570000000298
311859.9377,-4.093545284284694,-2.1169806364539654,-21.5804941556083,-15.503859739514079,36.05800000001909
311859.9387,-6.245311499709904,-3.9113111298586127,-22.837979527681316,-17.63035533340722,36.05900000000838
311859.9397,-8.114203095153671,-5.396760494595829,-23.38530037422029,-19.196225789461323,36.05999999999767
311859.9407,-9.679040586541223,-6.555112024938052,-23.26215274419127,-20.179738548508602,36.06099999998696
311859.9417,-10.93892575304447,-7.390173599358164,-22.536131241211407,-20.585789145635843,36.06200000003446
311859.9427,-11.913300965077571,-7.928131750380806,-21.29990375024319,-20.446409679039487,36.06300000002375
311859.9437,-12.64009684151121,-8.2157913968678,-19.666421631673927,-19.819146741223154,36.06400000001304
311859.9447,-13.172055016941378,-8.316772844250599,-17.76239357150334,-18.783364062176773,36.06500000000233
311859.9457,-13.571500409439777,-8.30594631391566,-15.72042961199937,-17.434725346435265,36.06599999999162
311859.9467,-13.904003582478111,-8.262570431317224,-13.670411320430551,-15.878292343604455,36.06699999998091
311859.9477,-14.23150138073476,-8.262745724432586,-11.730748608155816,-14.220814035186125,36.068000000028405
311859.9487,-14.605519317257901,-8.371882070590445,-10.000231343126641,-12.56287057677668,36.069000000017695
311859.9497,-15.06115348292019,-8.6379004126032,-8.551167786351177,-10.991561060881912,36.070000000006985
311859.9507,-15.612420212185784,-9.08584062165807,-7.4244212307858595,-9.574384100931049,36.070999999996275
311859.9517,-16.249471793745784,-9.714432627608874,-6.626816468455612,-8.354857948300946,36.071999999985565
311859.9527,-16.938015571246297,-10.495016932461533,-6.131200131352453,-7.350271736902725,36.07300000003306
311859.9537,-17.621076383489704,-11.372989054807402,-5.87921966896116,-6.551766116576828,36.07400000002235
311859.9547,-18.223026757250274,-12.271710134389876,-5.786654246218394,-5.926728383708818,36.07500000001164
311859.9557,-18.65559591922532,-13.09859489221698,-5.7509082369809965,-5.423274617870657,36.07600000000093
311859.9567,-18.825377925366787,-13.752880518524165,-5.66008488193684,-4.976399635420522,36.07699999999022
311859.9577,-18.64220948516133,-14.134415914467782,-5.402912297131096,-4.515223106364049,36.07800000003772
311859.9587,-18.027694131128218,-14.152706091494293,-4.878710401370443,-3.970661476497173,36.07900000002701
311859.9597,-16.92312081850677,-13.73541188937548,-4.006573953842354,-3.2828197087262247,36.0800000000163
311859.9607,-15.296065267188325,-12.835544332974566,-2.733005801428364,-2.407427519171347,36.08100000000559
311859.9617,-13.145068295924993,-11.436702700945393,-1.0373609821245813,-1.3207385553557411,36.08199999999488
311859.9627,-10.501947706843817,-9.55587576693465,1.0653544381916262,-0.02245860435442455,36.08299999998417
311859.9637,-7.431504213454189,-7.243540916888368,3.5245622755449233,1.4635439542721573,36.084000000031665
311859.9647,-4.028608706103155,-4.581035847255469,6.2570573866500245,3.090783730744886,36.085000000020955
311859.9657,-0.4128868143078914,-1.6754198162059954,9.152565262183213,4.793788399526412,36.086000000010245
311859.9667,3.2785739781343852,1.3477367681732761,12.081439413978515,6.493450635776032,36.086999999999534
311859.9677,6.899898907466461,4.353015037513479,14.903850174629694,8.103585024102465,36.087999999988824
311859.9687,10.305770469506523,7.2045206313391486,17.47969937423652,9.53806998871899,36.08900000003632
311859.9697,13.360680299092168,9.775171486917438,19.678446748320017,10.717912190284485,36.09000000002561
311859.9707,15.947344225060858,11.955125174249645,21.388057364427077,11.577591954662937,36.0910000000149
311859.9717,17.97362181086344,13.658661689067344,22.522371605323325,12.070130134521563,36.09200000000419
311859.9727,19.377425429058242,14.82899035793921,23.02635074153613,12.170450421806247,36.09299999999348
311859.9737,20.129291647816512,15.440648477544942,22.878846944294832,11.876782611050904,36.09399999998277
311859.9747,20.23250106399081,15.499384855395439,22.092767965314412,11.210044204567643,36.09500000003027
311859.9757,19.7208510767413,15.03965153887366,20.712732885516605,10.211330849182772,36.09600000001956
311859.9767,18.654388630405325,14.120039553931662,18.810525580263196,8.937821407648537,36.09700000000885
311859.9777,17.11357769556432,12.817169305670028,16.478828136737107,7.457544124168474,36.09799999999814
311859.9787,15.192493950153766,11.218667316349938,13.823842406565884,5.843543259804062,36.09899999998743
311859.9797,12.991696696492262,9.415917651008701,10.957474281169745,4.168022709595383,36.100000000034925
311859.9807,10.611421538789502,7.4972646974875135,7.98975812504937,2.4970221848897927,36.101000000024214
311859.9817,8.14566918110013,5.5422667464888455,5.022140180867148,0.8861061336821401,36.102000000013504
311859.9827,5.677644360968361,3.6174663135131913,2.1421274702405277,-0.622575363872621,36.103000000002794
311859.9837,3.2768379626758457,1.7739680141385732,-0.5803446621741166,-2.0016476405137706,36.103999999992084
311859.9847,0.9978619359492008,0.046916546199169,-3.094651676245662,-3.238257494007331,36.10499999998137
311859.9857,-1.1190402014228078,-1.5432336237736353,-5.369336726572137,-4.33233502365293,36.10600000002887
311859.9867,-3.046055855843609,-2.9879486365677597,-7.390271706850699,-5.29365141237421,36.10700000001816
311859.9877,-4.764826353400658,-4.286785081192653,-9.15745755149954,-6.138069203928518,36.10800000000745
311859.9887,-6.262911140343615,-5.443036391490839,-10.6809080508803,-6.883453971017754,36.10899999999674
311859.9897,-7.530212920512646,-6.459431671802686,-11.97612232104297,-7.545738161996546,36.10999999998603
311859.9907,-8.555865528274836,-7.334439803778941,-13.059659903655714,-8.13559810694466,36.11100000003353
311859.9917,-9.326014440485393,-8.059650214676447,-13.945290585394597,-8.65612759818525,36.11200000002282
311859.9927,-9.822802380636977,-8.618570943447516,-14.64110454979744,-9.101774772693846,36.11300000001211
311859.9937,-10.024722351262005,-8.987018637498561,-15.14784759329915,-9.458665614344058,36.1140000000014
311859.9947,-9.908333670561163,-9.135091248494513,-15.458603983396003,-9.70628214659451,36.11499999999069
311859.9957,-9.451170710629716,-9.030531493312221,-15.559800841574374,-9.820312173273324,36.116000000038184
311859.9967,-8.635526303186385,-8.643126356848757,-15.43336756565015,-9.776355541483639,36.117000000027474
311859.9977,-7.452677487869287,-7.949661664871311,-15.059765339362077,-9.554072578179369,36.118000000016764
311859.9987,-5.9070522469506965,-6.938873928116242,-14.42151621878814,-9.141303492711177,36.119000000006054
311859.9997,-4.0198192954780225,-5.61582214232457,-13.506816083660542,-8.537678783547522,36.11999999999534
311860.0007,-1.8314207685367632,-4.00514217431045,-12.312814163128923,-7.757280911715189,36.12099999998463
311860.0017,0.5973437998580418,-2.1527420092522966,-10.848182775297618,-6.830002770340043,36.12200000003213
311860.0027,3.185943113169752,-0.1256382117143134,-9.13467909984866,-5.801370472610275,36.12300000002142
311860.0037,5.836550232582643,1.9901913602082784,-7.207507472300225,-4.730744855564393,36.12400000001071
311860.0047,8.438216343597782,4.093873237150658,-5.114414551386042,-3.687973670757745,36.125
311860.0057,10.872538919101322,6.075369589627786,-2.9135781242606686,-2.748719580855362,36.12599999998929
311860.0067,13.020430477572049,7.822455696134446,-0.6704705622638145,-1.9888232035228715,36.12700000003679
311860.0077,14.769478003722368,9.228394732547072,1.5460215329149967,-1.4781628474537707,36.12800000002608
311860.0087,16.021312554418174,10.19968084465042,3.667868475281138,-1.2745336502676445,36.12900000001537
311860.0097,16.698390366703965,10.663198396107205,5.632170280922563,-1.4180828539694401,36.13000000000466
311860.0107,16.74962267918484,10.57218154496682,7.385043922285055,-1.9268036176702283,36.130999999993946
311860.0117,16.154378159218393,9.91045059364469,8.88477707700997,-2.7935101677018706,36.131999999983236
311860.0127,14.92451129911018,8.69454140420708,10.103972451428401,-3.984599384938616,36.133000000030734
311860.0137,13.104230540840527,6.97351877117987,11.030504321986387,-5.440758644977798,36.13400000002002
311860.0147,10.767796632457008,4.826458102807159,11.667222419817273,-7.079619740806152,36.13500000000931
311860.0157,8.015218890631123,2.3577745820420914,12.0304567495416,-8.800198103162275,36.1359999999986
311860.0167,4.966278847754371,-0.3092423247978429,12.147489100868983,-10.488809302594474,36.13699999998789
311860.0177,1.753342954028527,-3.0401844564049183,12.053252263511267,-12.026033692625516,36.13800000003539
311860.0187,-1.4864828431992219,-5.697964269210954,11.786587292726452,-13.294215372628367,36.13900000002468
311860.0197,-4.61926132451873,-8.15128325093178,11.386426031984413,-14.184940481535106,36.14000000001397
311860.0207,-7.5216090236140225,-10.282483902090185,10.888266974104852,-14.605945387015247,36.14100000000326
311860.0217,-10.087031618950569,-11.994204727617374,10.321277342096106,-14.486956695722853,36.14199999999255
311860.0227,-12.230786999174137,-13.214372011800934,9.706286380209841,-13.784057241513718,36.14299999998184
311860.0237,-13.892991179021301,-13.899214859560821,9.054840861759589,-12.482296798281038,36.14400000002934
311860.0247,-15.039841181304313,-14.034166674578875,8.369382978380322,-10.596411890859848,36.14500000001863
311860.0257,-15.662994140807534,-13.632700428501897,7.644494101040657,-8.16967262996148,36.146000000007916
311860.0267,-15.777297932179096,-12.733319729850564,6.869037161055461,-5.271022261537502,36.146999999997206
311860.0277,-15.417201278203088,-11.395076849322262,6.028936935943468,-1.9908040325609027,36.147999999986496
311860.0287,-14.63226859743382,-9.692099070408482,5.110271115338595,1.5645311796448966,36.14900000003399
311860.0297,-13.48227830914091,-7.707666393615871,4.102312840013392,5.2782825702496705,36.15000000002328
311860.0307,-12.032388714341113,-5.528391833092721,3.000171228112875,9.029451118532327,36.15100000001257
311860.0317,-10.348813385046945,-3.2390105936517903,1.8067201330868057,12.698340142230373,36.15200000000186
311860.0327,-8.495363336154965,-0.9181917424863701,0.5335829689621785,16.171425636334984,36.15299999999115
311860.0337,-6.531095397608242,1.3643443475757115,-0.798954789073402,19.34521595168928,36.15400000003865
311860.0347,-4.509167675129945,3.5492738106117203,-2.163114465377539,22.128940944909708,36.15500000002794
311860.0357,-2.476858335998809,5.587715665114622,-3.525760981521311,24.44604065823725,36.15600000001723
311860.0367,-0.47656830989149707,7.440063626545208,-4.851281691090289,26.23454943368229,36.15700000000652
311860.0377,1.4524839611291684,9.073919323028642,-6.104891199285031,27.446580222867347,36.15799999999581
311860.0387,3.272245056345839,10.461534317441625,-7.255988544661124,28.047194649978096,36.1589999999851
311860.0397,4.943890011741926,11.577212796340179,-8.281175172317493,28.012989022996514,36.160000000032596
311860.0407,6.4263576558870055,12.395119796508963,-9.166566794645625,27.330730693945043,36.161000000021886
311860.0417,7.675690487614259,12.887882256837921,-9.909098043503791,25.996342953689883,36.162000000011176
311860.0427,8.64541361295074,13.026268120471306,-10.516619871906222,24.01446432990753,36.163000000000466
311860.0437,9.288059574180869,12.780092945401822,-11.006716164878883,21.398707939234924,36.163999999989755
311860.0447,9.557802083869865,12.120348371919683,-11.404305205101803,18.172629677462265,36.16500000003725
311860.0457,9.414017015044772,11.022388840787215,-11.738229057730097,14.371293660103001,36.16600000002654
311860.0467,8.825459103105906,9.469869116643434,-12.037154932415676,10.0432131264067,36.16700000001583
311860.0477,7.774642003838436,7.459011133098023,-12.325203823210437,5.252357769042262,36.16800000000512
311860.0487,6.261949165013125,5.002707230098772,-12.617772658889846,0.0798646697862172,36.16899999999441
311860.0497,4.308990943732788,2.1339465528582786,-12.91802019851072,-5.374923165453476,36.1699999999837
311860.0507,1.9607622405265752,-1.0919143874588122,-13.21444208703254,-10.994436342341624,36.1710000000312
311860.0517,-0.7137578580626995,-4.596429416129657,-13.479869979456515,-16.644150141437244,36.17200000002049
311860.0527,-3.6227948278625424,-8.279149777983964,-13.672101391124574,-22.175312607526322,36.17300000000978
311860.0537,-6.654829067841908,-12.020618007809198,-13.736212951553618,-27.42916151505576,36.17399999999907
311860.0547,-9.683409853868874,-15.68718572780237,-13.608444944122976,-32.24251572359344,36.17499999998836
311860.0557,-12.573466278451267,-19.137393486130264,-13.221385723814443,-36.45448206108227,36.176000000035856
311860.0567,-15.188699387743359,-22.229490923097714,-12.510046883681326,-39.913891258067395,36.177000000025146
311860.0577,-17.399525042172826,-24.829551213530394,-11.418318041406463,-42.486979028126925,36.178000000014435
311860.0587,-19.09096871833761,-26.819557837228675,-9.905234611036605,-44.064771789591674,36.179000000003725
311860.0597,-20.169898966494166,-28.104822536452005,-7.950489164543069,-44.56962747446891,36.179999999993015
311860.0607,-20.57102772322576,-28.62013352501106,-5.558668032149778,-43.9604224404673,36.180999999982305
311860.0617,-20.26119982552466,-28.334129430457228,-2.7617953624034963,-42.235962847047006,36.1820000000298
311860.0627,-19.24163234251949,-27.251538298775788,0.38009224033640093,-39.43632547373168,36.18300000001909
311860.0637,-17.547933822337203,-25.413098761209667,3.7804493715978182,-35.6419874270098,36.18400000000838
311860.0647,-15.247918246385456,-22.89317526995351,7.329733405102039,-30.970772308474917,36.18499999999767
311860.0657,-12.437410913359603,-19.7952725886228,10.90068011585448,-25.572806669922105,36.18599999998696
311860.0667,-9.234406433689474,-16.245828094866525,14.35494804492103,-19.623829653019268,36.18700000003446
311860.0677,-5.772067281436982,-12.386797558319556,17.550621082040568,-13.317317044032666,36.18800000002375
311860.0687,-2.191133190570963,-8.367638180394682,20.349990260614668,-6.855958090811352,36.18900000001304
311860.0697,1.3676600181684335,-4.337323985443842,22.627019980596756,-0.44305293354882097,36.19000000000233
311860.0707,4.770580670718955,-0.43700091335898456,24.27394167392722,5.725621349316693,36.19099999999162
311860.0717,7.896827909352714,3.2061942564172132,25.20650507855283,11.468994272352786,36.19199999998091
311860.0727,10.643014303404314,6.483756780792684,25.367544939554637,16.62655838994329,36.193000000028405
311860.0737,12.925986612827604,9.308647176955589,24.72867654002666,21.062655119270058,36.194000000017695
311860.0747,14.683934714807277,11.616282939187808,23.290101934624083,24.66909406389695,36.195000000006985
311860.0757,15.875904827837115,13.363815247938627,21.078674049084256,27.366157618392766,36.195999999996275
311860.0767,16.47998122095738,14.527976682018817,18.144512364125312,29.102176045313417,36.196999999985565
311860.0777,16.49051614957,15.101911055570412,14.556578143093375,29.851964832714618,36.19800000003306
311860.0787,15.914859750445615,15.091475208873257,10.397688754259073,29.614486301539092,36.19900000002235
311860.0797,14.770063425764794,14.511527597637233,5.759473442347844,28.41012527602666,36.20000000001164
311860.0807,13.080000284197432,13.382687973425925,0.7377455317795822,26.277952638772657,36.20100000000093
311860.0817,10.873268132031518,11.728970037516774,-4.571308036951245,23.273293715657076,36.20199999999022
311860.0827,8.182122816957163,9.57656360646071,-10.073831757579851,19.46582778591905,36.20300000003772
311860.0837,5.042544940753514,6.953887812774563,-15.679752981758497,14.938331147699675,36.20400000002701
311860.0847,1.4953863918931092,3.892868477466906,-21.302984120700117,9.78605203939054,36.2050000000163
311860.0857,-2.4116085838679022,0.43122876275657435,-26.860529874118367,4.116585363265778,36.20600000000559
311860.0867,-6.621243693032305,-3.3845600489303993,-32.27078554184351,-1.9499877090143136,36.20699999999488
311860.0877,-11.064203444747442,-7.496125949510816,-37.45141270139816,-8.281003573791345,36.20799999998417
311860.0887,-15.656758666454909,-11.830356356541753,-42.31723668294219,-14.731506751188084,36.209000000031665
311860.0897,-20.299321145150266,-16.297386089631697,-46.77861991064125,-21.145261892235283,36.210000000020955
311860.0907,-24.87626644335409,-20.78987154750105,-50.74072460407608,-27.35676943027827,36.211000000010245
311860.0917,-29.25733708042605,-25.183899974219006,-54.10399078708394,-33.19447470066573,36.211999999999534
311860.0927,-33.300791346526154,-29.34173021448799,-56.76602897304757,-38.48523666642559,36.212999999988824
311860.0937,-36.8582896566699,-33.11638018051183,-58.624973223165426,-43.05997946666732,36.21400000003632
311860.0947,-39.78132716918329,-36.35788387930124,-59.584174357800116,-46.76030235718991,36.21500000002561
311860.0957,-41.92884641474746,-38.92085628149384,-59.55795131989501,-49.44568675938833,36.2160000000149
311860.0967,-43.17551461990108,-40.672846222263,-58.47797739730015,-51.00082805691767,36.21700000000419
311860.0977,-43.42004292357198,-41.50284241533216,-56.29977195199538,-51.34254739063185,36.21799999999348
311860.0987,-42.59287082305397,-41.32923821333633,-53.00870915113878,-50.425714472497795,36.21899999998277
311860.0997,-40.66254613149608,-40.10656450942987,-48.62495035016506,-48.24764134107451,36.22000000003027
311860.1007,-37.64020000371865,-37.83036872767213,-43.20675856356105,-44.850488852245604,36.22100000001956
311860.1017,-33.581643776619465,-34.539746542055866,-36.851758780843184,-40.32135710437833,36.22200000000885
311860.1027,-28.586789418553288,-30.317211247166053,-29.695858421520718,-34.78989761890957,36.22299999999814
311860.1037,-22.796303435680148,-25.285798046206374,-21.909725125665982,-28.423474624255768,36.22399999998743
311860.1047,-16.385626818539134,-19.603527828691377,-13.692918134338372,-21.42009823213329,36.225000000034925
311860.1057,-9.556710926538065,-13.455576411495985,-5.265966665705377,-13.999535595829375,36.226000000024214
311860.1067,-2.5280111222010597,-7.044690068421825,3.1391342479999884,-6.393159941133594,36.227000000013504
311860.1077,4.476571446645755,-0.5805380646423847,11.289399580411446,1.1667932683796653,36.228000000002794
311860.1087,11.23901837151301,5.73121650976524,18.961600422171017,8.457839807924799,36.228999999992084
311860.1097,17.557986439751556,11.699323896147847,25.952547186101402,15.277013902267612,36.22999999998137
311860.1107,23.258301861359726,17.15607726924622,32.08820680286993,21.449141954862412,36.23100000002887
311860.1117,28.19850361736737,21.9645237008123,37.2310403141313,26.833099883187522,36.23200000001816
311860.1127,32.27594820572769,26.02328553295129,41.285088142653294,31.325699940480284,36.23300000000745
311860.1137,35.42919330655303,29.268731079554136,44.198509735256145,34.863050752980115,36.23399999999674
311860.1147,37.63760462449534,31.674463492430363,45.96348590520656,37.419442959459694,36.23499999998603
311860.1157,38.91835765341559,33.24832508077059,46.61359779800992,39.004013027631906,36.23600000003353
311860.1167,39.32121371471297,34.02732013049099,46.21898757114019,39.65561112210239,36.23700000002282
311860.1177,38.92161880587503,34.07102346245964,44.87976583366079,39.43642955726263,36.23800000001211
311860.1187,37.812789870037165,33.454149899857256,42.7182460567486,38.425024827425695,36.2390000000014
311860.1197,36.09750657590276,32.25900235197643,39.870647410180084,36.70938220714815,36.23999999999069
311860.1207,33.880314127113024,30.568490616868676,36.47891091243987,34.380627070419145,36.241000000038184
311860.1217,31.260766807758557,28.460323082374718,32.68322101995168,31.52788686176984,36.242000000027474
311860.1227,28.328211605481325,26.002829203986877,28.61572267446753,28.234662813211692,36.243000000016764
311860.1237,25.158439975459466,23.25268697228891,24.3957836852648,24.576895965659386,36.244000000006054
311860.1247,21.812340822584343,20.25462512234492,20.12698871788867,20.622725438270564,36.24499999999534
311860.1257,18.336488156399998,17.042964868162937,15.895880446089103,16.43375676002901,36.24599999998463
311860.1267,14.765411703252763,13.644680485079135,11.772302100750016,12.067502133479008,36.24700000003213
311860.1277,11.125145329836503,10.08350992512904,7.811058762079476,7.580537850836021,36.24800000002142
311860.1287,7.437540305047906,6.384549740379771,4.054514441466807,3.0318577903040813,36.24900000001071
311860.1297,3.724777369666957,2.57873159397425,0.5356864339024157,-1.5141080558930382,36.25
311860.1307,0.0135169617699627,-1.293396763986931,-2.718608962571526,-5.985294426942219,36.25099999998929
311860.1317,-3.6618113399839394,-5.179078520287127,-5.684965935108863,-10.301007499967477,36.25200000003679
311860.1327,-7.256968613828797,-9.012300901554855,-8.3412804929838,-14.372385186342015,36.25300000002608
311860.1337,-10.717357068367061,-12.71448249018109,-10.66553978069464,-18.104393606748456,36.25400000001537
311860.1347,-13.9790346675255,-16.19689494479576,-12.6355972519022,-21.399267850467368,36.25500000000466
311860.1357,-16.97119590149291,-19.36463258085595,-14.229889944162725,-24.161139211160474,36.255999999993946
311860.1367,-19.619863176378455,-22.12177666984181,-15.42893338038616,-26.301450758899904,36.256999999983236
311860.1377,-21.85240554357393,-24.37727164563635,-16.217332721269493,-27.744662775141734,36.258000000030734
311860.1387,-23.60241609006417,-26.05095064932856,-16.58598583376491,-28.433699639660563,36.25900000002002
311860.1397,-24.814444385743432,-27.079125901755,-16.534131283117958,-28.334595554674223,36.26000000000931
311860.1407,-25.448098815436257,-27.419197310604268,-16.070913852295014,-27.439857766674567,36.2609999999986
311860.1417,-25.481102800825845,-27.052826485951012,-15.216199401923411,-25.770176869292303,36.26199999998789
311860.1427,-24.911001037355064,-25.987363297936913,-14.000462759459865,-23.374263502043917,36.26300000003539
311860.1437,-23.7553547623095,-24.25538393099216,-12.46368635000901,-20.32676452225207,36.26400000002468
311860.1447,-22.050423461046304,-21.91238550565537,-10.653330473754144,-16.72439226767529,36.26500000001397
311860.1457,-19.8484875180292,-19.032863726144168,-8.62155443122962,-12.680569832740536,36.26600000000326
311860.1467,-17.21410555450207,-15.705158109466291,-6.421967447831917,-8.319036378293344,36.26699999999255
311860.1477,-14.219706923022114,-12.025567953474711,-4.106257791523203,-3.766955152523176,36.26799999998184
311860.1487,-10.940982855804686,-8.092309111058805,-1.7210790306223875,0.8518869320848949,36.26900000002934
311860.1497,-7.452552503323075,-3.999889927404816,0.6944403894398316,5.423210490554285,36.27000000001863
311860.1507,-3.824341262302365,0.16556656891673335,3.1102538978778314,9.84719559113194,36.271000000007916
311860.1517,-0.11902252377598559,4.329632781079855,5.505803403858893,14.041861978266516,36.271999999997206
311860.1527,3.609250571199656,8.431246792665888,7.869181913471798,17.944641187773527,36.272999999986496
311860.1537,7.314746375469795,12.422648181093946,10.195097042652266,21.512083220760015,36.27400000003399
311860.1547,10.958770712108429,16.267672525336682,12.481820397178726,24.7178248267122,36.27500000002328
311860.1557,14.50723020153633,19.938676179190388,14.727433974163425,27.549117848593095,36.27600000001257
311860.1567,17.927502344537277,23.412513574814657,16.92578284314592,30.002357467640824,36.27700000000186
311860.1577,21.185060597054857,26.66609651434578,19.06260183018057,32.07814746661301,36.27799999999115
311860.1587,24.240343540209157,29.672117190751962,21.112295088424222,33.77648306458443,36.27900000003865
311860.1597,27.04634505273182,32.395508150723984,23.035808399384386,35.09261702151646,36.28000000002794
311860.1607,29.547337497049508,34.79114328861862,24.77994707596341,36.014102853689785,36.28100000001723
311860.1617,31.67902816437245,36.803160573946364,26.27836470625534,36.51938702146553,36.28200000000652
311860.1627,33.37030132671215,38.3661214015566,27.454291291837713,36.578161636594416,36.28299999999581
311860.1637,34.54652880186569,39.408029391711715,28.224898402297985,36.15350612359426,36.2839999999851
311860.1647,35.13425793270638,39.85503208565368,28.507030330880763,35.205658126596326,36.285000000032596
311860.1657,35.066924991313364,39.637442099013505,28.223880530458334,33.69707905854969,36.286000000021886
311860.1667,34.29111084257889,38.6965586709073,27.312076916594602,31.598335077693967,36.287000000011176
311860.1677,32.7727681037131,36.9916620444816,25.728569984726214,28.894214113066788,36.288000000000466
311860.1687,30.502814750978928,34.50650314875515,23.45670191237685,25.589453808115813,36.288999999989755
311860.1697,27.501512780199402,31.25462546623021,20.51087571313566,21.71346873565562,36.29000000003725
311860.1707,23.821131160358824,27.282934458783224,16.939338586192427,17.32353720635075,36.29100000002654
311860.1717,19.546523436358854,22.673066033213367,12.824735276020387,12.506032194517124,36.29200000001583
311860.1727,14.793420502370116,17.54028724915899,8.282263513018023,7.375446175093155,36.29300000000512
311860.1737,9.704432964502935,12.02987335700377,3.4554591028503747,2.0711509678926845,36.29399999999441
311860.1747,4.4429573730219305,6.311125948227441,-1.4901643183956046,-3.2479664925603133,36.2949999999837
311860.1757,-0.8146321213773041,0.5694070605107525,-6.3752141005705925,-8.410661564935763,36.2960000000312
311860.1767,-5.88796803132002,-5.003256107908777,-11.015699570396169,-13.241788965402197,36.29700000002049
311860.1777,-10.602199082820952,-10.21830858144386,-15.232834923594494,-17.571445722153292,36.29800000000978
311860.1787,-14.797318446779194,-14.900786956607908,-18.86265524254036,-21.244119527157576,36.29899999999907
311860.1797,-18.336609838065247,-18.898654661242134,-21.76474841313745,-24.12715498704181,36.29999999998836
311860.1807,-21.11357826596284,-22.090648950839668,-23.82947659302495,-26.11790367164017,36.301000000035856
311860.1817,-23.056855908148346,-24.392059724285584,-24.983184999272883,-27.149032739562283,36.302000000025146
311860.1827,-24.132742379391203,-25.75803557919325,-25.1910622017408,-27.191621221809964,36.303000000014435
311860.1837,-24.34523732794576,-26.184222850360975,-24.45751002028067,-26.25585849532546,36.304000000003725
311860.1847,-23.733633709651286,-25.704769282078335,-22.82408518319324,-24.389358936089632,36.304999999993015
311860.1857,-22.367942983602184,-24.387944598265445,-20.36527080203089,-21.67330180756186,36.305999999982305
311860.1867,-20.342600207475023,-22.32982517960682,-17.182505863558642,-18.216778201496503,36.3070000000298
311860.1877,-17.76903135841123,-19.646641408043063,-13.397030094999014,-14.149861581074715,36.30800000001909
311860.1887,-14.767744904375224,-16.46648024150843,-9.142178274449474,-9.616003153849233,36.30900000000838
311860.1897,-11.460627594570687,-12.921063985253454,-4.555775778378945,-4.764380754804996,36.30999999999767
311860.1907,-7.964079383311325,-9.138287093131028,0.22675512353517197,0.25720146584601034,36.31099999998696
311860.1917,-4.383519119825429,-5.23609073642593,5.0780663195164015,5.308351379395274,36.31200000003446
311860.1927,-0.8096414743211107,-1.318100462479379,9.882963320428027,10.260685523918099,36.31300000002375
311860.1937,2.683378532525951,2.528738800993071,14.540698266257763,15.000767354888772,36.31400000001304
311860.1947,6.037735988852419,6.234504713172557,18.96546950908266,19.431348218215167,36.31500000000233
311860.1957,9.210098484160836,9.744796137920241,23.085304053405675,23.47104675884791,36.31599999999162
311860.1967,12.168328195944012,13.01775000965048,26.839659775852557,27.052756365730943,36.31699999998091
311860.1977,14.887322181019805,16.020078785166454,30.17620678064307,30.12118826417162,36.318000000028405
311860.1987,17.344547559071724,18.72271689218812,33.04731976265947,32.63002866456902,36.319000000017695
311860.1997,19.515866617032827,21.09668806005006,35.40682917181511,34.53920556876697,36.320000000006985
311860.2007,21.372204040496335,23.109764665101793,37.20753729520551,35.81272355678942,36.320999999996275
311860.2017,22.877509194250436,24.724390017913734,38.39991081190638,36.417437800454366,36.321999999985565
311860.2027,23.98832085491025,25.897185504689265,38.932223837490426,36.32301133535291,36.32300000003306
311860.2037,24.655064748199713,26.580182069895464,38.752259021995876,35.50314587028741,36.32400000002235
311860.2047,24.825023365120927,26.723718278101423,37.81049567006274,33.93801225283421,36.32500000001164
311860.2057,24.446731773680707,26.280755038202273,36.06454091898121,31.617649165637484,36.32600000000093
311860.2067,23.475390845474045,25.212189300132675,33.48440981903813,28.54596393466961,36.32699999999022
311860.2077,21.878766437454146,23.49262242729525,30.058147416751776,24.744871358234203,36.32800000003772
311860.2087,19.642971666121362,21.115966182575875,25.79722159254344,20.258055403060965,36.32900000002701
311860.2097,16.77751651632926,18.100257717706963,20.74110564719212,15.153840026355258,36.3300000000163
311860.2107,13.319056019094344,14.491106033053354,14.960515402644466,9.526709721072093,36.33100000000559
311860.2117,9.333370760008883,10.363301429057202,8.558862566056513,3.4971229831265185,36.33199999999488
311860.2127,4.915261928831468,5.820276286690023,1.6716252419514515,-2.790596531628772,36.33299999998417
311860.2137,0.1862235828881183,0.9912953274626345,-5.536495088705917,-9.172338873967986,36.334000000031665
311860.2147,-4.710049570732419,-3.9735415615173912,-12.876578441695791,-15.470126429177965,36.335000000020955
311860.2157,-9.614067922257025,-8.910200060248096,-20.142421488283208,-21.49957011589035,36.336000000010245
311860.2167,-14.35844336774201,-13.64905399962122,-27.119009927100077,-27.07841105773276,36.336999999999534
311860.2177,-18.776718002255098,-18.0240698205238,-33.59200583149301,-32.035581708230055,36.337999999988824
311860.2187,-22.712479784960998,-21.882147054468494,-39.35764170444832,-36.22015315799554,36.33900000003632
311860.2197,-26.028089067723524,-25.091903373372556,-44.23237681197417,-39.50952121361678,36.34000000002561
311860.2207,-28.612367552234712,-27.5512296860173,-48.06168724961061,-41.81622444792781,36.3410000000149
311860.2217,-30.386684333161654,-29.19303666781825,-50.72742667652593,-43.09287949846455,36.34200000000419
311860.2227,-31.30900413263533,-29.98876003780511,-52.15330300827857,-43.33485456106331,36.34299999999348
311860.2237,-31.375628383083136,-29.94937435887206,-52.308157334723695,-42.5804695676951,36.34399999998277
311860.2247,-30.620545233314473,-29.123867431418006,-51.20689215596176,-40.90869646752889,36.34500000003027
311860.2257,-29.11249307180022,-27.59533114253389,-48.90906265324897,-38.43451942470895,36.34600000001956
311860.2267,-26.950017064192604,-25.475011681446762,-45.51530309559981,-35.30228668651035,36.34700000000885
311860.2277,-24.25494436490336,-22.894815883885638,-41.16189786167208,-31.677528879079116,36.34799999999814
311860.2287,-21.164808924483754,-19.998877969403235,-36.013912539540335,-27.737820802090468,36.34899999998743
311860.2297,-17.824813052445332,-16.934843418051173,-30.257367986097602,-23.663317432472468,36.350000000034925
311860.2307,-14.379916702664426,-13.845520766843466,-24.090965665716773,-19.627596279003,36.351000000024214
311860.2317,-10.967598362187207,-10.861489754300797,-17.717856545644498,-15.78938864913089,36.352000000013504
311860.2327,-7.711739678941287,-8.095142786429253,-11.337892525441488,-12.285687550139636,36.353000000002794
311860.2337,-4.717959804245326,-5.636487879480433,-5.140716226582178,-9.226589564698042,36.353999999992084
311860.2347,-2.0705780436502272,-3.550870065594282,0.7000582590857017,-6.6920748274056585,36.35499999998137
311860.2357,0.16877038888593388,-1.8785915232280221,6.031433240913937,-4.730767646032724,36.35600000002887
311860.2367,1.9609859805539092,-0.6362453504481089,10.724353268751182,-3.360565169915531,36.35700000001816
311860.2377,3.288067447958341,0.18056063214238202,14.675835169751164,-2.57088655019617,36.35800000000745
311860.2387,4.15071863976097,0.5935129306094292,17.81004391643178,-2.3261916391964084,36.35899999999674
311860.2397,4.565382625532084,0.6374088700720336,20.078503983649032,-2.57035440600731,36.35999999998603
311860.2407,4.561091547193461,0.3559558811889527,21.45965380936962,-3.231455764958805,36.36100000003353
311860.2417,4.176484463629265,-0.2020194785100649,21.957939591658633,-4.226582902462454,36.36200000002282
311860.2427,3.4572727380322137,-0.9856167075321967,21.60260792409294,-5.466282700346627,36.36300000001211
311860.2437,2.4543329114990993,-1.9439471466151812,20.44630146692854,-6.858407093917197,36.3640000000014
311860.2447,1.222492505722522,-3.0271868699055036,18.56349675181559,-8.31119705152381,36.36499999999069
311860.2457,-0.18004181516189274,-4.186665379450929,16.048758121252444,-9.735566664081732,36.366000000038184
311860.2467,-1.691768479328657,-5.37418752237467,13.014726420583097,-11.046656720818973,36.367000000027474
311860.2477,-3.2477228419891198,-6.540887292658406,9.589723908029894,-12.164816372292359,36.368000000016764
311860.2487,-4.779339285741312,-7.635974935549703,5.914844265411189,-13.016232613012248,36.369000000006054
311860.2497,-6.214635110858346,-8.605756156462526,2.1404119769611327,-13.533454194495718,36.36999999999534
311860.2507,-7.478976601729628,-9.393272197947338,-1.5782612950228252,-13.656046925718115,36.37099999998463
311860.2517,-8.49661951907559,-9.938835100727458,-5.085827835342946,-13.331572937286515,36.37200000003213
311860.2527,-9.193118239447362,-10.181621398284957,-8.23248125539903,-12.517013051868574,36.37300000002142
311860.2537,-9.498580353433486,-10.0623516046683,-10.87998443702776,-11.180657843468808,36.37400000001071
311860.2547,-9.351619592883711,-9.526936758027594,-12.907879971906382,-9.304390514005032,36.375
311860.2557,-8.703743366284629,-8.5308329326421,-14.219535943833872,-6.886185719275147,36.37599999998929
311860.2567,-7.523815420022011,-7.0437256925470875,-14.747624607986712,-3.9425651079329778,36.37700000003679
311860.2577,-5.802170882786571,-5.05408268343442,-14.458608631649208,-0.5106932961899001,36.37800000002608
311860.2587,-3.5539388108388046,-2.5730743488387375,-13.355824826570041,3.3502246299817435,36.37900000001537
311860.2597,-0.8211509506866582,0.3626239549592939,-11.480810905432527,7.558566639782916,36.38000000000466
311860.2607,2.3267151749028754,3.6895696006885355,-8.912614976560418,12.011205003697862,36.380999999993946
311860.2617,5.794000199070225,7.318137932229447,-5.76495456407053,16.585880258116624,36.381999999983236
311860.2627,9.462032443689788,11.13511140330849,-2.1812426734215062,21.14509293840124,36.383000000030734
311860.2637,13.194139171749905,15.00825274007646,1.672339228945965,25.5414307568408,36.38400000002002
311860.2647,16.842268411569886,18.792657915633203,5.615381327943019,29.624107157621303,36.38500000000931
311860.2657,20.2548340379314,22.338509934896848,9.462915189325278,33.24635510514068,36.3859999999986
311860.2667,23.285267110990752,25.499706467267572,13.035616486063603,36.27321121195631,36.38699999998789
311860.2677,25.80066664007251,28.14272838116433,16.169872956424243,38.5891518068194,36.38800000003539
311860.2687,27.689902973735453,30.15506373999659,18.72702915648302,40.105013242843484,36.38900000002468
311860.2697,28.870542544303923,31.452509505774376,20.601153720615827,40.763648691385825,36.39000000001397
311860.2707,29.29403429459402,31.98474219674271,21.72476345002582,40.54384336563525,36.39100000000326
311860.2717,28.94872113264823,31.738674406836722,22.072076339469113,39.462125346872774,36.39199999999255
311860.2727,27.86040460830573,30.739286302132975,21.659542712159148,37.57226124705793,36.39299999998184
311860.2737,26.09038393636019,29.047825234280094,20.54360612381325,34.962402351097566,36.39400000002934
311860.2747,23.73109479284778,26.757484420805145,18.81585698430168,31.75003245638314,36.39500000001863
311860.2757,20.899670816225374,23.986883556343123,16.59594394943136,28.075046859671616,36.396000000007916
311860.2767,17.729923520107572,20.871860756742688,14.022783372924554,24.091446555654386,36.396999999997206
311860.2777,14.363368376491694,17.55622898531739,11.244739766451024,19.95824823345459,36.397999999986496
311860.2787,10.94000366437274,14.182237417276724,8.409528083021831,15.830277849376778,36.39900000003399
311860.2797,7.589566551668574,10.881500537687428,5.65460423844517,11.84952656230598,36.40000000002328
311860.2807,4.42394559779411,7.7671126148667415,3.0987616679321905,8.13770090726954,36.40100000001257
311860.2817,1.5313240782704718,4.927556326118261,0.8355427342935777,4.7904978813960115,36.40200000000186
311860.2827,-1.0275265491152716,2.422851519353025,-1.0710861634088567,1.873988838715878,36.40299999999115
311860.2837,-3.2205751406833807,0.28318826843963474,-2.588543801070252,-0.5766832426284596,36.40400000003865
311860.2847,-5.043463776622736,-1.4899338591916553,-3.7148919272267418,-2.5562843200596506,36.40500000002794
311860.2857,-6.5162375456815695,-2.9202604741131646,-4.4757221821959146,-4.08633335022727,36.40600000001723
311860.2867,-7.6782540535937285,-4.051432437510915,-4.9190495749119965,-5.21017109818255,36.40700000000652
311860.2877,-8.581808780763152,-4.9402947171455756,-5.108749880168658,-5.986755719781847,36.40799999999581
311860.2887,-9.285114562250769,-5.649535053987455,-5.11718710707608,-6.483780565232071,36.4089999999851
311860.2897,-9.845315278057743,-6.240367127012848,-5.0177254687784485,-6.7707475984370245,36.410000000032596
311860.2907,-10.312191829237232,-6.76594898113978,-4.877804377641362,-6.9126094475313975,36.411000000021886
311860.2917,-10.72313519878976,-7.266138839439305,-4.7531772756957,-6.964517067646486,36.412000000011176
311860.2927,-11.099825243746512,-7.764046098377318,-4.683783788321444,-6.96808623550437,36.413000000000466
311860.2937,-11.446878249744776,-8.264649648750453,-4.691552986047781,-6.9494370131193435,36.413999999989755
311860.2947,-11.75252834723752,-8.755546923785184,-4.7802404086682,-6.919081582128561,36.41500000003725
311860.2957,-11.991206853160397,-9.209685620185581,-4.937201962809666,-6.873554853281766,36.41600000002654
311860.2967,-12.127698874371815,-9.589736370198583,-5.136823058942359,-6.798516411300771,36.41700000001583
311860.2977,-12.122405804334417,-9.853607396145282,-5.345168935660559,-6.672917400324305,36.41800000000512
311860.2987,-11.93713995554489,-9.960496304133951,-5.52531617942892,-6.473734424456949,36.41899999999441
311860.2997,-11.540832983706967,-9.876829494428451,-5.64277541298938,-6.180732566650122,36.4199999999837
311860.3007,-10.914556748664944,-9.581459944049845,-5.6704248265943145,-5.780734197476778,36.4210000000312
311860.3017,-10.055331541227972,-9.06957671848791,-5.592441588055632,-5.2709369374318005,36.42200000002049
311860.3027,-8.978324107814181,-8.354915759300924,-5.4068354775620735,-4.660935431178086,36.42300000000978
311860.3037,-7.717203580180748,-7.4700373304348044,-5.1263438168918505,-3.973245652610682,36.42399999999907
311860.3047,-6.322610559660879,-6.464633236790348,-4.7776228224104385,-3.242292338283031,36.42499999998836
311860.3057,-4.858884512122863,-5.402026759324146,-4.398849901160562,-2.5119832877967054,36.426000000035856
311860.3067,-3.399368454699777,-4.354210303677356,-4.036015990051374,-1.8321421601697179,36.427000000025146
311860.3077,-2.020750526832291,-3.3959120338125808,-3.7383203385102926,-1.254189204281461,36.428000000014435
311860.3087,-0.7969957055617075,-2.59827890756115,-3.5531689852433703,-0.8265354085866777,36.429000000003725
311860.3097,0.20654133624891247,-2.02280025302026,-3.5213140142088943,-0.5901824607890988,36.429999999993015
311860.3107,0.9382527860033587,-1.7160699891777167,-3.6726503709767098,-0.5749963126907857,36.430999999982305
311860.3117,1.3641725055275757,-1.7058997365883184,-4.023113186213832,-0.7970489240635614,36.4320000000298
311860.3127,1.4702647512856517,-1.9991582744555416,-4.572999229543056,-1.2573087086326706,36.43300000001909
311860.3137,1.2629047545939265,-2.58153901511191,-5.306883928401772,-1.9418172347278475,36.43400000000838
311860.3147,0.7675304283553533,-3.41926395809354,-6.195136224297031,-2.8233326451786653,36.43499999999767
311860.3157,0.02562647931848959,-4.462539395006483,-7.196864923279454,-3.8642652438726546,36.43599999998696
311860.3167,-0.9096333600882099,-5.650404826088538,-8.263979487587168,-5.020593685266549,36.43700000003446
311860.3177,-1.9786298279639452,-6.916479473520033,-9.345930853183186,-6.246345275392887,36.43800000002375
311860.3187,-3.120887691621652,-8.195024057990203,-10.394625823735938,-7.498161858532136,36.43900000001304
311860.3197,-4.28044327793633,-9.426707693625561,-11.368989222670937,-8.739460090833013,36.44000000000233
311860.3207,-5.410451152293675,-10.563503497698933,-12.238683267559834,-9.943733081881941,36.44099999999162
311860.3217,-6.4765748976321476,-11.572228305961682,-12.986580029426905,-11.09662579550738,36.44199999998091
311860.3227,-7.458836593441127,-12.436382457055219,-13.609711670466485,-12.196540878869412,36.443000000028405
311860.3237,-8.351761921858929,-13.156120850322038,-14.118581466676172,-13.253682469424492,36.444000000017695
311860.3247,-9.162836411483378,-13.746378859668894,-14.534890495205364,-14.287608066364983,36.445000000006985
311860.3257,-9.90946516649275,-14.233366995264005,-14.887902991483479,-15.323516595699,36.445999999996275
311860.3267,-10.614785731869057,-14.649817462771091,-15.209820781080788,-16.38763857667558,36.446999999985565
311860.3277,-11.302805705293524,-15.029497085895464,-15.530648899176178,-17.502197961066205,36.44800000003306
311860.3287,-11.993411044086027,-15.401581281476586,-15.873099045088374,-18.680474172795247,36.44900000002235
311860.3297,-12.697810175329723,-15.785504766346742,-16.24808800668528,-19.92250080011084,36.45000000001164
311860.3307,-13.414940880967139,-16.186864072248422,-16.651343023941447,-21.211892824794862,36.45100000000093
311860.3317,-14.129274993096354,-16.5948483760728,-17.061529044692847,-22.514200738757125,36.45199999999022
311860.3327,-14.810318937156808,-16.98152785798541,-17.440172783585737,-23.777055565693786,36.45300000003772
311860.3337,-15.413939214675835,-17.303146729421904,-17.73348841396908,-24.932205712710918,36.45400000002701
311860.3347,-15.885457233902658,-17.50336854505723,-17.876025508158765,-25.899369515781007,36.4550000000163
311860.3357,-16.164275236253605,-17.51822347180084,-17.795878821537713,-26.591652505497635,36.45600000000559
311860.3367,-16.18963206390185,-17.282329814446108,-17.42103882777309,-26.922121932855493,36.45699999999488
311860.3377,-15.90696003411432,-16.735822440231328,-16.686336925158603,-26.81100757394253,36.45799999998417
311860.3387,-15.274234856340826,-15.831332528964156,-15.540362141112148,-26.192919075050707,36.459000000031665
311860.3397,-14.267687572928983,-14.54033533218352,-13.951704863963753,-25.023444029000224,36.460000000020955
311860.3407,-12.886283980221462,-12.858218844613905,-11.913920504138025,-23.2845209166828,36.461000000010245
311860.3417,-11.154470480645001,-10.807524077926049,-9.448699595280843,-20.9880654080265,36.461999999999534
311860.3427,-9.12282813107474,-8.43895887939332,-6.606873128540646,-18.17746086485164,36.462999999988824
311860.3437,-6.866456464234938,-5.829978844025325,-3.467060825774046,-14.926693470528166,36.46400000003632
311860.3447,-4.481109591896026,-3.0809438532053157,-0.13197011979830475,-11.337105032926855,36.46500000002561
311860.3457,-2.07731112495536,-0.30907780510133426,3.2774427312017615,-7.531935724551462,36.4660000000149
311860.3467,0.22713699843271806,2.3593377673476255,6.629548778454357,-3.6490175535272127,36.46700000000419
311860.3477,2.3156810206229377,4.797937018273985,9.790801388363384,0.16785941219679631,36.46799999999348
311860.3487,4.0818983511352815,6.889692874600235,12.63499972217199,3.7782665752801456,36.46899999998277
311860.3497,5.4380081809261975,8.536016572290649,15.05233437332522,7.0544338612025435,36.47000000003027
311860.3507,6.322294369355985,9.664771911088605,16.957494456593917,9.889808476042806,36.47100000001956
311860.3517,6.70480188859858,10.236521490913782,18.29618255151006,12.206212344014164,36.47200000000885
311860.3527,6.590801764130977,10.2484620885035,19.04950697615817,13.959044161488439,36.47299999999814
311860.3537,6.021698697970716,9.735694940827772,19.235889333519264,15.140127817827752,36.47399999998743
311860.3547,5.073264692433245,8.769697246380918,18.910324452948547,15.777997954069685,36.475000000034925
311860.3557,3.8513024300753083,7.454093856350207,18.16104228376332,15.9356189273863,36.476000000024214
311860.3567,2.485054190811884,5.918051899684371,17.103828341770658,15.705737168406989,36.477000000013504
311860.3577,1.1188566921701815,4.307815774459984,15.87444285728292,15.2042508232615,36.478000000002794
311860.3587,-0.09731706767640677,2.777048090815125,14.619722943596342,14.562128580220152,36.478999999992084
311860.3597,-1.0177035013877527,1.4767307329614248,13.48804472450933,13.916509115331959,36.47999999998137
311860.3607,-1.5102352468334812,0.5454018450131353,12.619856094554276,13.401655781398723,36.48100000002887
311860.3617,-1.4649663540228144,0.10045821082909559,12.138963807175221,13.140425566306947,36.48200000001816
311860.3627,-0.8008365046007935,0.23114357275044634,12.145174696586707,13.23684011305363,36.48300000000745
311860.3637,0.529672312443426,0.9936831353737043,12.708759046236493,13.77022807696278,36.48399999999674
311860.3647,2.5382460152025765,2.4088287389952407,13.867037697097423,14.791254930713253,36.48499999998603
311860.3657,5.200871082479645,4.461866970168314,15.623209637531813,16.319984098661056,36.48600000003353
311860.3667,8.460243977956788,7.104934019144267,17.947351024049023,18.34593893237386,36.48700000002282
311860.3677,12.230131560355176,10.261295830175296,20.779346908640726,20.829975079667562,36.48800000001211
311860.3687,16.401213786709985,13.831106783619944,24.033378370119408,23.707641785429292,36.4890000000014
311860.3697,20.84784647141858,17.698067285625548,27.603491748793974,26.893619712780954,36.48999999999069
311860.3707,25.435144768157073,21.736367273065493,31.3697302328135,30.286778664609404,36.491000000038184
311860.3717,30.02580880695756,25.817329779768855,35.20431304093818,33.77540280346699,36.492000000027474
311860.3727,34.4861872559868,29.815251333872226,38.977400694135646,37.24218027720151,36.493000000016764
311860.3737,38.69119303983914,33.61206362340006,42.562078549618626,40.56864068699046,36.494000000006054
311860.3747,42.52783447677774,37.10059886231057,45.83831336340581,43.63883611286043,36.49499999999534
311860.3757,45.89728847127057,40.18641218406889,48.69577517851809,46.34218565373104,36.49599999998463
311860.3767,48.715602904097,42.788279856361115,51.03555434234038,48.57552503965609,36.49700000003213
311860.3777,50.91325655253478,44.83763479952498,52.77092650323389,50.24450795942212,36.49800000002142
311860.3787,52.43391270414777,46.27730618605634,53.827414544819185,51.26458262196824,36.49900000001071
311860.3797,53.23276682935792,47.059987369999554,54.14245626888336,51.56180741953706,36.5
311860.3807,53.27490371982546,47.146860814400604,53.665004945291955,51.07376928380164,36.50099999998929
311860.3817,52.53404506554327,46.50676049921004,52.35536580233705,49.750827930669615,36.50200000003679
311860.3827,50.991989376735816,45.1161575200886,50.185508811161824,47.55783370330709,36.50300000002608
311860.3837,48.6389318897015,42.960124155952784,47.140004443191394,44.4763651433428,36.50400000001537
311860.3847,45.47471562953126,40.034280265564945,43.21761537258658,40.50741675405147,36.50500000000466
311860.3857,41.510921341249684,36.34757036931165,38.43345633115616,35.674351414600956,36.505999999993946
311860.3867,36.77356938082016,31.92557755697533,32.82152018058217,30.025829600761636,36.506999999983236
311860.3877,31.30609572787581,26.813967499910774,26.437273723279464,23.638351811000152,36.508000000030734
311860.3887,25.17218939692001,21.08158543587428,19.35996277506934,16.618011669841078,36.50900000002002
311860.3897,18.458048293639134,14.822709817363025,11.694240370230458,9.101061683913159,36.51000000000931
311860.3907,11.273628989323988,8.158001912208032,3.5707485248739697,1.2529437308641853,36.5109999999986
311860.3917,3.7525319623111826,1.2337789300792086,-4.854657716250956,-6.734470496098817,36.51199999998789
311860.3927,-3.949728329338169,-5.7806283249733665,-13.403259922311388,-14.647554806895336,36.51300000003539
311860.3937,-11.659179841482095,-12.69750598751347,-21.877491812946783,-22.25749138172935,36.51400000002468
311860.3947,-19.188529735438696,-19.317265223766128,-30.066572134218177,-29.328528079598456,36.51500000001397
311860.3957,-26.34377552486384,-25.436534660639456,-37.75356183751624,-35.62757667891944,36.51600000000326
311860.3967,-32.931937752917754,-30.857380065653377,-44.7235180707291,-40.934658100001734,36.51699999999255
311860.3977,-38.769442384841184,-35.397065491333926,-50.77230595001492,-45.05359414411627,36.51799999998184
311860.3987,-43.69060185080047,-38.89768976342694,-55.71555122788017,-47.822283762476374,36.51900000002934
311860.3997,-47.55561226960185,-41.23500889600746,-59.397180446356636,-49.12189239473507,36.52000000001863
311860.4007,-50.25750429136331,-42.3257920158245,-61.69700375008993,-48.88432780319524,36.521000000007916
311860.4017,-51.72755470504526,-42.13315317291494,-62.53684883320562,-47.097472378805435,36.521999999997206
311860.4027,-51.93877913405366,-40.66944596650791,-61.884847982613685,-43.80778261998625,36.522999999986496
311860.4037,-50.90727227298344,-37.99648940931189,-59.75760566415724,-39.12003978906393,36.52400000003399
311860.4047,-48.69132754154152,-34.22309552416813,-56.22012050369544,-33.194227009891144,36.52500000002328
311860.4057,-45.38843729559573,-29.50007347326026,-51.383489949716534,-26.2397010073182,36.52600000001257
311860.4067,-41.13043211783985,-24.013073012621824,-45.400574877512774,-18.507004910726646,36.52700000000186
311860.4077,-36.077148765633765,-17.9737847804942,-38.45993209466565,-10.277817090096274,36.52799999999115
311860.4087,-30.40910932949145,-11.610122634092523,-30.778424203061938,-1.8536377552005685,36.52900000003865
311860.4097,-24.31974114531723,-5.1560647761189475,-22.592980536603417,6.456128087261611,36.53000000002794
311860.4107,-18.00766471110601,1.1581779562948564,-14.152005540825622,14.346029119543381,36.53100000001723
311860.4117,-11.669526905204782,7.11506444129719,-5.706911630984518,21.52575341901267,36.53200000000652
311860.4127,-5.493765535814139,12.517210366864695,2.495804085448184,27.73012020974953,36.53299999999581
311860.4137,0.3444309238489391,17.193128137816352,10.221608539577472,32.72748396284599,36.5339999999851
311860.4147,5.686844259311034,21.001063270741884,17.25388583692565,36.32630539961291,36.535000000032596
311860.4157,10.39464618606013,23.83095028609369,23.398692375123588,38.37979772464275,36.536000000021886
311860.4167,14.349664617432722,25.6046761541262,28.488326597162114,38.78870044822197,36.537000000011176
311860.4177,17.45474812752978,26.274973835685948,32.38382570255982,37.502353754823055,36.538000000000466
311860.4187,19.633547312839944,25.823359489341136,34.97657593343741,34.51833281630079,36.538999999989755
311860.4197,20.830055582864546,24.257566293726608,36.1892649327067,29.880947080747525,36.54000000003725
311860.4207,21.008230516232373,21.608912877865684,35.97641076192946,23.6789124604016,36.54100000002654
311860.4217,20.151953274612175,17.929978165220444,34.32467312269175,16.04246744254153,36.54200000001583
311860.4227,18.265485270480358,13.292845576602154,31.253092781100694,7.140134913582759,36.54300000000512
311860.4237,15.37445980138955,7.788041124090789,26.813323284345223,-2.824758970816078,36.54399999999441
311860.4247,11.527315856187133,1.5241382820576288,21.08982555722832,-13.617795712348778,36.5449999999837
311860.4257,6.796957168232598,-5.372144545155921,14.199903138059598,-24.97748355718608,36.5460000000312
311860.4267,1.282316865266571,-12.755653191754327,6.293376074649949,-36.61973437125442,36.54700000002049
311860.4277,-4.890560194608821,-20.46270059653242,-2.448363944803541,-48.24298767374302,36.54800000000978
311860.4287,-11.568329432473886,-28.311589680058905,-11.814197075485598,-59.53417182636271,36.54899999999907
311860.4297,-18.571439722968023,-36.10416697724016,-21.566281425477076,-70.17565091184922,36.54999999998836
311860.4307,-25.69681994397757,-43.62874697492891,-31.44443060527453,-79.85322437511715,36.551000000035856
311860.4317,-32.722352311750605,-50.66462666388175,-41.17198025429809,-88.26513211812426,36.552000000025146
311860.4327,-39.41317299228232,-56.98825081748066,-50.46314114394785,-95.13188184638369,36.553000000014435
311860.4337,-45.52966747547751,-62.38090650891291,-59.03169874918562,-100.20657268130371,36.554000000003725
311860.4347,-50.83685177398773,-66.63763886921288,-66.60077701155436,-103.28525570084186,36.554999999993015
311860.4357,-55.11466833146742,-69.57690866067861,-72.91325178690813,-104.21676444671793,36.555999999982305
311860.4367,-58.168594498987915,-71.05037458625262,-77.74229120546705,-102.91138103437616,36.5570000000298
311860.4377,-59.83987597406995,-70.9520952349564,-80.90142805894894,-99.34768738844296,36.55800000001909
311860.4387,-60.014668098261026,-69.2264185223387,-82.25354242629842,-93.57699263535096,36.55900000000838
311860.4397,-58.631399636358346,-65.8738660072636,-81.71815598756739,-85.72482758256426,36.55999999999767
311860.4407,-55.685766092793635,-60.95442469378517,-79.2765130806238,-75.9891504325608,36.56099999998696
311860.4417,-51.23290639727083,-54.58782252383731,-74.97404294560884,-64.63510385475413,36.56200000003446
311860.4427,-45.386506241732114,-46.950572544083144,-68.91995377846847,-51.98638712190503,36.56300000002375
311860.4437,-38.314787567318966,-38.26980687005908,-61.28388960542129,-38.41353987543597,36.56400000001304
311860.4447,-30.233568049136284,-28.814164326575614,-52.28977065789973,-24.319656433409698,36.56500000000233
311860.4457,-21.39678733628471,-18.882223347176712,-42.207121015090735,-10.124242058841107,36.56599999999162
311860.4467,-12.085079650165508,-8.789163880614602,-31.340348540983285,3.753931768943702,36.56699999998091
311860.4477,-2.593109236404259,1.1475186420069463,-20.016568392530324,16.9140303912487,36.568000000028405
311860.4487,6.783535538855218,10.622350270122231,-8.572642731319485,28.98945688779426,36.569000000017695
311860.4497,15.761078275939665,19.35536729387813,2.657859966491622,39.66234264269658,36.570000000006985
311860.4507,24.07915861208521,27.103927271762714,13.357103500950203,48.67543742347367,36.570999999996275
311860.4517,31.510649995496188,33.67214749989457,23.23420693435152,55.840783171391394,36.571999999985565
311860.4527,37.869193094198245,38.91746345718582,32.03474787352603,61.044771913619726,36.57300000003306
311860.4537,43.01413646239882,42.75402276224371,39.548180817006056,64.24942861521211,36.57400000002235
311860.4547,46.852781772571845,45.152868907136565,45.612960628604384,65.49000502514622,36.57500000001164
311860.4557,49.34003414570185,46.13910259357988,50.119319127440825,64.86920134189035,36.57600000000093
311860.4567,50.47574121559036,45.78641698311452,53.00979015265961,62.54853131000472,36.57699999999022
311860.4577,50.300152328441754,44.20956950514625,54.27770388747369,58.737498898967,36.57800000003772
311860.4587,48.88803029880413,41.55546431356238,53.96396611878595,53.6813511442756,36.57900000002701
311860.4597,46.34199578187715,37.993568726224,52.15249730355262,47.64820727736069,36.5800000000163
311860.4607,42.78567718930552,33.70637263828882,48.96472834828734,40.916339464327535,36.58100000000559
311860.4617,38.357180978457265,28.880526461469163,44.553537013081005,33.762300868021775,36.58199999999488
311860.4627,33.203296548763724,23.699170360715527,39.09696610486834,26.450472210613086,36.58299999998417
311860.4637,27.47471903955513,18.335809365260534,32.79199984009155,19.224441666250893,36.584000000031665
311860.4647,21.322426606757155,12.949911979653724,25.84859718103955,12.300459835357398,36.585000000020955
311860.4657,14.895201762389991,7.684231943424232,18.484100363747746,5.863037374151301,36.586000000010245
311860.4667,8.338154010277123,2.6636908817399023,10.918062550466578,0.06259235949667027,36.586999999999534
311860.4677,1.7919962134833896,-2.004471389122763,3.367478481896524,-4.985079668508389,36.587999999988824
311860.4687,-4.60724042250221,-6.229660928214795,-3.9576380392230486,-9.19783830290859,36.58900000003632
311860.4697,-10.728392571956556,-9.93643006348664,-10.858402901515012,-12.52511554982903,36.59000000002561
311860.4707,-16.44557286032068,-13.062925581753566,-17.151003267773504,-14.945113601700276,36.5910000000149
311860.4717,-21.639060917734728,-15.559638888067184,-22.67047133133333,-16.461652460742805,36.59200000000419
311860.4727,-26.19684640831227,-17.38871649726168,-27.27428665299244,-17.10097658860948,36.59299999999348
311860.4737,-30.01687928763171,-18.523966967287375,-30.845751809135116,-16.908745308023498,36.59399999998277
311860.4747,-33.00996038658212,-18.95156625414348,-33.29703367342854,-15.947334349880782,36.59500000003027
311860.4757,-35.10308883290132,-18.67133300661353,-34.571717659246914,-14.293477830243512,36.59600000001956
311860.4767,-36.24298513064484,-17.69833344440698,-34.6466920169205,-12.03619262420277,36.59700000000885
311860.4777,-36.39944122194545,-16.064494934500576,-33.53316951571555,-9.274860427921688,36.59799999999814
311860.4787,-35.56811965647318,-13.819867485635513,-31.276667943236603,-6.117303910234935,36.59899999998743
311860.4797,-33.77243715239712,-11.033177982559817,-27.95580950229851,-2.6776859916660944,36.600000000034925
311860.4807,-31.064222936762384,-7.791373014511405,-23.679860221309536,0.9259145469535244,36.601000000024214
311860.4817,-27.522934446863996,-4.197937627227324,-18.5850091246183,4.574345911420037,36.602000000013504
311860.4827,-23.2533334404742,-0.3698998408094071,-12.829476178680974,8.150666435763792,36.603000000002794
311860.4837,-18.381662413899143,3.566428525985035,-6.587629523571693,11.543805343980985,36.603999999992084
311860.4847,-13.050500707627169,7.480780282817128,-0.043377191565988855,14.652453152287825,36.60499999998137
311860.4857,-7.4126075593807235,11.245004568344733,6.616832325485553,17.38895863681184,36.60600000002887
311860.4867,-1.6241623772778864,14.739451229082725,13.211020231225952,19.682954424505596,36.60700000001816
311860.4877,4.162120307798179,17.85917161044143,19.56830052570567,21.484406559618392,36.60800000000745
311860.4887,9.803499927258565,20.519421013728945,25.534732750725478,22.765789814947368,36.60899999999674
311860.4897,15.172864579767591,22.659980355340235,30.97806759471063,23.52313146268631,36.60999999998603
311860.4907,20.163121237919224,24.247896079094254,35.79112435590486,23.775739329102418,36.61100000003353
311860.4917,24.690019297382452,25.278361561571305,39.89363870814346,23.56452926559754,36.61200000002282
311860.4927,28.693243144808346,25.77361910213001,43.232534306803714,22.948983656709533,36.61300000001211
311860.4937,32.13576424662139,25.779934664518795,45.780692748342766,22.002895049147956,36.6140000000014
311860.4947,35.00160030881443,25.36287134747017,47.53441258245777,20.80916514589772,36.61499999999069
311860.4957,37.2922731021252,24.60124517391844,48.50984885678403,19.454027153191618,36.616000000038184
311860.4967,39.02237339489763,23.580272495311846,48.73880049862553,18.021128099135556,36.617000000027474
311860.4977,40.214719341364834,22.384499202814734,48.26425617021515,16.585939110787404,36.618000000016764
311860.4987,40.89562553083032,21.09112923632723,47.1361153567122,15.210951032581344,36.619000000006054
311860.4997,41.09078010289303,19.76433985281236,45.407469029489505,13.942059489952376,36.61999999999534
311860.5007,40.82215818274973,18.45108552150048,43.13175558593964,12.80645102244917,36.62099999998463
311860.5017,40.10628755697699,17.17875832370402,40.361008766128705,11.812177639552308,36.62200000003213
311860.5027,38.95403748649155,15.954902298463274,37.14529384756387,10.949461793795788,36.62300000002142
311860.5037,37.37193768744834,14.768987924160468,33.53329789838299,10.193620342692162,36.62400000001071
311860.5047,35.36486769706883,13.596058708945769,29.57391177786455,9.509348707523808,36.625
311860.5057,32.93980349816706,12.401883050105184,25.31852853892089,8.855979016676432,36.62599999998929
311860.5067,30.11018375660352,11.149098249818964,20.823696373351662,8.19323085129283,36.62700000003679
311860.5077,26.900375115634606,9.80373408931266,16.15371338771791,7.486919823502306,36.62800000002608
311860.5087,23.349683637344828,8.341460634271264,11.382742166269889,6.714083419866055,36.62900000001537
311860.5097,19.51538187640222,6.752923668894917,6.596056191130594,5.867026811126136,36.63000000000466
311860.5107,15.474297180726875,5.04761025875612,1.8901054525837993,4.955880602670846,36.630999999993946
311860.5117,11.32263039795007,3.2558196186483404,-2.6288013947074846,4.009390397783277,36.631999999983236
311860.5127,7.173834302254377,1.4284887645201865,-6.847266134680847,3.07381349430628,36.633000000030734
311860.5137,3.154563113156058,-0.36517764520048024,-10.648942100171686,2.2099672506971384,36.63400000002002
311860.5147,-0.601108531956452,-2.042116901551429,-13.919822830155425,1.4886413959053777,36.63500000000931
311860.5157,-3.9588246145028574,-3.511506280318001,-16.55432463280917,0.9847375226724546,36.6359999999986
311860.5167,-6.791927695766769,-4.682034665868149,-18.46170916069584,0.7706192780315604,36.63699999998789
311860.5177,-8.989662041567945,-5.4697153966559355,-19.572331115528925,0.9092351290164257,36.63800000003539
311860.5187,-10.46493561613959,-5.805548113092822,-19.843181197366956,1.4476045956804857,36.63900000002468
311860.5197,-11.160989517314384,-5.642341092740999,-19.262227804794886,2.4112355784423753,36.64000000001397
311860.5207,-11.056395375353162,-4.9600727105796665,-17.85114059035494,3.7999667538173276,36.64100000000326
311860.5217,-10.167926357545051,-3.7692951352413293,-15.666098161159955,5.585611534504365,36.64199999999255
311860.5227,-8.551014721913882,-2.1122535884780085,-12.796530540007378,7.711629423561702,36.64299999998184
311860.5237,-6.297703307714377,-0.06159453275198585,-9.361811163603011,10.094880457926472,36.64400000002934
311860.5247,-3.5322022757478484,2.283252725738309,-5.506078289461676,12.629344344550939,36.64500000001863
311860.5257,-0.40435722125446916,4.801734068636202,-1.3915166314345935,15.191523675266358,36.646000000007916
311860.5267,2.918497268822979,7.359406326445029,2.809446964625461,17.647114913743184,36.646999999997206
311860.5277,6.260698642035768,9.81615755126971,6.922496164295156,19.858433753501334,36.647999999986496
311860.5287,9.447759341486488,12.034742788796143,10.779751311334934,21.692031302921258,36.64900000003399
311860.5297,12.315525701909989,13.888952547281795,14.227506927577199,23.025938209123,36.65000000002328
311860.5307,14.718353219368936,15.27077987741883,17.132879083461702,23.756024282237057,36.65100000001257
311860.5317,16.535759678531896,16.09605770065151,19.388963829389017,23.80105569184164,36.65200000000186
311860.5327,17.677162984330913,16.308189829976204,20.918242316275684,23.106160501540096,36.65299999999115
311860.5337,18.084485864108494,15.879781763782473,21.6741213817294,21.64456315299106,36.65400000003865
311860.5347,17.73259787589225,14.812172736183461,21.640655518935382,19.41760461241051,36.65500000002794
311860.5357,16.62774840190061,13.133059586846132,20.830642373987924,16.453211968857307,36.65600000001723
311860.5367,14.804305336139791,10.892567532155876,19.282405608571352,12.803105166891065,36.65700000000652
311860.5377,12.32023826014975,8.158247279032704,17.055665103955814,8.539117631124798,36.65799999999581
311860.5387,9.251861180481793,5.009550681608059,14.226937728086122,3.7490538292749878,36.6589999999851
311860.5397,5.688372402895938,1.5323521160224007,10.884909261185777,-1.4674931983822068,36.660000000032596
311860.5407,1.7266972844096062,-2.1859604106147206,7.126171209829674,-7.002986386632147,36.661000000021886
311860.5417,-2.5329417198520834,-6.06039621783371,3.051631172066946,-12.745157553894517,36.662000000011176
311860.5427,-6.9904244111803955,-10.01098452941225,-1.2362080492759957,-18.579408465517822,36.663000000000466
311860.5437,-11.54794566130738,-13.963983043921443,-5.635034679530259,-24.390349724919812,36.663999999989755
311860.5447,-16.11104336029511,-17.85172124219638,-10.043644682425164,-30.06255882984185,36.66500000003725
311860.5457,-20.58859420665315,-21.61129269291095,-14.362172669672978,-35.480757396888386,36.66600000002654
311860.5467,-24.89205850435221,-25.18244982447114,-18.49191398583423,-40.52969975473416,36.66700000001583
311860.5477,-28.93434744777315,-28.505152765641732,-22.33507255870117,-45.09412006573157,36.66800000000512
311860.5487,-32.62873277272895,-31.517270331883555,-25.79478441643334,-49.05909592076344,36.66899999999441
311860.5497,-35.88821411170177,-34.15292071534101,-28.775737465065724,-52.31115062243825,36.6699999999837
311860.5507,-38.62570417104677,-36.34187240884519,-31.185636523109444,-54.740336698397016,36.6710000000312
311860.5517,-40.75529147401107,-38.01030865931584,-32.937655543351994,-56.243426884333,36.67200000002049
311860.5527,-42.194705158095,-39.08310284372409,-33.95388712460088,-56.72819729762454,36.67300000000978
311860.5537,-42.86895019694559,-39.48757326955573,-34.16965642651703,-56.118635226969594,36.67399999999907
311860.5547,-42.714920820931354,-39.15850231471959,-33.53842762653306,-54.360756959876866,36.67499999998836
311860.5557,-41.68665196134225,-38.04403564694694,-32.036911357217896,-51.42859546098732,36.676000000035856
311860.5567,-39.760749387170755,-36.111940519433524,-29.669894931317135,-47.32982799960565,36.677000000025146
311860.5577,-36.94146237138104,-33.35561294087513,-26.47427450097751,-42.110471386529866,36.678000000014435
311860.5587,-33.26483773653805,-29.799192519619627,-22.521776436058488,-35.85808434698187,36.679000000003725
311860.5597,-28.801425489653123,-25.50117605459708,-17.919916103619524,-28.702984578928145,36.679999999993015
311860.5607,-23.657092925136414,-20.55601539154945,-12.810852649881468,-20.817108576308883,36.680999999982305
311860.5617,-17.971639498513504,-15.09333443327606,-7.36795007934228,-12.410306412658862,36.6820000000298
311860.5627,-11.915077451651424,-9.274591716003076,-1.790035323979929,-3.7240579421889763,36.68300000001909
311860.5637,-5.6816377204147095,-3.2872315248378965,3.706462659416214,4.97719545896442,36.68400000000838
311860.5647,0.5182407302663313,2.663411725634311,8.897119913366879,13.416706903083051,36.68499999999767
311860.5657,6.467495850237059,8.363984854174374,13.560331039897155,21.31749201901814,36.68599999998696
311860.5667,11.953007214536505,13.604120776641329,17.488660983411098,28.415094512923762,36.68700000003446
311860.5677,16.776440410356976,18.187814879593677,20.49998877981815,34.470249645762664,36.68800000002375
311860.5687,20.76462260570802,21.94435452043457,22.447678243074485,39.280623197349904,36.68900000001304
311860.5697,23.778714905136926,24.73799630522292,23.229054126287437,42.6908461903443,36.69000000000233
311860.5707,25.721523316977006,26.475667951359267,22.79156581527699,44.60017125698918,36.69099999999162
311860.5717,26.542422420940138,27.11211615983391,21.13617633843946,44.96723684597811,36.69199999998091
311860.5727,26.23954294291761,26.652116608924384,18.317709973342254,43.811627441938,36.693000000028405
311860.5737,24.85908115317458,25.149589975848077,14.442110984672036,41.212144901472676,36.694000000017695
311860.5747,22.491806389162388,22.7037088426727,9.660790873357026,37.301939041733036,36.695000000006985
311860.5757,19.26705414703005,19.452313352551492,4.162453242375555,32.260865431488355,36.695999999996275
311860.5767,15.344677894782546,15.563158252511945,-1.837033615697111,26.30562686383156,36.696999999985565
311860.5777,10.90557721661748,11.223672836384361,-8.106010994551806,19.6783970058201,36.69800000003306
311860.5787,6.141511075409699,6.630014873209257,-14.408866902537246,12.634709153846385,36.69900000002235
311860.5797,1.2449357052423837,1.9762318937306227,-20.517536291604443,5.431413901076804,36.70000000001164
311860.5807,-3.600424789231288,-2.555693648281937,-26.22191249510988,-1.6845335561489418,36.70100000000093
311860.5817,-8.227656777611168,-6.8042404416748825,-31.338524756050358,-8.485797637084685,36.70199999999022
311860.5827,-12.49290502425226,-10.634666930610507,-35.71699272171532,-14.772389817402505,36.70300000003772
311860.5837,-16.279485710973017,-13.942929654029912,-39.24396016387748,-20.3770759376539,36.70400000002701
311860.5847,-19.499754525307477,-16.657095660641616,-41.84442020087624,-25.168342431917967,36.7050000000163
311860.5857,-22.094815881108136,-18.73636184303213,-43.480554741297766,-29.051002262080555,36.70600000000559
311860.5867,-24.03233938715665,-20.167994077475587,-44.14840367114855,-31.964704741447946,36.70699999999488
311860.5877,-25.302897731388214,-20.962662895433873,-43.872838124978166,-33.88076289213847,36.70799999998417
311860.5887,-25.915343484938916,-21.148765936674724,-42.70142383770653,-34.797815341240124,36.709000000031665
311860.5897,-25.891792591722208,-20.766381432104456,-40.697816222022446,-34.7368893553652,36.710000000020955
311860.5907,-25.262776220044252,-19.86148792636538,-37.93532473519554,-33.73642491196681,36.711000000010245
311860.5917,-24.063062275611955,-18.481015831490506,-34.491222030135035,-31.847759479929344,36.711999999999534
311860.5927,-22.32854037307784,-16.669174337994896,-30.442260371534054,-29.131467182690123,36.712999999988824
311860.5937,-20.094420989871058,-14.465335699971858,-25.861705528013545,-25.65480619519615,36.71400000003632
311860.5947,-17.3948357083178,-11.903574560004998,-20.818022059401173,-21.490369561220504,36.71500000002561
311860.5957,-14.263757562529884,-9.01377139351306,-15.375160935125159,-16.715873663611948,36.7160000000149
311860.5967,-10.737005456931096,-5.824015145795445,-9.594228512916303,-11.414871857217026,36.71700000000419
311860.5977,-6.854969927994842,-2.363897917672712,-3.536171574320735,-5.678063161079334,36.71799999999348
311860.5987,-2.6656117866770375,1.331801937800647,2.734990003042602,0.3952108151211818,36.71899999998277
311860.5997,1.772751130902794,5.219593411940064,9.148903776188638,6.695715838859145,36.72000000003027
311860.6007,6.389337281994147,9.244430917482799,15.62611660812911,13.10373440216816,36.72100000001956
311860.6017,11.099875335880233,13.338010690690325,22.07625922032913,19.48947606295218,36.72200000000885
311860.6027,15.80694753672073,17.418536656448637,28.397540208357025,25.714718982201262,36.72299999999814
311860.6037,20.40184710254723,21.392128200913135,34.477764958701215,31.63577277623812,36.72399999998743
311860.6047,24.76793222596492,25.155864024130388,40.196931269283866,37.10769888802013,36.725000000034925
311860.6057,28.785296057413724,28.60227677355495,45.43128409919246,41.98957321397056,36.726000000024214
311860.6067,32.336424467257,31.624950973243642,50.05855370165878,46.15044274480488,36.727000000013504
311860.6077,35.31239659667398,34.12474857254082,53.963970088368235,49.47552763865472,36.728000000002794
311860.6087,37.61910931211784,36.016105477507864,57.04655516560841,51.87216324001076,36.728999999992084
311860.6097,39.18298343500295,37.23281711761081,59.22515073924398,53.274969431449826,36.72999999998137
311860.6107,39.955639676596796,37.73276419898648,60.44364978900853,53.64977860920163,36.73100000002887
311860.6117,39.91711285088333,37.50111814296093,60.674958650478686,52.99594456571164,36.73200000001816
311860.6127,39.0772963757928,36.55170056728527,59.92332272039081,51.346783935835475,36.73300000000745
311860.6137,37.475463249326374,34.92633913382356,58.22478744755565,48.76805706174515,36.73399999999674
311860.6147,35.177879509313236,32.692246464409955,55.64572596047718,45.35456104427985,36.73499999998603
311860.6157,32.27369505090961,29.937631324741847,52.279529237573165,41.22506824805166,36.73600000003353
311860.6167,28.869448135013716,26.765913849396966,48.2417085717211,36.515983090587966,36.73700000002282
311860.6177,25.082639312157667,23.289043232861395,43.663788882168156,31.37419519114023,36.73800000001211
311860.6187,21.034906380419034,19.62049467688787,38.68646356253673,25.949667949818902,36.7390000000014
311860.6197,16.845357306221448,15.868544939568528,33.45252919825833,20.388312836589016,36.73999999999069
311860.6207,12.624590694670776,12.130390613738253,28.100118297547837,14.825660458440831,36.741000000038184
311860.6217,8.469856523365907,8.487584036739811,22.756701529364705,9.381754129755446,36.742000000027474
311860.6227,4.46169142374,5.003127592762999,17.534243699344007,4.157568945993322,36.743000000016764
311860.6237,0.6622148153796688,1.7204016107753852,12.525779470382497,-0.7668884216721463,36.744000000006054
311860.6247,-2.8848904945358007,-1.3360793627126915,7.803538057124724,-5.332802164945415,36.74499999999534
311860.6257,-6.152850865221678,-4.158264466944009,3.418604664262884,-9.501247962486485,36.74599999998463
311860.6267,-9.129009003978059,-6.750857807137215,-0.5980257854969837,-13.250660639378674,36.74700000003213
311860.6277,-11.811159658972901,-9.126762808272217,-4.2332575067683385,-16.57345768415795,36.74800000002142
311860.6287,-14.203477826414973,-11.302211848962934,-7.488898784294456,-19.47226502927727,36.74900000001071
311860.6297,-16.31252475777311,-13.292130887373746,-10.378236833730872,-21.95620152719985,36.75
311860.6307,-18.143787881612557,-15.106249783918326,-12.922556164831045,-24.037640662957063,36.75099999998929
311860.6317,-19.69913459617378,-16.74637766303755,-15.147934996238485,-25.729786726515794,36.75200000003679
311860.6327,-20.97544493803646,-18.205128358667398,-17.082582349609932,-27.045286832560688,36.75300000002608
311860.6337,-21.964546492246765,-19.466217513932396,-18.754882777491716,-27.995962268884746,36.75400000001537
311860.6347,-22.65442138277008,-20.506276996664113,-20.192207688068542,-28.593597427719626,36.75500000000466
311860.6357,-23.03150579188954,-21.297962014421937,-21.42044442145236,-28.8515875996831,36.755999999993946
311860.6367,-23.083772839933776,-21.813979256157232,-22.46409885535438,-28.787133002802467,36.756999999983236
311860.6377,-22.804193486608952,-22.031555901918598,-23.346755085065453,-28.42358811419762,36.758000000030734
311860.6387,-22.19411771254937,-21.936810978952824,-24.09163468694199,-27.792541612712256,36.75900000002002
311860.6397,-21.26611550461169,-21.528488865261668,-24.72199278137266,-26.935217415372172,36.76000000000931
311860.6407,-20.045864948770667,-20.82057062029416,-25.261119108226765,-25.90285072085969,36.7609999999986
311860.6417,-18.572768695812414,-19.843387292756056,-25.73177608676493,-24.75579891344442,36.76199999998789
311860.6427,-16.899111080834427,-18.643010059557653,-26.15499509341241,-23.561285333319475,36.76300000003539
311860.6437,-15.087723205051972,-17.27887022024932,-26.548256702244178,-22.389830419903223,36.76400000002468
311860.6447,-13.208286645948876,-15.819749964905865,-26.923188211064367,-21.310583511984735,36.76500000001397
311860.6457,-11.332561382657998,-14.338463475691912,-27.28300958717297,-20.385912962461408,36.76600000000326
311860.6467,-9.528953832085614,-12.905698989247167,-27.620034899281993,-19.66572658558503,36.76699999999255
311860.6477,-7.856932635914815,-11.583600099341622,-27.91358028586422,-19.18206585234679,36.76799999998184
311860.6487,-6.361842717441981,-10.41971706647314,-28.12863465052842,-18.9445367435101,36.76900000002934
311860.6497,-5.070656565777258,-9.441949775089853,-28.215612674497663,-18.93710379120482,36.77000000001863
311860.6507,-3.989135475557376,-8.655032795180892,-28.111432917229077,-19.11668307984321,36.771000000007916
311860.6517,-3.1007577882799864,-8.03898543743402,-27.74205264984796,-19.41383174181544,36.771999999997206
311860.6527,-2.3676162636174514,-7.549777047805104,-27.026455443044956,-19.735657518490743,36.772999999986496
311860.6537,-1.7333068330113117,-7.1222559651605275,-25.881940215323546,-19.970877788492334,36.77400000003399
311860.6547,-1.1276431380015064,-6.675178545758718,-24.230415999928262,-19.996760956294178,36.77500000002328
311860.6557,-0.4728534880144169,-6.117972684563011,-22.005279984548114,-19.687502754341455,36.77600000001257
311860.6567,0.30923344413543946,-5.358697881767746,-19.158361103677077,-18.92344322075833,36.77700000000186
311860.6577,1.2896157599945994,-4.312538054979444,-15.666358708913382,-17.60043143441795,36.77799999999115
311860.6587,2.5248142407645338,-2.9100966558928247,-11.536202928085736,-15.638604830651156,36.77900000003865
311860.6597,4.050487684159491,-1.1047633618574564,-6.808812983268987,-12.989873105272475,36.78000000002794
311860.6607,5.876552948650885,1.121511427493572,-1.560829731975851,-9.643482531823192,36.78100000001723
311860.6617,7.984274703965735,3.7545693315708983,4.095958098660994,-5.629178335195114,36.78200000000652
311860.6627,10.325625204408151,6.746879887052335,10.017599554244219,-1.0176686917051248,36.78299999999581
311860.6637,12.82502008921264,10.019002207510523,16.033292641092004,4.081692130235995,36.7839999999851
311860.6647,15.3833299660761,13.46358703417154,21.95274275184551,9.525860839491115,36.785000000032596
311860.6657,17.88386830978444,16.951612192141273,27.575115342003176,15.145349253818292,36.786000000021886
311860.6667,20.19988245097151,20.340349739207547,32.6989887542598,20.75321947435546,36.787000000011176
311860.6677,22.202942324993302,23.482413350466754,37.132619126762776,26.155157216032865,36.788000000000466
311860.6687,23.771543581502613,26.235143661581272,40.70379209397662,31.15987176708786,36.788999999989755
311860.6697,24.799225011589147,28.469565844687715,43.26856006101329,35.58905754999201,36.79000000003725
311860.6707,25.201546699207242,30.07819974805521,44.71824821706225,39.28620483051997,36.79100000002654
311860.6717,24.921380603024282,30.981114087744135,44.98425058474667,42.123660631167574,36.79200000001583
311860.6727,23.932119638901266,31.129781886513207,44.04031763613758,44.00750460442649,36.79300000000512
311860.6737,22.23860033637096,30.508498900176612,41.90224361194084,44.8800031604403,36.79399999999441
311860.6747,19.875740064825216,29.133350760070407,38.6250762334634,44.71962000151539,36.7949999999837
311860.6757,16.90509331951114,27.048936752029523,34.29817455158596,43.53877243450363,36.7960000000312
311860.6767,13.40971348068558,24.323257482542715,29.03861356675633,41.37971088509592,36.79700000002049
311860.6777,9.487849694983531,21.041331276170986,22.983560855654876,38.309046663577774,36.79800000000978
311860.6787,5.246099627918677,17.298205133235495,16.282318734957837,34.41154685488084,36.79899999999907
311860.6797,0.7926693227010366,13.192061025310604,9.08872877554903,29.7838470016866,36.79999999998836
311860.6807,-3.7686413972827206,8.81808415958255,1.554573095178142,24.528699724676926,36.801000000035856
311860.6817,-8.343202203169122,4.263660231367029,-6.175515624658399,18.750284444396765,36.802000000025146
311860.6827,-12.84868172902711,-0.39468639690762203,-13.96729463983529,12.550959606298916,36.803000000014435
311860.6837,-17.216340516561434,-5.092396776236939,-21.698165061104437,6.029658838894431,36.804000000003725
311860.6847,-21.39048318203709,-9.77602267477225,-29.256518588061848,-0.7180656015043017,36.804999999993015
311860.6857,-25.3262630315334,-14.400627004503354,-36.53946462257203,-7.5985450123994775,36.805999999982305
311860.6867,-28.986209159294347,-18.92584584197302,-43.449404422233755,-14.517409602252563,36.8070000000298
311860.6877,-32.335984424004934,-23.31116926679589,-49.89005074149736,-21.37641976672001,36.80800000001909
311860.6887,-35.33996849660249,-27.511091706990452,-55.762561949730255,-28.070297718236688,36.80900000000838
311860.6897,-37.95728437660683,-31.4708087210304,-60.96246073601889,-34.48416317813955,36.80999999999767
311860.6907,-40.138846359194794,-35.1230927817118,-65.37793770758938,-40.4921308580814,36.81099999998696
311860.6917,-41.825905745162615,-38.38686922500252,-68.89000491198503,-45.957519792790094,36.81200000003446
311860.6927,-42.950417062912024,-41.167845325979656,-71.37477556496023,-50.734964961845506,36.81300000002375
311860.6937,-43.43735689132937,-43.36133643544789,-72.70792155314324,-54.67452505657943,36.81400000001304
311860.6947,-43.208918056834335,-44.85720345407696,-72.7711210087137,-57.62766560181207,36.81500000000233
311860.6957,-42.19029461945311,-45.546588127964775,-71.46007771494652,-59.45478492780821,36.81599999999162
311860.6967,-40.31658833114796,-45.32992932762158,-68.69349524555531,-60.03376279379725,36.81699999998091
311860.6977,-37.54022387319653,-44.12558513383403,-64.42224193937206,-59.268866920839045,36.818000000028405
311860.6987,-33.838173097737524,-41.878288589557485,-58.6378638381156,-57.0992665829977,36.819000000017695
311860.6997,-29.218267365754127,-38.566640012305385,-51.37960113184587,-53.50638462877626,36.820000000006985
311860.7007,-23.72392526015039,-34.20888955924984,-42.73914178059455,-48.51937332946517,36.820999999996275
311860.7017,-17.436737146875824,-28.866386759989755,-32.86249853238166,-42.2181218908097,36.821999999985565
311860.7027,-10.476518514125544,-22.644258414187455,-21.94861005047108,-34.73338430962623,36.82300000003306
311860.7037,-2.998655439128295,-15.689105963208366,-10.24452470528348,-26.243839760860464,36.82400000002235
311860.7047,4.811201508730594,-8.183767061355534,1.9626961915200218,-16.9701438409716,36.82500000001164
311860.7057,12.744805811162937,-0.3394399988031468,14.356945498052852,-7.166275375494298,36.82600000000093
311860.7067,20.58084607601415,7.614299912980789,26.6062537748703,2.8912924877142974,36.82699999999022
311860.7077,28.095670841337792,15.440877534968537,38.37734362216482,12.91588716087481,36.82800000003772
311860.7087,35.074427311094055,22.908651372211636,49.35058702098198,22.623566351639745,36.82900000002701
311860.7097,41.32179162690592,29.802517131804706,59.23435623227009,31.745800808446983,36.8300000000163
311860.7107,46.67149807870725,35.934324636878756,67.77780125133356,40.041052548765826,36.83100000000559
311860.7117,50.99397397807705,41.151356129554074,74.78120916470895,47.30448772457696,36.83199999999488
311860.7127,54.20154632814908,45.34228390228555,80.10329159242114,53.375222929288086,36.83299999998417
311860.7137,56.2508908928956,48.44024401755444,83.664988256144,58.14071122029186,36.834000000031665
311860.7147,57.14262467480645,50.422909935583725,85.44964582451354,61.53811004834275,36.835000000020955
311860.7157,56.91817783049046,51.30970209004348,85.49970758596943,63.552715964736116,36.836000000010245
311860.7167,55.65429924170792,51.156503599328666,83.91030728340299,64.21377852839201,36.836999999999534
311860.7177,53.45573179900318,50.04844721847286,80.82037795761708,63.588198239402196,36.837999999988824
311860.7187,50.44672318976092,48.0914772340988,76.40204639092887,61.77275429323947,36.83900000003632
311860.7197,46.762105040858735,45.40346082143235,70.84917384603817,58.885586370781326,36.84000000002561
311860.7207,42.53867315726569,42.1056215760872,64.3659189141777,55.057665545089726,36.8410000000149
311860.7217,37.90753620295089,38.31499561295063,57.156139882289295,50.42493410634925,36.84200000000419
311860.7227,32.98797741908061,34.138476510053444,49.41433002283576,45.12168021050351,36.84299999999348
311860.7237,27.883206955962343,29.668833833595645,41.31860306675805,39.275553525039605,36.84399999998277
311860.7247,22.678188003193124,24.98287954295787,33.026035465841765,33.004439169705826,36.84500000003027
311860.7257,17.439517154420077,20.141738090732176,24.670446961358937,26.41520816535871,36.84600000001956
311860.7267,12.217147640080974,15.192970639163633,16.362482099973278,19.604172648716162,36.84700000000885
311860.7277,7.047580963902256,10.174130916906757,8.191662022794578,12.658911193813442,36.84799999999814
311860.7287,1.958032667108857,5.117205697188212,0.22992443929359402,5.661008525709977,36.84899999998743
311860.7297,-3.028988488952974,0.05332755204395661,-7.4639278730442635,-1.3108148772809687,36.850000000034925
311860.7307,-7.891256942136735,-4.982853660337523,-14.83948684442708,-8.17771922710963,36.851000000024214
311860.7317,-12.603082510423787,-9.949692598159338,-21.850299900376548,-14.858398517094622,36.852000000013504
311860.7327,-17.132658910843357,-14.796398817333404,-28.45024416893875,-21.267764886032026,36.853000000002794
311860.7337,-21.440790124439683,-19.46249185973384,-34.59109997510154,-27.316923217462726,36.853999999992084
311860.7347,-25.481112433765425,-23.87895235681378,-40.2215508373064,-32.91453424661015,36.85499999998137
311860.7357,-29.20175868387425,-27.9709690528334,-45.28766314199123,-37.96949562119693,36.85600000002887
311860.7367,-32.54824993700238,-31.66200316291155,-49.73472696651094,-42.394710846542154,36.85700000001816
311860.7377,-35.467264452458174,-34.8787439206552,-53.510187161515525,-46.11158213438074,36.85800000000745
311860.7387,-37.91083825224826,-37.55642730768989,-56.56727548907725,-49.054768424412266,36.85899999999674
311860.7397,-39.84050473397381,-39.643943882667166,-58.86888135691997,-51.176703764593775,36.85999999998603
311860.7407,-41.230887155814564,-41.108175775232574,-60.39117681890873,-52.45137837015578,36.86100000003353
311860.7417,-42.072316221781456,-41.93707564282684,-61.126542121716064,-52.87694420495792,36.86200000002282
311860.7427,-42.37214904065663,-42.141124173967675,-61.08541699305985,-52.47681274862033,36.86300000001211
311860.7437,-42.15460440490524,-41.75296489970657,-60.29682112191169,-51.29905399895023,36.8640000000014
311860.7447,-41.45908812608768,-40.82519912616631,-58.80743205930843,-49.414068432080676,36.86499999999069
311860.7457,-40.33714453492422,-39.42651100493299,-56.679264717939105,-46.91067120988872,36.866000000038184
311860.7467,-38.84831931993585,-37.636464070100274,-53.98614743906661,-43.890883523117346,36.867000000027474
311860.7477,-37.05533911114463,-35.53944853373989,-50.809319562798244,-40.46385394261476,36.868000000016764
311860.7487,-35.01909202226896,-33.21834912929304,-47.23257115496038,-36.73942014994891,36.869000000006054
311860.7497,-32.793922368091174,-30.74853696923606,-43.33739715852804,-32.82185961719464,36.86999999999534
311860.7507,-30.42372866283395,-28.19276208663466,-39.19864044685966,-28.80436281378152,36.87099999998463
311860.7517,-27.93927887862839,-25.597438479906835,-34.88105082138823,-24.764695745857452,36.87200000003213
311860.7527,-25.35703810119218,-22.990678829697078,-30.437094749383228,-20.76240663500668,36.87300000002142
311860.7537,-22.679652934500307,-20.382264869005958,-25.90622297680731,-16.837785348363937,36.87400000001071
311860.7547,-19.898069338221944,-17.765548609462044,-21.315653083955034,-13.012618193917785,36.875
311860.7557,-16.99509286688163,-15.121088195586317,-16.682566872066932,-9.292611204509852,36.87599999998929
311860.7567,-13.950049436619135,-12.421649112596524,-12.017474211594655,-5.671198652463015,36.87700000003679
311860.7577,-10.744086074726809,-9.638064049895446,-7.328370801162383,-2.1343255034807176,36.87800000002608
311860.7587,-7.365576755059029,-6.745356644326372,-2.625229928145184,1.334294793748158,36.87900000001537
311860.7597,-3.8150761638815482,-3.7285044400912364,2.075673147501962,4.7479840804905376,36.88000000000466
311860.7607,-0.10929670497449444,-0.5872478044377042,6.748096658306058,8.112487572367696,36.880999999993946
311860.7617,3.716331532596377,2.6605587126336623,11.35326135500112,11.422404155702779,36.881999999983236
311860.7627,7.606829645642064,5.977416666415584,15.838703646582625,14.659007950599513,36.883000000030734
311860.7637,11.488719111490196,9.306664191761797,20.138745687244928,17.789668309901664,36.88400000002002
311860.7647,15.27292596961733,12.574960570194639,24.176616198428054,20.76891460077912,36.88500000000931
311860.7657,18.859338284635967,15.696573980523338,27.86809080617328,23.54102820360827,36.8859999999986
311860.7667,22.14265619691071,18.579095414786842,31.12636571193912,26.04389319936676,36.88699999998789
311860.7677,25.0190475362544,21.130061399704335,33.86774874256027,28.213713878787832,36.88800000003539
311860.7687,27.393040469596247,23.263877180748313,36.0176600919639,29.99012340326186,36.88900000002468
311860.7697,29.184055888701113,24.908399229521894,37.516390713770974,31.321171690338925,36.89000000001397
311860.7707,30.332009136832042,26.01056455717216,38.32407428040323,32.16769524677297,36.89100000000326
311860.7717,30.80149087727564,26.540541694862622,38.42438890563757,32.50663563199136,36.89199999999255
311860.7727,30.584163033887226,26.49401604132318,37.82661247021036,32.33298011123711,36.89299999998184
311860.7737,29.699166045189653,25.892397440381586,36.56580084656325,31.66013727773382,36.89400000002934
311860.7747,28.19151317314339,24.780933607980323,34.70102828525736,30.518718249263937,36.89500000001863
311860.7757,26.128629441474104,23.224910642515898,32.3118078395606,28.95385489147942,36.896000000007916
311860.7767,23.595359811617573,21.30430236271309,29.49298001306297,27.021334455193085,36.896999999997206
311860.7777,20.687907634398762,19.107376243644712,26.34850338061893,24.78295029781475,36.897999999986496
311860.7787,17.507257272869538,16.72386113124149,22.984687428773448,22.30154887912933,36.89900000003399
311860.7797,14.152675187321952,14.238321189794265,19.503464498355992,19.63628569131722,36.90000000002328
311860.7807,10.715867773988654,11.724357706252853,15.996298348649333,16.838583574501186,36.90100000001257
311860.7817,7.276303290735705,9.240177432666956,12.539270687702071,13.949217407861823,36.90200000000186
311860.7827,3.8980859991985284,6.825930894484782,9.189778712053352,10.996835841623794,36.90299999999115
311860.7837,0.6286145928776912,4.50304942181402,5.98512608141182,7.998084327583269,36.90400000003865
311860.7847,-2.5009209276484192,2.275612349925322,2.943110868016352,4.9593283823666665,36.90500000002794
311860.7857,-5.473332324660992,0.13357494614989987,0.06452383011798807,1.8798079845962126,36.90600000001723
311860.7867,-8.281813983862891,-1.9424973337641327,-2.662712891212262,-1.2441000534404931,36.90700000000652
311860.7877,-10.925349203060605,-3.97569360497009,-5.2581951228171615,-4.413959460311989,36.90799999999581
311860.7887,-13.403675929233373,-5.986628756677857,-7.743020939226442,-7.624221576134599,36.9089999999851
311860.7897,-15.712389369793275,-7.987571565942021,-10.133723332723688,-10.857603122236661,36.910000000032596
311860.7907,-17.838744909813983,-9.97745970360878,-12.436772796640659,-14.081431610277813,36.911000000021886
311860.7917,-19.75865455955909,-11.938349290705721,-14.644219867343834,-17.24541756521576,36.912000000011176
311860.7927,-21.435250439431844,-13.833710214992665,-16.730941413777337,-20.281187948500147,36.913000000000466
311860.7937,-22.819231164127064,-15.608800849632102,-18.653803503894895,-23.103754708388635,36.913999999989755
311860.7947,-23.85102674709439,-17.193154170954077,-20.352872410615277,-25.614911203035188,36.91500000003725
311860.7957,-24.464632391892195,-18.5050009694127,-21.754611037015536,-27.7083644545314,36.91600000002654
311860.7967,-24.592789371082574,-19.457264789148084,-22.776809223518395,-29.276240423979914,36.91700000001583
311860.7977,-24.173048960383575,-19.96460586013663,-23.334830914577342,-30.216459171857135,36.91800000000512
311860.7987,-23.154157030613014,-19.950882791287842,-23.3486345304907,-30.440380506256368,36.91899999999441
311860.7997,-21.502152068458454,-19.35635163578881,-22.749946813265186,-29.88007801995382,36.9199999999837
311860.8007,-19.20558256331743,-18.143936855287457,-21.48895169358641,-28.49461472397417,36.9210000000312
311860.8017,-16.279319705687417,-16.30398626254029,-19.53989566623166,-26.27476577173817,36.92200000002049
311860.8027,-12.7665615513976,-13.85705477308525,-16.905105526834753,-23.245756629343468,36.92300000000978
311860.8037,-8.738783755558217,-10.854437045257582,-13.617053812467605,-19.467747322284655,36.92399999999907
311860.8047,-4.293574523478072,-7.376370124297357,-9.738278489810682,-15.033980231491928,36.92499999998836
311860.8057,0.4495197893653616,-3.5280349411740954,-5.359150151973284,-10.066703215345555,36.926000000035856
311860.8067,5.35483484050658,0.5663196660842675,-0.5936648084599412,-4.711163864887787,36.927000000025146
311860.8077,10.277661772804755,4.770643091013764,4.426393680610203,0.8718722191349154,36.928000000014435
311860.8087,15.071994812886038,8.945134589258231,9.558445285167872,6.5145101472636675,36.929000000003725
311860.8097,19.598338934932823,12.954415255921171,14.656696441610105,12.050387468765537,36.929999999993015
311860.8107,23.73096517081089,16.675156628069214,19.579715868137757,17.3229661941347,36.930999999982305
311860.8117,27.364058517315286,20.00256455163875,24.197425427830648,22.19285985431098,36.9320000000298
311860.8127,30.416310360238274,22.855233441703312,28.396998608150007,26.543698581218816,36.93300000001909
311860.8137,32.833653081920396,25.178044745700277,32.08727295587432,30.286174156045774,36.93400000000838
311860.8147,34.59000463160935,26.942968438594537,35.20142774626972,33.36007292003574,36.93499999999767
311860.8157,35.686068757023676,28.14781956090992,37.69783968505943,35.73428135784863,36.93599999998696
311860.8167,36.1464052559012,28.813204460513038,39.55919173731689,37.40492032166237,36.93700000003446
311860.8177,36.0151281107562,28.978046143920963,40.79005780025074,38.391913469516645,36.93800000002375
311860.8187,35.35069453004772,28.69419062276047,41.41330530482323,38.73441019682828,36.93900000001304
311860.8197,34.22030551294631,28.020656386143305,41.46573853137176,38.485553504315725,36.94000000000233
311860.8207,32.69444418352631,27.01809249000739,40.99344118161639,37.70710380577087,36.94099999999162
311860.8217,30.842032597924934,25.743958292584495,40.04726596585408,36.46440055588995,36.94199999998091
311860.8227,28.72659685791053,24.248836179156893,38.678864779308526,34.822069580550455,36.943000000028405
311860.8237,26.403704414038224,22.57414911662166,36.937562908818045,32.84077423701567,36.944000000017695
311860.8247,23.919789987053075,20.751392577798562,34.86826553669345,30.57517544773099,36.945000000006985
311860.8257,21.312333082984246,18.802822359362565,32.51045774620162,28.07312366679246,36.945999999996275
311860.8267,18.61120648114609,16.74338349175097,29.898234260055773,25.37596989245219,36.946999999985565
311860.8277,15.840895938959296,14.583536775321662,27.061185570120045,22.51976686660437,36.94800000003306
311860.8287,13.023208570608041,12.33255140810488,24.02588418634315,19.53704713712473,36.94900000002235
311860.8297,10.180048906335115,10.00179330540099,20.817666457284684,16.45881969712108,36.95000000001164
311860.8307,7.3358508301101875,7.607552486944579,17.462395768445774,13.316425143729319,36.95100000000093
311860.8317,4.519308736478986,5.173017264421845,13.987921484504332,10.142929766884127,36.95199999999022
311860.8327,1.7641458558552108,2.7291105771979765,10.425010064365887,6.973816239011342,36.95300000003772
311860.8337,-0.8912188308646664,0.3140428719372626,6.807611945858588,3.8468332893986044,36.95400000002701
311860.8347,-3.405104948177209,-2.0284087044681725,3.1724289634308604,0.800986678503756,36.9550000000163
311860.8357,-5.7349674604921415,-4.251730161218421,-0.442150309854252,-2.125224888062276,36.95600000000559
311860.8367,-7.840493340953328,-6.310307386737414,-3.997588354388354,-4.896116495679245,36.95699999999488
311860.8377,-9.687041030493745,-8.163462390355567,-7.456981333934814,-7.481370357638311,36.95799999998417
311860.8387,-11.249010330576988,-9.77942064519173,-10.78681954582642,-9.85849104651248,36.959000000031665
311860.8397,-12.512721124985974,-11.138731276333196,-13.958455384001152,-12.01481028402924,36.960000000020955
311860.8407,-13.478417648439125,-12.236704998793176,-16.949041257278697,-13.948723905962254,36.961000000010245
311860.8417,-14.161097437913547,-13.08452703952382,-19.741765032075417,-15.669918004639515,36.961999999999534
311860.8427,-14.589982382145903,-13.70883469649217,-22.325300538219693,-17.198447507890403,36.962999999988824
311860.8437,-14.806591257527337,-14.149708260808163,-24.692494920266817,-18.562657366252672,36.96400000003632
311860.8447,-14.861523949060626,-14.45719332556966,-26.838420715708857,-19.796070393282807,36.96500000002561
311860.8457,-14.810211201824645,-14.686634287924992,-28.7580156248908,-20.933491904776723,36.9660000000149
311860.8467,-14.708004759172235,-14.893235907039273,-30.443605141825138,-22.006685441614263,36.96700000000419
311860.8477,-14.605067808406861,-15.126367225834874,-31.882643042658383,-23.040043928285073,36.96799999999348
311860.8487,-14.54156504339182,-15.424169014906232,-33.056006154572955,-24.046707919050675,36.96899999998277
311860.8497,-14.543640271627053,-15.809016250682513,-33.937141034865896,-25.02556281612277,36.97000000003027
311860.8507,-14.620607457923372,-16.2843208387543,-34.49228384640096,-25.95948072790624,36.97100000001956
311860.8517,-14.763673775408183,-16.833042496966847,-34.68186776750615,-26.815065512264745,36.97200000000885
311860.8527,-14.946370739241532,-17.418118373118862,-34.46310526881526,-27.54402146851445,36.97299999999814
311860.8537,-15.12670568721698,-17.984839760787473,-33.79359860216927,-28.086110473114346,36.97399999998743
311860.8547,-15.250876960255276,-18.465015077333646,-32.63570512582443,-28.373504541612252,36.975000000034925
311860.8557,-15.258239063023817,-18.782580884080748,-30.961278561426777,-28.336196788624804,36.976000000024214
311860.8567,-15.087074796753331,-18.860174992302486,-28.756335067333023,-27.908018365190742,36.977000000013504
311860.8577,-14.680643188119685,-18.626082671843914,-26.025163143316384,-27.032734347368066,36.978000000002794
311860.8587,-13.992934356002884,-18.02091942843297,-22.793413783379126,-25.669665998867604,36.978999999992084
311860.8597,-12.993579698572264,-17.003427115200058,-19.109772226704003,-23.798313839800677,36.97999999998137
311860.8607,-11.671436986624123,-15.554833715733317,-15.045920610499685,-21.421533884965747,36.98100000002887
311860.8617,-10.036488830802202,-13.681354481863366,-10.694642898555061,-18.566941615230068,36.98200000001816
311860.8627,-8.119848539891985,-11.414581427329733,-6.166087164202716,-15.286373670139303,36.98300000000745
311860.8637,-5.971844930498075,-8.809703499701323,-1.5823707511350067,-11.653411515727754,36.98399999999674
311860.8647,-3.6583402620054044,-5.941702482906836,2.929124894915902,-7.759148100408744,36.98499999998603
311860.8657,-1.255605610311967,-2.8998603940140173,7.243286283470196,-3.706541011189595,36.98600000003353
311860.8667,1.155780823787243,0.21892555944296616,11.245044894333898,0.3961716763289525,36.98700000002282
311860.8677,3.4974485920294742,3.3174100828867044,14.836767227433057,4.442426675092288,36.98800000001211
311860.8687,5.699553464332623,6.305181526057561,17.94463062615198,8.334057378765014,36.9890000000014
311860.8697,7.706301760619845,9.105096868349227,20.52341825677985,11.987195335015642,36.98999999999069
311860.8707,9.480151778928743,11.658377606367797,22.559279540292742,15.336836481025998,36.991000000038184
311860.8717,11.004283618129584,13.927899999408723,24.07015898911573,18.339678019182667,36.992000000027474
311860.8727,12.28308898829233,15.899384063692798,25.103784118753634,20.974990094124067,36.993000000016764
311860.8737,13.3406182909702,17.58038570865114,25.733306090056267,23.2434677512622,36.994000000006054
311860.8747,14.217115934353837,18.99720652287751,26.050887439277762,25.164196150415624,36.99499999999534
311860.8757,14.963958190344771,20.190035893326527,26.159711898977598,26.77003808679675,36.99599999998463
311860.8767,15.637463381116536,21.206811156279585,26.165035517945036,28.101900888470592,36.99700000003213
311860.8777,16.29215678213389,22.09640679643999,26.164992572681786,29.202445608555156,36.99800000002142
311860.8787,16.97413129328222,22.90183109420993,26.241904842995837,30.109854914013155,36.99900000001071
311860.8797,17.715143665450793,23.65411133740127,26.4548145469201,30.852271900184995,37.0
311860.8807,18.528024551886965,24.367486207300356,26.833871049740797,31.443460376862294,37.00099999998929
311860.8817,19.403864289460337,25.036401918322362,27.37705640042641,31.880123564548256,37.00200000003679
311860.8827,20.31127575061102,25.634638552770575,28.04954683086689,32.141163115528734,37.00300000002608
311860.8837,21.19784572285146,26.11669083281713,28.78579255949867,32.18897836415539,37.00400000001537
311860.8847,21.99368476873703,26.421312443551873,29.494175072652798,31.97271369483204,37.00500000000466
311860.8857,22.616791223927482,26.476925345661662,30.06388885023932,31.43317780789617,37.005999999993946
311860.8867,22.97977606388891,26.20841496895929,30.373511652172947,30.508999606410686,37.006999999983236
311860.8877,22.99736756969598,25.544695843908535,30.30058975271703,29.143466171803208,37.008000000030734
311860.8887,22.59403991198333,24.426352976255515,29.73148359761464,27.29141981566253,37.00900000002002
311860.8897,21.711094798221797,22.812649537478688,28.57070184414444,24.92557966600815,37.01000000000931
311860.8907,20.31257139997454,20.687242550588437,26.748998535314165,22.041699499872028,37.0109999999986
311860.8917,18.389462378041017,18.062060302412842,24.229614472071702,18.66207301841466,37.01199999998789
311860.8927,15.961863182827626,14.978957601386096,21.012199715339822,14.837041018928563,37.01300000003539
311860.8937,13.078863863932103,11.508962444116188,17.13414540654934,10.644328525947559,37.01400000002468
311860.8947,9.816190393443442,7.749141683523827,12.669262726304861,6.186227814177705,37.01500000001397
311860.8957,6.271797716691934,3.8173240148885528,7.723956538474859,1.5848281779016626,37.01600000000326
311860.8967,2.5597915593278198,-0.1548934081076606,2.4312332191013173,-3.024341436597788,37.01699999999255
311860.8977,-1.1968052793304693,-4.030280273340002,-3.056959527548552,-7.499759875953313,37.01799999998184
311860.8987,-4.873835988113805,-7.674580824138668,-8.578450909733347,-11.701868887628953,37.01900000002934
311860.8997,-8.353701349715271,-10.964890678530901,-13.969955475240994,-15.500920593224764,37.02000000001863
311860.9007,-11.53234241100373,-13.79712922300152,-19.075903247047652,-18.784123543871146,37.021000000007916
311860.9017,-14.324974836369595,-16.092023792422484,-23.75637769472252,-21.46156635888699,37.021999999997206
311860.9027,-16.67016015842207,-17.799162379548097,-27.89365055498551,-23.470514200769298,37.022999999986496
311860.9037,-18.53195776659648,-18.898849133526095,-31.39694267898296,-24.777821391443403,37.02400000003399
311860.9047,-19.900078695080882,-19.40169432681139,-34.205203562175704,-25.380368955380554,37.02500000002328
311860.9057,-20.788141179406853,-19.346069088529095,-36.28787344055588,-25.303603108209167,37.02600000001257
311860.9067,-21.230291783734987,-18.793736479522263,-37.64375512465081,-24.598404215232673,37.02700000000186
311860.9077,-21.27658962624066,-17.82411780378731,-38.298263733156226,-23.336641704472314,37.02799999999115
311860.9087,-20.987642951140177,-16.527753282727904,-38.29942946176701,-21.605857965681135,37.02900000003865
311860.9097,-20.429029345235172,-14.999560937564361,-37.713093434918214,-19.503566477227878,37.03000000002794
311860.9107,-19.66602051919048,-13.33248377209856,-36.617755842004335,-17.131643905578933,37.03100000001723
311860.9117,-18.75907213594279,-11.612045861670966,-35.09950985684724,-14.591245061438295,37.03200000000652
311860.9127,-17.760435877919985,-9.912220853653277,-33.247429582500736,-11.978580137446222,37.03299999999581
311860.9137,-16.712116103176285,-8.292864332472492,-31.149684529271113,-9.381776056011423,37.0339999999851
311860.9147,-15.645241305795404,-6.798790426809462,-28.89053877237797,-6.8789110941762095,37.035000000032596
311860.9157,-14.580766956373436,-5.460400539804662,-26.548273296044623,-4.537178564732654,37.036000000021886
311860.9167,-13.531286898466744,-4.295615681819722,-24.19395853825654,-2.4130153565761217,37.037000000011176
311860.9177,-12.503619444826189,-3.3127392628801173,-21.890912883876712,-0.5529370578129014,37.038000000000466
311860.9187,-11.501762750005561,-2.513796640130165,-19.694621274338893,1.0052372488624661,37.038999999989755
311860.9197,-10.529788882691273,-1.8978688652271523,-17.652862069264845,2.2311049913361423,37.04000000003725
311860.9207,-9.59426937946155,-1.463963191844871,-15.805801476962772,3.1006547562902207,37.04100000002654
311860.9217,-8.705893961361996,-1.2130386208002764,-14.185860609378642,3.59574209919032,37.04200000001583
311860.9227,-7.8800507952386285,-1.1489224473204647,-12.81723386512189,3.7042187674289244,37.04300000000512
311860.9237,-7.136269459371651,-1.278000417700589,-11.715029030667374,3.420753557985688,37.04399999999441
311860.9247,-6.496572120942881,-1.6077226445218893,-10.884097235296478,2.7482626624682367,37.0449999999837
311860.9257,-5.982918557405346,-2.144122427946138,-10.31771195618791,1.6997548793598112,37.0460000000312
311860.9267,-5.614051114067346,-2.8886785628855356,-9.99632856966977,0.3003060090411963,37.04700000002049
311860.9277,-5.402133015746768,-3.8349487484748987,-9.88669943961128,-1.4111815824340388,37.04800000000978
311860.9287,-5.349617569007433,-4.965451277825633,-9.941627370003886,-3.3807959500830362,37.04899999999907
311860.9297,-5.446781118309435,-6.249268124603974,-10.100609581507591,-5.53934435243147,37.04999999998836
311860.9307,-5.670298691142178,-7.640784324398842,-10.291556760992025,-7.803259652579096,37.051000000035856
311860.9317,-5.983142852067668,-9.079871362814155,-10.433673064119144,-10.076843761721785,37.052000000025146
311860.9327,-6.3359529513785455,-10.49367656463617,-10.441462883969216,-12.255874340522817,37.053000000014435
311860.9337,-6.669867133248025,-11.80001088998404,-10.22970119880098,-14.232454329020252,37.054000000003725
311860.9347,-6.920649110751952,-12.912151503674806,-9.719080357707256,-15.900839032614845,37.054999999993015
311860.9357,-7.023792663183722,-13.744711406745493,-8.842141266259004,-17.163847995623424,37.055999999982305
311860.9367,-6.920165060958318,-14.22009382530518,-7.549023630227562,-17.939372982475,37.0570000000298
311860.9377,-6.561669653410471,-14.274958754397593,-5.812537882676296,-18.166440481679096,37.05800000001909
311860.9387,-5.916377193976207,-13.866093599881118,-3.632076381715811,-17.81028461322424,37.05900000000838
311860.9397,-4.9725996666766505,-12.975104392984017,-1.0359444935123536,-16.86593661866954,37.05999999999767
311860.9407,-3.7414584363261048,-11.611427715658497,1.9182005370322643,-15.359937453141441,37.06099999998696
311860.9417,-2.257623998512217,-9.813299429411945,5.144971879223171,-13.34992251252765,37.06200000003446
311860.9427,-0.5780660801812901,-7.646492339062205,8.534938770177272,-10.921999970048283,37.06300000002375
311860.9437,1.2211648406472664,-5.200834638907116,11.960202320640438,-8.18603107876748,37.06400000001304
311860.9447,3.049917864034626,-2.584725368484269,15.281520451569447,-5.269104870241667,37.06500000000233
311860.9457,4.810306198496906,0.08194761272190013,18.35649669490909,-2.3076635850579668,37.06599999999162
311860.9467,6.40393898258598,2.6759260074407725,21.048241080570072,0.5611368850566287,37.06699999998091
311860.9477,7.73940992612712,5.079068299217556,23.23385352780289,3.2081679777867276,37.068000000028405
311860.9487,8.739394235845536,7.186492103390446,24.81207774845494,5.520485025149615,37.069000000017695
311860.9497,9.346727287140014,8.913677309368918,25.709528338272392,7.408251481525538,37.070000000006985
311860.9507,9.528919407704704,10.201919694444614,25.885001909035836,8.809878637802939,37.070999999996275
311860.9517,9.280694141586629,11.0216662900413,25.331536192520044,9.694974470655614,37.071999999985565
311860.9527,8.624310604461154,11.373450316222497,24.076066078668042,10.064878711374714,37.07300000003306
311860.9537,7.607628198711786,11.28635791884896,22.17672635594392,9.950766165026106,37.07400000002235
311860.9547,6.300075715462413,10.814181380052514,19.718049530879973,9.40950849189658,37.07500000001164
311860.9557,4.786877625576248,10.029623116157394,16.804485396126474,8.517677292187765,37.07600000000093
311860.9567,3.162050107489071,9.01709184771817,13.55281041861113,7.364230847008713,37.07699999999022
311860.9577,1.520792795109771,7.8647599652213565,10.084086096553307,6.042538560956997,37.07800000003772
311860.9587,-0.04804168765585341,6.6566170096296,6.515857219205612,4.642450574099096,37.07900000002701
311860.9597,-1.4687253243130705,5.465251778485562,2.9552498923076644,3.2431099772896688,37.0800000000163
311860.9607,-2.68407421031475,4.346024709450555,-0.5064624571707254,1.9071321808229085,37.08100000000559
311860.9617,-3.659031327035183,3.333159209256431,-3.797401103991562,0.6766466458823046,37.08199999999488
311860.9627,-4.382105714208926,2.4380977245837796,-6.866491800690556,-0.42847797530980447,37.08299999998417
311860.9637,-4.864562209374452,1.6502526151226744,-9.682708272580738,-1.4101074008675234,37.084000000031665
311860.9647,-5.1374674498780974,0.9400535057784442,-12.232324842460702,-2.28910965955464,37.085000000020955
311860.9657,-5.246899947311656,0.263973273102214,-14.514546396716453,-3.100717448829777,37.086000000010245
311860.9667,-5.247805614058852,-0.42897507772583693,-16.536041572532007,-3.888461277492942,37.086999999999534
311860.9677,-5.197108607275927,-1.1899206255457004,-18.305012235621838,-4.697281777572586,37.087999999988824
311860.9687,-5.146758399185526,-2.0627267982455266,-19.82547833145443,-5.566505080694664,37.08900000003632
311860.9697,-5.1374006094312135,-3.0772365447715497,-21.0924370555,-6.523377192398038,37.09000000002561
311860.9707,-5.193300450316019,-4.243854751687006,-22.088470287205247,-7.577800792212908,37.0910000000149
311860.9717,-5.31902894340328,-5.550028660622378,-22.7822318652583,-8.71880576741677,37.09200000000419
311860.9727,-5.498254397404335,-6.9590099136558745,-23.129059608122525,-9.913123524973702,37.09299999999348
311860.9737,-5.694780725296035,-8.411067780730354,-23.073743440080285,-11.106039745489971,37.09399999998277
311860.9747,-5.855758973560717,-9.827092226324462,-22.555260761395736,-12.224488908328315,37.09500000003027
311860.9757,-5.916789303682132,-11.114299473310249,-21.513084344357313,-13.182146212753144,37.09600000001956
311860.9767,-5.808447438296778,-12.173552874205459,-19.894496427477023,-13.88608760384914,37.09700000000885
311860.9777,-5.463629659025374,-12.907656964921179,-17.66222211974999,-14.244443413375663,37.09799999999814
311860.9787,-4.825027110827344,-13.229887037189028,-14.801637795612361,-14.17437876410555,37.09899999998743
311860.9797,-3.852021338030203,-13.071989258377894,-11.326822021860202,-13.609702460630102,37.100000000034925
311860.9807,-2.5263404239488976,-12.390929653539986,-7.284797329322901,-12.507437954416792,37.101000000024214
311860.9817,-0.855924308799596,-11.17377983346451,-2.757453909819167,-10.852781564164632,37.102000000013504
311860.9827,1.1233915449251481,-9.440292663375184,2.1391617151870697,-8.662015370875494,37.103000000002794
311860.9837,3.3485681778813676,-7.242926389512236,7.258286296512468,-5.983121405477948,37.103999999992084
311860.9847,5.732410442350521,-4.664301691378471,12.428465938396203,-2.894042970671362,37.10499999998137
311860.9857,8.168737187418552,-1.8123015474304383,17.46180193568275,0.5012603463179591,37.10600000002887
311860.9867,10.539252086259257,1.1867722044891702,22.16385518605493,4.07863355706366,37.10700000001816
311860.9877,12.721542675730017,4.196407802073475,26.344501404302335,7.700942065115853,37.10800000000745
311860.9887,14.597538172839222,7.078770938735927,29.828943440746873,11.22609706405481,37.10899999999674
311860.9897,16.061721216721434,9.703538246585097,32.46806882437306,14.515255523435634,37.10999999998603
311860.9907,17.028417366152976,11.955966277365693,34.1473910079449,17.44056767677507,37.11100000003353
311860.9917,17.43757541838598,13.74357084492095,34.79392626430741,19.891908051851413,37.11200000002282
311860.9927,17.25859223701378,15.000931525577611,34.38052378416584,21.78213683460752,37.11300000001211
311860.9937,16.49191394692943,15.692316258922979,32.927368867701226,23.05058488686619,37.1140000000014
311860.9947,15.168343948137718,15.81202355823632,30.500599927481144,23.664623154126133,37.11499999999069
311860.9957,13.346188473239819,15.38254525196577,27.208199942866354,23.619349062263897,37.116000000038184
311860.9967,11.106553794738865,14.450841477096366,23.193523294491715,22.93558242803053,37.117000000027474
311860.9977,8.547259026152503,13.08317435186467,18.62698313864132,21.656496640750373,37.118000000016764
311860.9987,5.775931563115177,11.359053512720218,13.696539930195593,19.843305663760646,37.119000000006054
311860.9997,2.902900039002749,9.36489655496029,8.597690350438333,17.57047608660759,37.11999999999534
311861.0007,0.03448908059973745,7.18799711025792,3.523654984933135,14.920933108054536,37.12099999998463
311861.0017,-2.7327463848268354,4.911325500883565,-1.3435948006446496,11.98168195619333,37.12200000003213
311861.0027,-5.316424227676139,2.6095698921663275,-5.8409377278723085,8.840178510106227,37.12300000002142
311861.0037,-7.651103208893109,0.3466725882415015,-9.829943454045157,5.581665332216045,37.12400000001071
311861.0047,-9.68931473290211,-1.8250570858450763,-13.200734341027731,2.2875552850650065,37.125
311861.0057,-11.400931274602563,-3.8643469588490853,-15.873825161912324,-0.9651908817316736,37.12599999998929
311861.0067,-12.7711049506066,-5.739135920895187,-17.800065153694693,-4.103869516173372,37.12700000003679
311861.0077,-13.79714078215509,-7.423897171199414,-18.95895087643307,-7.059295211688568,37.12800000002608
311861.0087,-14.484758580138308,-8.896572666815407,-19.355687098540823,-9.764852765459427,37.12900000001537
311861.0097,-14.84423709241405,-10.135610329293883,-19.01743814629531,-12.155693444639367,37.13000000000466
