TimeStamp,ECR,FCR,ECU,FCU,time_index
311849.8797,20.89347503018233,39.386553588099254,24.37852298895401,-1.5450062758083747,26.0
311849.8807,13.826424992034157,31.031160056156992,19.46482496175976,-19.327605130008983,26.00099999998929
311849.8817,6.7627955850290835,22.42541273342466,14.393707259168032,-36.47948878978451,26.002000000036787
311849.8827,-0.04310922557619315,13.886969403493538,9.37344931674057,-52.412720667441874,26.003000000026077
311849.8837,-6.366688267373236,5.708299899522294,4.591718039455346,-66.60265435750105,26.004000000015367
311849.8847,-12.022800032341195,-1.8563607090473657,0.2066746874720001,-78.60918358363814,26.005000000004657
311849.8857,-16.872696009731406,-8.601215002674905,-3.6595795867465952,-88.093414991977,26.005999999993946
311849.8867,-20.827828553820105,-14.375793643523265,-6.924906836484257,-94.82902503153706,26.006999999983236
311849.8877,-23.850467594661747,-19.088316572158504,-9.548280276205075,-98.70788312324288,26.008000000030734
311849.8887,-25.951289643730476,-22.705560700204714,-11.528279234095503,-99.73985691597642,26.009000000020023
311849.8897,-27.184306460070914,-25.249503104531797,-12.8992195973641,-98.0470399129113,26.010000000009313
311849.8907,-27.639664182704706,-26.79120535572655,-13.725360886157562,-93.85293688319099,26.010999999998603
311849.8917,-27.434955529971727,-27.442551144240117,-14.093739332549527,-87.46739088316129,26.011999999987893
311849.8927,-26.70574152155332,-27.346537314101912,-14.10623373196274,-79.26822403635413,26.01300000003539
311849.8937,-25.59597405718746,-26.666844806443933,-13.871475560238823,-69.68068393850889,26.01400000002468
311849.8947,-24.248950737645096,-25.577383464349605,-13.49716974132786,-59.1558354288178,26.01500000001397
311849.8957,-22.799327354554322,-24.252420907724673,-13.083304602389758,-48.14901558205575,26.01600000000326
311849.8967,-21.36657405351126,-22.857782729324615,-12.716609567380956,-37.09938510870541,26.01699999999255
311849.8977,-20.050103296545316,-21.543463989250096,-12.466480058668456,-26.4114729538127,26.01799999998184
311849.8987,-18.926137389977846,-20.437836644883745,-12.382445091159939,-16.43943671970665,26.019000000029337
311849.8997,-18.046235877764815,-19.64349007372666,-12.493118112052242,-7.474565086504709,26.020000000018626
311849.9007,-17.437281822049385,-19.234616230708205,-12.806458138241725,0.2636547825964622,26.021000000007916
311849.9017,-17.10264086212545,-19.255757944199182,-13.311085797692838,6.6327775504825786,26.021999999997206
311849.9027,-17.02416369188666,-19.72168483710691,-13.97835348205666,11.56899685383718,26.022999999986496
311849.9037,-17.164702271024463,-20.61814801388814,-14.764862314831761,15.085297126342926,26.024000000033993
311849.9047,-17.470849070100826,-21.9032888456366,-15.615148649695197,17.26647423170466,26.025000000023283
311849.9057,-17.875679152064077,-23.50953149200427,-16.464323056431233,18.26142198341106,26.026000000012573
311849.9067,-18.301365847214537,-25.3458624561234,-17.24052577094422,18.273133657718777,26.027000000001863
311849.9077,-18.661639073267057,-27.30048065225173,-17.867152793400436,17.546893822951894,26.027999999991152
311849.9087,-18.86414726644619,-29.243874781637334,-18.26489376422657,16.35714299674371,26.02900000003865
311849.9097,-18.812856607572154,-31.03243884642332,-18.353694495165257,14.99349316114356,26.03000000002794
311849.9107,-18.41066428065563,-32.51276140260536,-18.05480351051651,13.746362820334591,26.03100000001723
311849.9117,-17.56240899317605,-33.5267133143789,-17.29307613927122,12.892691327978735,26.03200000000652
311849.9127,-16.178429453046085,-33.9174104343627,-15.99968849599051,12.682186574846218,26.03299999999581
311849.9137,-14.178752296238628,-33.53604470971854,-14.115358383992886,13.324558013698333,26.0339999999851
311849.9147,-11.497892122923156,-32.24946723424657,-11.594086378543446,14.97818586841804,26.035000000032596
311849.9157,-8.090128840919919,-29.948281177745134,-8.407327521432286,17.740672358239568,26.036000000021886
311849.9167,-3.9350052592857705,-26.555075533118487,-4.548394384707826,21.641705440392144,26.037000000011176
311849.9177,0.9573240472331586,-22.03231770927482,-0.036789376033222715,26.638632991811726,26.038000000000466
311849.9187,6.541348408121587,-16.389339258711242,5.077918397285972,32.61508920565524,26.038999999989755
311849.9197,12.73256604621356,-9.687807518452606,10.713106688320751,39.38293071648898,26.040000000037253
311849.9207,19.40546499446376,-2.045086203663476,16.751448155065464,46.68762571590776,26.041000000026543
311849.9217,26.39357641309403,6.3650450897994695,23.040999822978815,54.21709651080263,26.042000000015832
311849.9227,33.49195499071675,15.314719412621434,29.39735717688791,61.61384959574992,26.043000000005122
311849.9237,40.46229318306492,24.52759267035458,35.608070126932354,68.49004574410607,26.043999999994412
311849.9247,47.04069229011286,33.68775689043121,41.43935866292826,74.44497711890581,26.044999999983702
311849.9257,52.94790807092486,42.45174220576966,46.64498560166585,79.08424222364735,26.0460000000312
311849.9267,57.90167876148528,50.46315266069904,50.9769575565973,82.03975683228781,26.04700000002049
311849.9277,61.63054727751315,57.36925566229625,54.19754954051571,82.98962372596752,26.04800000000978
311849.9287,63.88842499144189,62.838654717455334,56.091999714960906,81.67681842027439,26.04899999999907
311849.9297,64.46902775007736,66.57903779010485,56.48111335569553,77.92564163115613,26.04999999998836
311849.9307,63.21925828161258,68.353923262308,55.23296073586774,71.65494775964412,26.051000000035856
311849.9317,60.05062069176123,67.99733110530161,52.27285981312276,62.88728339096537,26.052000000025146
311849.9327,54.94783470842503,65.42539146473874,47.59090386221317,51.75325694063113,26.053000000014435
311849.9337,47.973966121129735,60.64406297081356,41.24642368552508,38.490701352262725,26.054000000003725
311849.9347,39.27159608482936,53.75235885462659,33.36895563760653,23.438472717844466,26.054999999993015
311849.9357,29.05980104913352,44.94075481930469,24.15550754532553,7.0250315429881285,26.055999999982305
311849.9367,17.626988405564823,34.48475846030647,13.864158060545567,-10.24773988202461,26.057000000029802
311849.9377,5.319909356778913,22.73393280034276,2.804272020953523,-27.82474212311333,26.058000000019092
311849.9387,-7.47057187560128,10.096962140001557,-8.676154763436232,-45.12089398265567,26.059000000008382
311849.9397,-20.326155228632445,-2.9763960603059556,-20.20531200040557,-61.54621546566676,26.05999999999767
311849.9407,-32.81926992729325,-16.015434026042556,-31.403698485100772,-76.53145541089637,26.06099999998696
311849.9417,-44.531677782119075,-28.54953140974237,-41.90061639237758,-89.55292258803912,26.06200000003446
311849.9427,-55.07245019057579,-40.12891108187612,-51.35008688266796,-100.1552255046185,26.06300000002375
311849.9437,-64.09431662774116,-50.3439642279647,-59.44529401781127,-107.97075404172766,26.06400000001304
311849.9447,-71.30751525096218,-58.84212353141346,-65.93078414460041,-112.73493577081084,26.06500000000233
311849.9457,-76.49046735200207,-65.34145780348938,-70.61182062050887,-114.29655634464575,26.065999999991618
311849.9467,-79.4968296802527,-69.64040525379534,-73.36050342738905,-112.62272750754326,26.066999999980908
311849.9477,-80.25873193168285,-71.6233341675605,-74.11849136826969,-107.79839639286936,26.068000000028405
311849.9487,-78.78625957598001,-71.26189595946812,-72.89639161333253,-100.02059370214434,26.069000000017695
311849.9497,-75.16347415101812,-68.61239392519785,-69.77008860127586,-89.58789532360166,26.070000000006985
311849.9507,-69.54145641019825,-63.809611784887906,-64.87445554317755,-76.88580434077915,26.070999999996275
311849.9517,-62.12899882986234,-57.05771414008786,-58.39501492888067,-62.368935154526405,26.071999999985565
311849.9527,-53.181655014674185,-48.61893693253189,-50.558182549944476,-46.540991016385746,26.073000000033062
311849.9537,-42.9898725619531,-38.800827089549635,-41.62074132691034,-29.93356887398293,26.07400000002235
311849.9547,-31.866897020626045,-27.942770415522315,-31.859150921647718,-13.08480482696512,26.07500000001164
311849.9557,-20.13704706502315,-16.402474816023513,-21.55921587070065,3.48120182107411,26.07600000000093
311849.9567,-8.124838343251374,-4.542965895344152,-11.006521628026473,19.27336598521439,26.07699999999022
311849.9577,3.8547084249535164,7.279479742546799,-0.47791941532337245,33.850322651777795,26.07800000003772
311849.9587,15.504384066346985,18.726174490482506,9.765787531228057,46.834349584079526,26.07900000002701
311849.9597,26.551673068481144,29.485469300865418,19.485917917689225,57.922158282321796,26.080000000016298
311849.9607,36.75424850190894,39.2807507274678,28.470797190232194,66.8923584093444,26.081000000005588
311849.9617,45.904199829119825,47.8769932584287,36.53956070560465,73.60953806968827,26.081999999994878
311849.9627,53.83114901512751,55.085909954758016,43.54500520562797,78.02501894278981,26.082999999984168
311849.9637,60.40440956331025,60.76974719186526,49.37560875906343,80.1744407809774,26.084000000031665
311849.9647,65.53431203326056,64.84374658931613,53.956803877415226,80.17240645008324,26.085000000020955
311849.9657,69.1727677253624,67.2772594332431,57.25153700779196,78.20448066987103,26.086000000010245
311849.9667,71.31308131301753,68.09345843734161,59.260091531555695,74.51688786068843,26.086999999999534
311849.9677,71.9889658006379,67.36756116388807,60.01910255465095,69.40430166042955,26.087999999988824
311849.9687,71.27267097757867,65.22346993236086,59.59966077746352,63.19616406009784,26.08900000003632
311849.9697,69.27211890246132,61.82875263265012,58.10439764175438,56.242016963460266,26.09000000002561
311849.9707,66.12695275386393,57.387941391809996,55.66346922293251,48.89637208046776,26.0910000000149
311849.9717,62.00345019442435,52.13421054341776,52.42941217149192,41.503682724275045,26.09200000000419
311849.9727,57.08832622276465,46.31960595103673,48.570927219639536,34.384007567035326,26.09299999999348
311849.9737,51.58154604656458,40.204124220515396,44.26574615971322,27.819964748746035,26.09399999998277
311849.9747,45.68837502395322,34.044069197104236,39.69284543833851,22.04555779147125,26.095000000030268
311849.9757,39.610997163170474,28.080229096358217,35.02437041351642,17.237406465877076,26.096000000019558
311849.9767,33.540122314822646,22.52650534931162,30.417715413185213,13.50883224493012,26.097000000008848
311849.9777,27.64706228283195,17.559670230994957,26.00825388194653,10.907128640315596,26.097999999998137
311849.9787,22.07677743874642,13.310924530542994,21.903220860460817,9.414194777919231,26.098999999987427
311849.9797,16.942371770354434,9.859863652151748,18.177211686407603,8.950533258519098,26.100000000034925
311849.9807,12.321444138002692,7.231340980281726,14.869675918247221,9.382421531341988,26.101000000024214
311849.9817,8.254590474922608,5.395547329072318,11.984658963756214,10.531873310424317,26.102000000013504
311849.9827,4.7462042183904485,4.271416501807629,9.492885379507364,12.188828109533938,26.103000000002794
311849.9837,1.7675528690786244,3.73323552908898,7.336100727879147,14.12485785256997,26.103999999992084
311849.9847,-0.738067568028357,3.620103101686259,5.433409094843873,16.10757320673536,26.104999999981374
311849.9857,-2.8484650895021466,3.7476612752869185,3.689177539563099,17.914859188646258,26.10600000002887
311849.9867,-4.654477225318824,3.9213431224257915,2.0019426163028995,19.348075897830878,26.10700000001816
311849.9877,-6.251297963416039,3.9502494293134225,0.27366095047842526,20.243427205922142,26.10800000000745
311849.9887,-7.729867597006612,3.6607033436299905,-1.5813948411987633,20.480824019048153,26.10899999999674
311849.9897,-9.16898533992282,2.908540216424234,-3.628777001964115,19.98974066528652,26.10999999998603
311849.9907,-10.62874726301804,1.5892717694082115,-5.9076487932134585,18.751770312376276,26.111000000033528
311849.9917,-12.145803476723303,-0.35458610429626175,-8.426699326004748,16.799812427300967,26.112000000022817
311849.9927,-13.730777444507222,-2.9295253027943704,-11.162503691845213,14.214054893808001,26.113000000012107
311849.9937,-15.368009651727741,-6.090652417945621,-14.060450480044905,11.115128115909833,26.114000000001397
311849.9947,-17.017593119809032,-9.74487649992544,-17.038152771819377,7.654992158465491,26.114999999990687
311849.9957,-18.619476386421635,-13.757395243308574,-19.991058743459522,4.006257196799814,26.116000000038184
311849.9967,-20.09923741028365,-17.960951772904632,-22.79980122884175,0.3507223858943193,26.117000000027474
311849.9977,-21.374994648433145,-22.16713213929121,-25.33868725872304,-3.132056796154423,26.118000000016764
311849.9987,-22.364831560690995,-26.178831647341816,-27.484640762819488,-6.275398398710142,26.119000000006054
311849.9997,-22.994076171101383,-29.802947921040968,-29.125882026279125,-8.934639143685166,26.119999999995343
311850.0007,-23.201801302333106,-32.8623656669646,-30.16965882025538,-10.994253792535897,26.120999999984633
311850.0017,-22.945991663901534,-35.20638123221837,-30.548433710045344,-12.372584911818779,26.12200000003213
311850.0027,-22.20695391219146,-36.718866401590155,-30.224072030583482,-13.02401821745388,26.12300000002142
311850.0037,-20.988713306778113,-37.32367660777346,-29.189753001510407,-12.938643225938913,26.12400000001071
311850.0047,-19.31833028337786,-36.987050263930904,-27.46952653242522,-12.139632550856986,26.125
311850.0057,-17.243264574555393,-35.717001647092665,-25.11564245629882,-10.67874040043838,26.12599999998929
311850.0067,-14.827095294465469,-33.559956977945546,-22.20396878836272,-8.630448475225403,26.127000000036787
311850.0077,-12.144055677863314,-30.595100399977497,-18.827973970374966,-6.085365721383908,26.128000000026077
311850.0087,-9.272946739435888,-26.927064825260175,-15.091860657652619,-3.1435116697718977,26.129000000015367
311850.0097,-6.291045003338193,-22.67770817846444,-11.103495447071195,0.09191948198595626,26.130000000004657
311850.0107,-3.2686108391500914,-17.977750495790968,-6.96777528470801,3.519801336076445,26.130999999993946
311850.0117,-0.2645366991774673,-12.959010309552033,-2.7810080936479777,7.044939447055258,26.131999999983236
311850.0127,2.6764448458026684,-7.747875107724437,1.3732310148099756,10.580331302371047,26.133000000030734
311850.0137,5.52473348372616,-2.460481773027844,5.426464242065327,14.047771545359911,26.134000000020023
311850.0147,8.26493967162792,2.8001149820692577,9.325776453374942,17.37692720549783,26.135000000009313
311850.0157,10.893188211532584,7.944725552082625,13.032453939823936,20.5031671091993,26.135999999998603
311850.0167,13.412948347317496,12.896915087209484,16.519051936252083,23.364558701337412,26.136999999987893
311850.0177,15.829846323662641,17.590349397998363,19.765302275696243,25.898532681930966,26.13800000003539
311850.0187,18.14602810480569,21.96510113498923,22.753387420202714,28.038753482276064,26.13900000002468
311850.0197,20.354698280681777,25.96352102226992,25.463170334735715,29.71271846468312,26.14000000001397
311850.0207,22.435460327139054,29.526317129678038,27.86797566075198,30.840542283556307,26.14100000000326
311850.0217,24.351022973754077,32.58945781226271,29.931466055838253,31.335270989394722,26.14199999999255
311850.0227,26.045722482925818,35.08242401182528,31.606053240050468,31.10492295237202,26.14299999998184
311850.0237,27.44615105624502,36.92819273030289,32.83313573754973,30.056283289170278,26.144000000029337
311850.0247,28.463991242874343,38.04514910923733,33.545277799932,28.100299895140402,26.145000000018626
311850.0257,29.00095178817962,38.35091679238135,33.67025240953097,25.158757883021067,26.146000000007916
311850.0267,28.95549984090985,37.76788439853228,33.1366826831313,21.17176025058581,26.146999999997206
311850.0277,28.2309056790053,36.230009816864865,31.88084732704157,16.105429395305062,26.147999999986496
311850.0287,26.74397528842734,33.69032232692519,29.854082330033776,9.95917746591226,26.149000000033993
311850.0297,24.433756348416864,30.128431121038624,27.030125237455803,2.771880734234156,26.150000000023283
311850.0307,21.26947333989215,25.557299323667817,23.411718601101263,-5.373662809573924,26.151000000012573
311850.0317,17.25698146072788,20.02856136839319,19.035819312866057,-14.348514228408145,26.152000000001863
311850.0327,12.44312519706691,13.635748870299473,13.976849172580968,-23.977986321126174,26.152999999991152
311850.0337,6.917538720623988,6.514939939948501,8.347562793446778,-34.04483562658811,26.15400000003865
311850.0347,0.811619770945484,-1.1574526416713775,2.297290751042719,-44.29523138149658,26.15500000002794
311850.0357,-5.705369656805091,-9.1698046806921,-3.992476121117975,-54.44726272935109,26.15600000001723
311850.0367,-12.432892353042819,-17.283117891501476,-10.314978642973502,-64.20154092872934,26.15700000000652
311850.0377,-19.148012360690796,-25.241135116674577,-16.447167847262442,-73.25327857140051,26.15799999999581
311850.0387,-25.615968187910106,-32.782089375761494,-22.16020164735921,-81.30509894514351,26.1589999999851
311850.0397,-31.601710958368997,-39.651285394380274,-27.230756038467852,-88.07975816746276,26.160000000032596
311850.0407,-36.881594668854454,-45.6136211390462,-31.452368619787066,-93.33195821102709,26.161000000021886
311850.0417,-41.25439249267514,-50.46514164828859,-34.64601768704589,-96.85849228668681,26.162000000011176
311850.0427,-44.55086933701318,-54.042780990573554,-36.66919185556527,-98.50609090637577,26.163000000000466
311850.0437,-46.64126210418459,-56.23158608830989,-37.422819417580754,-98.17651699143916,26.163999999989755
311850.0447,-47.44019486214531,-56.96891698916465,-36.855594045197286,-95.82867612059935,26.165000000037253
311850.0457,-46.90877088307904,-56.24536442606717,-34.96543974193676,-91.4777441088184,26.166000000026543
311850.0467,-45.053818054867016,-54.10239515592837,-31.79808514813643,-85.19154723216809,26.167000000015832
311850.0477,-41.92449735451942,-50.627004098828095,-27.44294534839308,-77.08463924471516,26.168000000005122
311850.0487,-37.60669475074714,-45.943895054456654,-22.026717881244736,-67.31068466597662,26.168999999994412
311850.0497,-32.21578593189255,-40.205906315634394,-15.70527002578669,-56.05386448099428,26.169999999983702
311850.0507,-25.88847533029527,-33.583525819653225,-8.654511391372475,-43.52005879816123,26.1710000000312
311850.0517,-18.774456067970064,-26.254390791295737,-1.0609990661187212,-29.928528143121525,26.17200000002049
311850.0527,-11.028612063475805,-18.393634784046487,6.886992209330124,-15.50471485099868,26.17300000000978
311850.0537,-2.8043907557750907,-10.165834181490936,15.007282998240953,-0.4746289528051637,26.17399999999907
311850.0547,5.75117563732427,-1.7191277510647283,23.129971357418416,14.938914912861879,26.17499999998836
311850.0557,14.500515455821478,6.818145552684058,31.101651616433262,30.518161689085968,26.176000000035856
311850.0567,23.31656085019186,15.338201181649257,38.787543513646405,46.05055081737159,26.177000000025146
311850.0577,32.08193803245934,23.752124915094747,46.07161656684643,61.32748616652469,26.178000000014435
311850.0587,40.68665130442893,31.986154728700704,52.854989663371,76.14225782586752,26.179000000003725
311850.0597,49.024765734661436,39.97652376436439,59.05304609187878,90.28772818359431,26.179999999993015
311850.0607,56.99069634634562,47.663587060409945,64.59181445526907,103.55442414874118,26.180999999982305
311850.0617,64.47574963295098,54.986007740151585,69.40421614356755,115.7296381505845,26.182000000029802
311850.0627,71.36553272257161,61.875752954865014,73.42676646587591,126.59803687192786,26.183000000019092
311850.0637,77.53874996044175,68.25454981404815,76.59724170694001,135.9441189558485,26.184000000008382
311850.0647,82.86775588739172,74.03228783565841,78.85369689792353,143.55666665133603,26.18499999999767
311850.0657,87.2210427743365,79.1076441650515,80.13505267501908,149.23512049336276,26.18599999998696
311850.0667,90.46762910397698,83.37097224020707,80.383281599275,152.79759122269496,26.18700000003446
311850.0677,92.48310370968224,86.7092571014925,79.5470339705665,154.09002948278726,26.18800000002375
311850.0687,93.15688962798897,89.0127243050523,77.58636970932132,152.99591945187257,26.18900000001304
311850.0697,92.40014090748598,90.18251508165841,74.47812362930868,149.445761786764,26.19000000000233
311850.0707,90.15358952578983,90.13872425661387,70.22134016331714,143.425573424293,26.190999999991618
311850.0717,86.39462774417602,88.82804988947086,64.84217927350254,134.98366057115805,26.191999999980908
311850.0727,81.14294700172807,86.23032821109211,58.39772117423256,124.23501436047677,26.193000000028405
311850.0737,74.46415463890159,82.36332084839032,50.97818099979977,111.3628282730893,26.194000000017695
311850.0747,66.47094500106122,77.28527362098009,42.707177433949845,96.61682974007728,26.195000000006985
311850.0757,57.321597225837344,71.09496199606272,33.73986857846327,80.30833886703748,26.195999999996275
311850.0767,47.21578987200298,63.92915833831386,24.258957481762792,62.80219621507701,26.196999999985565
311850.0777,36.387942082858544,55.95767915973493,14.468760412855158,44.50591972979481,26.198000000033062
311850.0787,25.098491721648568,47.37637552989859,4.5877047097625425,25.856640066957635,26.19900000002235
311850.0797,13.623684319026644,38.39859764586102,-5.1602368685435795,7.306508332101208,26.20000000001164
311850.0807,2.244557887234318,29.245780196099396,-14.554575280267699,-10.692640610993655,26.20100000000093
311850.0817,-8.764142034265067,20.137848802146763,-23.38716049818157,-27.704558694061266,26.20199999999022
311850.0827,-19.14439899472426,11.284135869565757,-31.470247295272326,-43.323013223063356,26.20300000003772
311850.0837,-28.66407490446336,2.875419437605445,-38.64323390689516,-57.18468928800913,26.20400000002701
311850.0847,-37.124266086967,-4.922430036761187,-44.77766227046201,-68.98002003883838,26.205000000016298
311850.0857,-44.36453337572722,-11.972878582337493,-49.78023020945916,-78.46156932102544,26.206000000005588
311850.0867,-50.26586888565558,-18.171107681805374,-53.593746579646165,-85.44977693458625,26.206999999994878
311850.0877,-54.7514599172409,-23.444411013394785,-56.196141845112926,-89.83606010313314,26.207999999984168
311850.0887,-57.785491031026844,-27.75085302048755,-57.59781064433495,-91.58342882122612,26.209000000031665
311850.0897,-59.370371017045876,-31.07657518708768,-57.83769337961932,-90.7249034518591,26.210000000020955
311850.0907,-59.542868519848476,-33.432229466744396,-56.978588033348075,-87.36011019252551,26.211000000010245
311850.0917,-58.3696800045231,-34.84905509866809,-55.10221349613523,-81.65046875039315,26.211999999999534
311850.0927,-55.94293425783178,-35.37509259367139,-52.30451961096505,-73.81337711337001,26.212999999988824
311850.0937,-52.37606276588962,-35.071950853218304,-48.691660738784385,-64.11574625593518,26.21400000003632
311850.0947,-47.80034503676233,-34.01241997272855,-44.37692827951289,-52.86715304849548,26.21500000002561
311850.0957,-42.36228697166434,-32.27906791217547,-39.47878707622281,-40.41277589813158,26.2160000000149
311850.0967,-36.22182664395213,-29.963791822966297,-34.11999783913623,-27.12616983017414,26.21700000000419
311850.0977,-29.551204481078784,-27.16813369925056,-28.427650716037082,-13.401840967935932,26.21799999999348
311850.0987,-22.534202215579246,-24.00403377242044,-22.53380127652279,0.35249178426467576,26.21899999998277
311850.0997,-15.365362673344501,-20.5945995986522,-16.576304321157814,13.72409713530707,26.220000000030268
311850.1007,-8.248761695149478,-17.074425630407205,-10.699393868892722,26.304038887642893,26.221000000019558
311850.1017,-1.3959198655422873,-13.589013150344295,-5.0535650592895545,37.69668842994204,26.222000000008848
311850.1027,4.977485269771073,-10.292913507167558,0.20562453332526293,47.52995381914821,26.222999999998137
311850.1037,10.656322787872528,-7.346342177636347,4.920106269970257,55.466119622629016,26.223999999987427
311850.1047,15.432183023834462,-4.910175323217354,8.933328333417608,61.213055309691164,26.225000000034925
311850.1057,19.110895650998962,-3.1394279468907924,12.095712578211668,64.53540941949487,26.226000000024214
311850.1067,21.521077676836043,-2.1755045430976447,14.271315484821683,65.26527806973303,26.227000000013504
311850.1077,22.523228268424628,-2.13768952764969,15.345303080776251,63.31173541531868,26.228000000002794
311850.1087,22.018752329868814,-3.1144871219586197,15.231713389066664,58.66855440304626,26.228999999992084
311850.1097,19.95820950464264,-5.155513071354199,13.880886945170785,51.41943935433121,26.229999999981374
311850.1107,16.34806045139365,-8.264672370614365,11.28590651000024,41.74014394841363,26.23100000002887
311850.1117,11.255222999783802,-12.395322345408674,7.487406687162801,29.89696037930082,26.23200000001816
311850.1127,4.808856270398018,-17.448019373637415,2.5761927278385537,16.241233732444517,26.23300000000745
311850.1137,-2.801045774494563,-23.271286688371237,-3.3067599700629935,1.1997706638627141,26.23399999999674
311850.1147,-11.328460747915873,-29.665632090801637,-9.973178450102623,-14.738740631710716,26.23499999998603
311850.1157,-20.479515147470273,-36.39080454185122,-17.193284488603954,-31.040918866169587,26.236000000033528
311850.1167,-29.92375490215859,-43.17602712417042,-24.70433624275641,-47.14884719157692,26.237000000022817
311850.1177,-39.30799321383423,-49.73270183016468,-32.221535995101526,-62.502326137958,26.238000000012107
311850.1187,-48.272011579152434,-55.76886972596672,-39.450730398682936,-76.56215804560065,26.239000000001397
311850.1197,-56.465229413794646,-61.00454681645408,-46.10217765114421,-88.83326994556124,26.239999999990687
311850.1207,-63.56335883652544,-65.18695620376559,-51.90455517173138,-98.88642680660281,26.241000000038184
311850.1217,-69.28403295051831,-68.1046506622052,-56.61834035809565,-106.37731401659686,26.242000000027474
311850.1227,-73.40044182379242,-69.59957038123461,-60.04771988446325,-111.06187882384107,26.243000000016764
311850.1237,-75.75212784833755,-69.57620584197133,-62.0502687632319,-112.80701078200526,26.244000000006054
311850.1247,-76.25227302584108,-68.00722683865898,-62.54378305425881,-111.59590028008974,26.244999999995343
311850.1257,-74.89104162864045,-64.93518117719486,-61.50983916459481,-107.5277255403005,26.245999999984633
311850.1267,-71.73480515317668,-60.470141733849665,-58.9938738830531,-100.81166093612761,26.24700000003213
311850.1277,-66.92135232051476,-54.783466533055176,-55.10181572048781,-91.75554889589348,26.24800000002142
311850.1287,-60.651453766451226,-48.09811035144176,-49.99353150896977,-80.74990851320528,26.24900000001071
311850.1297,-53.17738830712126,-40.67616593712168,-43.87356439104447,-68.24824156121949,26.25
311850.1307,-44.78922692172553,-32.80449885807352,-36.97981375159801,-54.744819035653556,26.25099999998929
311850.1317,-35.79979744115035,-24.77945735386664,-29.57093078100412,-40.75127153917463,26.252000000036787
311850.1327,-26.529308136690386,-16.89167829981749,-21.91326590688697,-26.77335400958511,26.253000000026077
311850.1337,-17.290588753506483,-9.411970137262244,-14.268202080258813,-13.289206102096756,26.254000000015367
311850.1347,-8.375816139497328,-2.579137948454428,-6.880642147999896,-0.7302883449770605,26.255000000004657
311850.1357,-0.04543764662081626,3.409564143956446,0.030703986879380456,10.534047160384445,26.255999999993946
311850.1367,7.480196683950055,8.404895800079915,6.280754467079983,20.20767592279626,26.256999999983236
311850.1377,14.026214208063132,12.308805968700895,11.72293254247464,28.07415642282597,26.258000000030734
311850.1387,19.46557454758813,15.074378065969949,16.251415164616546,33.998502456885554,26.259000000020023
311850.1397,23.718591750681064,16.70284347412593,19.800886426621826,37.924573829980105,26.260000000009313
311850.1407,26.75001550533885,17.238165462690464,22.344109403082793,39.86866853145369,26.260999999998603
311850.1417,28.56421569468632,16.759844572607758,23.887771928589363,39.910121521056915,26.261999999987893
311850.1427,29.199109108749084,15.37468007276641,24.46715474171996,38.179862094030895,26.26300000003539
311850.1437,28.719498042505773,13.208235816004171,24.140208237702463,34.8479449203472,26.26400000002468
311850.1447,27.21045827098711,10.396704857164414,22.981606161067095,30.111048089712437,26.26500000001397
311850.1457,24.771324851171663,7.079754005492991,21.07727553500498,24.180830955062408,26.26600000000326
311850.1467,21.510689870374467,3.39477084491927,18.51979126827807,17.273877906065202,26.26699999999255
311850.1477,17.54266209464795,-0.527250699767169,15.40488418721343,9.603739288978723,26.26799999998184
311850.1487,12.984462274875947,-4.564144773837008,11.829158018319665,1.3753388420652708,26.269000000029337
311850.1497,7.955258008580346,-8.603469517651595,7.8889601669761005,-7.218229015204587,26.270000000018626
311850.1507,2.575995633210277,-12.542159620619875,3.6802182203818177,-15.996716839931823,26.271000000007916
311850.1517,-3.0301221953014816,-16.28534051412713,-0.7010481798890192,-24.791952387257613,26.271999999997206
311850.1527,-8.736925941351844,-19.74476611281154,-5.157892816772619,-33.44581138465059,26.272999999986496
311850.1537,-14.414757582550337,-22.837342352919954,-9.59165606582533,-41.80754518005926,26.274000000033993
311850.1547,-19.930517928694474,-25.484144968947213,-13.90156896596904,-49.731084460908015,26.275000000023283
311850.1557,-25.148575973316643,-27.610240006876783,-17.985024277095828,-57.07288848223164,26.276000000012573
311850.1567,-29.932712524521083,-29.145482158692204,-21.738692327955594,-63.69080336912489,26.277000000001863
311850.1577,-34.14912977706624,-30.026315021386598,-25.06054195168817,-69.44424622591035,26.277999999991152
311850.1587,-37.67041421704691,-30.198446239811688,-27.85270371288608,-74.19586031133039,26.27900000003865
311850.1597,-40.38020834203042,-29.620136222413553,-30.024997774701593,-77.81460819592934,26.28000000002794
311850.1607,-42.17824146058867,-28.26573658432319,-31.498854641941048,-80.18010205454,26.28100000001723
311850.1617,-42.98530241225675,-26.129054819455913,-32.21129351190003,-81.1878285500075,26.28200000000652
311850.1627,-42.74771420110489,-23.2261112456757,-32.11859631440893,-80.75482230438753,26.28299999999581
311850.1637,-41.44089411628183,-19.5968939060426,-31.19932780787436,-78.82528464059094,26.2839999999851
311850.1647,-39.071649804770225,-15.305802339485473,-29.456401171990287,-75.37563628679004,26.285000000032596
311850.1657,-35.67896437316924,-10.44059261731383,-26.91796842119234,-70.41853251493413,26.286000000021886
311850.1667,-31.33315081001247,-5.1097806693403,-23.637016633973808,-64.0054508913854,26.287000000011176
311850.1677,-26.133394480258374,0.5613867537488207,-19.689663460974213,-56.22757611543881,26.288000000000466
311850.1687,-20.203838012378984,6.436140266192473,-15.172256906656786,-47.2148415266446,26.288999999989755
311850.1697,-13.68848213817813,12.372201720449402,-10.19748374453267,-37.13312973349412,26.290000000037253
311850.1707,-6.745267559023751,18.228146322612524,-4.889768526675422,-26.179772381342772,26.291000000026543
311850.1717,0.46024157907536883,23.869616645084758,0.6197060668616229,-14.577609395263394,26.292000000015832
311850.1727,7.761136953442766,29.17490250832212,6.198010713142014,-2.5679613115798903,26.293000000005122
311850.1737,14.994998087862484,34.03945927019224,11.715183015445703,9.597072293896067,26.293999999994412
311850.1747,22.008929758122108,38.37903793010658,17.04836072115691,21.662553135183792,26.294999999983702
311850.1757,28.66354964232455,42.131233318032415,22.08512383008756,33.37846297417492,26.2960000000312
311850.1767,34.83578285015701,45.25540789919652,26.72592270733589,44.506908412532106,26.29700000002049
311850.1777,40.420439497194465,47.73110290786413,30.885563806970538,54.82847347820615,26.29800000000978
311850.1787,45.33066650188603,49.555189875938176,34.4938157285052,64.14751297198478,26.29899999999907
311850.1797,49.497463704295406,50.7381297440659,37.495276657948864,72.29627735679918,26.29999999998836
311850.1807,52.86852750747444,51.29978206816163,39.848701900507045,79.13785384862874,26.301000000035856
311850.1817,55.406725581142815,51.26523581333716,41.526021602572314,84.5679887889663,26.302000000025146
311850.1827,57.088510262904414,50.66111309310135,42.51128114781253,88.51591591071944,26.303000000014435
311850.1837,57.90254647230743,49.51273025445558,42.79971048563944,90.94434919726076,26.304000000003725
311850.1847,57.848766328504304,47.84239403738503,42.39707729860883,91.8488064646213,26.304999999993015
311850.1857,56.937974726520025,45.668975350144656,41.31940868491327,91.25641276151738,26.305999999982305
311850.1867,55.192028009130446,43.00875365079589,39.5930852997245,89.22429643179397,26.307000000029802
311850.1877,52.644503306561646,39.877376672236814,37.25523030999648,85.83764280958535,26.308000000019092
311850.1887,49.341681232435896,36.29264884798413,34.354242971266956,81.2074199440979,26.309000000008382
311850.1897,45.34359066270739,32.27776118780666,30.950272221118894,75.46774656909078,26.30999999999767
311850.1907,40.72482042743348,27.86451631404252,27.11539667578648,68.77284281031268,26.31099999998696
311850.1917,35.57479494195706,23.096091486121928,22.933278435909465,61.293494848690145,26.31200000003446
311850.1927,29.997241301298363,18.028921394368982,18.498090551239006,53.21297903089542,26.31300000002375
311850.1937,24.108642223352554,12.73336787268371,13.912579787561315,44.7224285166706,26.31400000001304
311850.1947,18.0355664807985,7.292967244420241,9.285212050664994,36.015682885145125,26.31500000000233
311850.1957,11.91088663036,1.8021955441787676,4.726449132439641,27.283731616631908,26.315999999991618
311850.1967,5.869020853703702,-3.637147711996776,0.3443119290648116,18.708937210904917,26.316999999980908
311850.1977,0.040458087796074904,-8.920681623841032,-3.7605145626819643,10.459292879591167,26.318000000028405
311850.1987,-5.454070162145254,-13.946923047038911,-7.4996967486508685,2.683023229948685,26.319000000017695
311850.1997,-10.509333984019996,-18.623016649136893,-10.801996153517047,-4.49613467334524,26.320000000006985
311850.2007,-15.040793580217171,-22.870179305031893,-13.617330044319125,-10.98263450209292,26.320999999996275
311850.2017,-18.98877157678462,-26.628325067757814,-15.919758538217124,-16.71150902351345,26.321999999985565
311850.2027,-22.321206044672124,-29.859394186657855,-17.709068966543438,-21.6492145811671,26.323000000033062
311850.2037,-25.034681488893497,-32.549017001134544,-19.010726020901814,-25.792802121277617,26.32400000002235
311850.2047,-27.15357007347684,-34.70629156096596,-19.874082811474107,-29.16740616850238,26.32500000001164
311850.2057,-28.727273060309447,-36.361628758475504,-20.368892401909207,-31.82217492344454,26.32600000000093
311850.2067,-29.825718166153518,-37.562803843836114,-20.58030833171809,-33.824894726747296,26.32699999999022
311850.2077,-30.533426338105926,-38.369530292988614,-20.602701776806224,-35.25567755624949,26.32800000003772
311850.2087,-30.942595701508054,-38.847023380541486,-20.532738451245525,-36.20016893162436,26.32900000002701
311850.2097,-31.14574746113328,-39.05913094034602,-20.46223811128346,-36.742785721504006,26.330000000016298
311850.2107,-31.228528001934592,-39.061665912139425,-20.47137472638231,-36.96050228830485,26.331000000005588
311850.2117,-31.263257459073433,-38.896572617310774,-20.62276129806253,-36.91766662550496,26.331999999994878
311850.2127,-31.30375685068344,-38.587495279681285,-20.956899902526693,-36.662247524757376,26.332999999984168
311850.2137,-31.38187801950432,-38.13719805304602,-21.48936958249541,-36.22379559299191,26.334000000031665
311850.2147,-31.506012562502086,-37.52712123087797,-22.209981422744924,-35.6132552009242,26.335000000020955
311850.2157,-31.66168115443761,-36.71916348881422,-23.083964316927638,-34.82460419463662,26.336000000010245
311850.2167,-31.81411948961387,-35.65957321894804,-24.055071766310487,-33.83813816069317,26.336999999999534
311850.2177,-31.912598982913476,-34.2846329481224,-25.050335664247218,-32.62507121093847,26.337999999988824
311850.2187,-31.896066386751716,-32.527648677875426,-25.986052876725108,-31.153009464324448,26.33900000003632
311850.2197,-31.699571399731482,-30.326627526440568,-26.774487800893315,-29.39177789041342,26.34000000002561
311850.2207,-31.26088628855397,-27.63195499618008,-27.330718720620528,-27.319053449592104,26.3410000000149
311850.2217,-30.52671282575277,-24.41337486708744,-27.579052923915036,-24.92528049058113,26.34200000000419
311850.2227,-29.45792029822968,-20.66563133497798,-27.45848539721568,-22.217416224683852,26.34299999999348
311850.2237,-28.033359216117905,-16.412249500714875,-26.92677357737093,-19.22116809946523,26.34399999998277
311850.2247,-26.251938760412166,-11.707095801891251,-25.962836619368627,-15.98153019272546,26.345000000030268
311850.2257,-24.13282788745858,-6.633558839668363,-24.567348733231388,-12.561588360287892,26.346000000019558
311850.2267,-21.713823499873747,-1.3014044413218793,-22.76156676277398,-9.039728038153708,26.347000000008848
311850.2277,-19.04810620080243,4.15843353233415,-20.584595847108513,-5.505528319785966,26.347999999998137
311850.2287,-16.199757507956704,9.600682857173803,-18.08943796808159,-2.0547465334091015,26.348999999987427
311850.2297,-13.238526989878627,14.873599666438944,-15.338272935424932,1.2161228520344534,26.350000000034925
311850.2307,-10.234402388123238,19.827204864263194,-12.39747994281315,4.215200467274821,26.351000000024214
311850.2317,-7.252544115459847,24.321202389464716,-9.332914808710944,6.859992228448956,26.352000000013504
311850.2327,-4.34909683443061,28.23193605563355,-6.205913016433441,9.081155568645798,26.353000000002794
311850.2337,-1.5682900341039043,31.45784664551855,-3.070396414987599,10.82495402876328,26.353999999992084
311850.2347,1.0589032564678038,33.92304576465004,0.028668669033952158,12.054238180351955,26.354999999981374
311850.2357,3.514450910046492,35.57881231759796,3.055368956856709,12.747953160261858,26.35600000002887
311850.2367,5.791371483725116,36.403022657881266,5.9815682350004575,12.89933534109637,26.35700000001816
311850.2377,7.890524532852952,36.3977262292944,8.784484873141999,12.51310586438846,26.35800000000745
311850.2387,9.816484067001072,35.585255037992525,11.443482350721919,11.602081393173421,26.35899999999674
311850.2397,11.573004322055496,34.00339011526918,13.936527400155237,10.183690022172513,26.35999999998603
311850.2407,13.158641429334509,31.700187883439327,16.236817964289415,8.276894736732,26.361000000033528
311850.2417,14.563090641998755,28.729086069754704,18.310077806583557,5.899985369228241,26.362000000022817
311850.2427,15.764736139186445,25.144860790347906,20.112956106961764,3.069605605136943,26.363000000012107
311850.2437,16.7297945289123,21.000898324683803,21.592863820288112,-0.1987572920167818,26.364000000001397
311850.2447,17.413274810751854,16.34808758066664,22.68943388219067,-3.888762491646714,26.364999999990687
311850.2457,17.761791834502656,11.235447939867313,23.33762329912562,-7.979812385385827,26.366000000038184
311850.2467,17.71807513033329,5.712401166763923,23.472298072000335,-12.442563558488976,26.367000000027474
311850.2477,17.226829417032054,-0.1676039158806458,23.033974052723313,-17.233816713300413,26.368000000016764
311850.2487,16.241445413588167,-6.342578905895686,21.97524480155121,-22.29136769657155,26.369000000006054
311850.2497,14.730945601794817,-12.737189659996487,20.267325604972733,-27.529465673772652,26.369999999995343
311850.2507,12.686491150815833,-19.258321772257922,17.906091706575264,-32.83552624790109,26.370999999984633
311850.2517,10.126780058456363,-25.791687435659263,14.916994544326736,-38.06868407027651,26.37200000003213
311850.2527,7.1017336890217715,-32.20007918531594,11.358303224205065,-43.06064452454533,26.37300000002142
311850.2537,3.693994438959663,-38.323747543627135,7.322235142955541,-47.61911662663241,26.37400000001071
311850.2547,0.017930937947120265,-43.983197557001745,2.9337002340166607,-51.533893817667426,26.375
311850.2557,-3.783945856036813,-48.984479592935514,-1.6534257241077779,-54.58541423946431,26.37599999998929
311850.2567,-7.547030182332382,-53.12681237719061,-6.26237833598497,-56.55539812467394,26.377000000036787
311850.2577,-11.092789586358705,-56.21214299158903,-10.701610901642525,-57.23894835915862,26.378000000026077
311850.2587,-14.238517244239283,-58.05604140256521,-14.774429055074089,-56.4573309223537,26.379000000015367
311850.2597,-16.807980809641325,-58.49916607866747,-18.28951159408847,-54.07054139315641,26.380000000004657
311850.2607,-18.64218505543184,-57.41843857435039,-21.071585000077345,-49.988723846779905,26.380999999993946
311850.2617,-19.609436297015222,-54.73703939154954,-22.971488564701396,-44.18154513297572,26.381999999983236
311850.2627,-19.613936729497777,-50.432389247979785,-23.87489986618748,-36.68473997712098,26.383000000030734
311850.2637,-18.602243855673624,-44.541406306948026,-23.70908462722889,-27.603223140937928,26.384000000020023
311850.2647,-16.567095488763023,-37.16252125713895,-22.44718329789786,-17.110400380703794,26.385000000009313
311850.2657,-13.54831030791338,-28.454172517613898,-20.109736660086885,-5.443581385090637,26.385999999998603
311850.2667,-9.630709303092782,-18.629772647389153,-16.76336804559566,7.1043170606860055,26.386999999987893
311850.2677,-4.939243721615837,-7.949410704981098,-12.51676159117907,20.196314703347284,26.38800000003539
311850.2687,0.36826133073417083,3.291190460934386,-7.514284697442563,33.465454297597226,26.38900000002468
311850.2697,6.110151986752503,14.773730934424211,-1.9277798997730533,46.530540572568036,26.39000000001397
311850.2707,12.091051319434737,26.171522487010506,4.052819122187195,59.01252564187638,26.39100000000326
311850.2717,18.112231156189242,37.16385099814247,10.229322138812988,70.55049984595412,26.39199999999255
311850.2727,23.981460933549435,47.449558821928456,16.40483670572539,80.81629561510424,26.39299999998184
311850.2737,29.521620674674242,56.758978001732004,22.392370474305057,89.52683946067299,26.394000000029337
311850.2747,34.577504181060526,64.86350133433649,28.021927099332633,96.45358190621943,26.395000000018626
311850.2757,39.020426463911775,71.58229077152447,33.145705047286825,101.4285793192641,26.396000000007916
311850.2767,42.75046768339863,76.78587131952018,37.64120218168332,104.3470731096253,26.396999999997206
311850.2777,45.696412958815685,80.39662013477266,41.41223329001978,105.1666862686623,26.397999999986496
311850.2787,47.81366120074305,82.38641075092117,44.388062693584914,103.90361040896225,26.399000000033993
311850.2797,49.080555949184685,82.77188862769853,46.521020878280204,100.62636631262751,26.400000000023283
311850.2807,49.49371999723527,81.60801745716286,47.78309687888572,95.44786985997858,26.401000000012573
311850.2817,49.06304151097794,78.98063228634471,48.16206573092815,88.51661142725968,26.402000000001863
311850.2827,47.80695699695897,74.99875854777548,47.65771716124245,80.00775576911171,26.402999999991152
311850.2837,45.74860728090429,69.78740575283071,46.278698497525134,70.11489376060591,26.40400000003865
311850.2847,42.91331477745147,63.481428160256016,44.04037825691009,59.04303687659173,26.40500000002794
311850.2857,39.327657657753264,56.2208756577512,40.96398901851292,47.003255585752896,26.40600000001723
311850.2867,35.020217271904514,48.14805466090228,37.077134974056705,34.209143911352946,26.40700000000652
311850.2877,30.023869988809405,39.406302263653764,32.41556927310272,20.875066552510347,26.40799999999581
311850.2887,24.37930443401363,30.140269239067013,27.025977659030108,7.215934575561577,26.4089999999851
311850.2897,18.139289127720062,20.497329558347907,20.969365209916507,-6.55191886856943,26.410000000032596
311850.2907,11.373109306877383,10.629603345330668,14.324546403472285,-20.209313674054833,26.411000000021886
311850.2917,4.170545708875227,0.6960091434693328,7.191194895561879,-33.53285878094524,26.412000000011176
311850.2927,-3.35521328419485,-9.136243522950434,-0.30807731760895424,-46.29425044057921,26.413000000000466
311850.2937,-11.066253431028777,-18.691249272668436,-8.027072600498201,-58.26075974260896,26.413999999989755
311850.2947,-18.80060162023911,-27.785497434269068,-15.797135323993196,-69.19730449871955,26.415000000037253
311850.2957,-26.37509175653554,-36.230698966102544,-23.430241665864074,-78.87032472257361,26.416000000026543
311850.2967,-33.59044103284174,-43.83839423333509,-30.72406004582593,-87.05347856346155,26.417000000015832
311850.2977,-40.23834030319073,-50.426180048176654,-37.46880592663874,-93.53496622578567,26.418000000005122
311850.2987,-46.110168263520286,-55.825199292661615,-43.45554115426757,-98.12609303127768,26.418999999994412
311850.2997,-51.006776721875006,-59.888371891841096,-48.485421613606704,-100.67051776229398,26.419999999983702
311850.3007,-54.74867809067666,-62.49872835915006,-52.37929103947904,-101.05351409008176,26.4210000000312
311850.3017,-57.18590667359356,-63.57714845783877,-54.98696282598065,-99.21051222688543,26.42200000002049
311850.3027,-58.20682745372393,-63.08881387916724,-56.19553052383497,-95.13419074107838,26.42300000000978
311850.3037,-57.74522948424343,-61.04775517271561,-55.93610140337495,-88.87945496181297,26.42399999999907
311850.3047,-55.78515982674492,-57.51900327173844,-54.18845119531481,-80.56576330799045,26.42499999998836
311850.3057,-52.363117712748355,-52.6180331415691,-50.9832428366198,-70.37643598469758,26.426000000035856
311850.3067,-47.56742291730643,-46.5073953194313,-46.401625277526875,-58.554787546040785,26.427000000025146
311850.3077,-41.53478049365841,-39.390651607679196,-40.572215414839384,-45.3971487761054,26.428000000014435
311850.3087,-34.44426833851199,-31.503944124561823,-33.66565130731444,-31.24306578692281,26.429000000003725
311850.3097,-26.509157444410377,-23.105713338342053,-25.88707269886372,-16.463166966022975,26.429999999993015
311850.3107,-17.96712212174742,-14.465224215576685,-17.467021934694802,-1.4453549458027104,26.430999999982305
311850.3117,-9.069497272291212,-5.850647860717902,-8.651353895385851,13.419902240784085,26.432000000029802
311850.3127,-0.07028466770866976,2.482528175488157,0.30920931189478734,27.754348283317967,26.433000000019092
311850.3137,8.784402182858834,10.302025800925506,9.169246989951276,41.20595571334083,26.434000000008382
311850.3147,17.26583175690263,17.40760086465259,17.69795259045734,53.46142019241072,26.43499999999767
311850.3157,25.170577482190758,23.637675675381065,25.6871064674289,64.25648911051888,26.43599999998696
311850.3167,32.326508998467396,28.873471529834347,32.95735204761131,73.3836448285447,26.43700000003446
311850.3177,38.596659489813,33.04053400878582,39.36256592344168,80.69685453249721,26.43800000002375
311850.3187,43.88094982763997,36.10774443148949,44.79226500793988,86.1133019339315,26.43900000001304
311850.3197,48.11591162994502,38.08409346060366,49.172138055474534,89.61221375703161,26.44000000000233
311850.3207,51.27268701464316,39.01364180215126,52.462912031139844,91.23107017502264,26.440999999991618
311850.3217,53.35368183915015,38.9691963617921,54.657856190649106,91.05962992540088,26.441999999980908
311850.3227,54.38830475414974,38.045281006517875,55.779282112336375,89.23229848102562,26.443000000028405
311850.3237,54.42823434456092,36.35097749692963,55.87441422570749,85.91941673938967,26.444000000017695
311850.3247,53.54262364091789,34.00315781120846,55.01098471030277,81.31804840159508,26.445000000006985
311850.3257,51.81358233780045,31.120532407974544,53.27285488750768,75.64280125851495,26.445999999996275
311850.3267,49.332182556713256,27.818812210587435,50.755891288545,69.11713946036306,26.446999999985565
311850.3277,46.19512652398875,24.207139917284888,47.56423924607149,61.96554163164687,26.448000000033062
311850.3287,42.50210741069369,20.38580417839384,43.807051530955,54.406745808104205,26.44900000002235
311850.3297,38.353800332415986,16.445122974027456,39.59565493151428,46.64820888671386,26.45000000001164
311850.3307,33.85034949311324,12.465282599458247,35.04108249913302,38.88180640933509,26.45100000000093
311850.3317,29.09017674477117,8.516854875061773,30.251869278822348,31.28071631973993,26.45199999999022
311850.3327,24.16892945845201,4.661691965703028,25.332006949674465,23.997372849471216,26.45300000003772
311850.3337,19.178410301002604,0.9539151407859731,20.378976371693586,17.162345339494976,26.45400000002701
311850.3347,14.205382962583808,-2.559234088317093,15.481821473197046,10.883989612048332,26.455000000016298
311850.3357,9.330217410213713,-5.836833727843685,10.719285236345016,5.248731629807951,26.456000000005588
311850.3367,4.625414934808863,-8.844072562564987,6.158088916331162,0.321867799512587,26.456999999994878
311850.3377,0.15412532753533872,-11.552359649987697,1.8514886518966724,-3.8512043176509367,26.457999999984168
311850.3387,-4.031175209964049,-13.939636659686197,-2.1617203408228147,-7.243384404722388,26.459000000031665
311850.3397,-7.889645505019983,-15.990718472054334,-5.8575703295540205,-9.843938553890995,26.460000000020955
311850.3407,-11.39247990592183,-17.697459229228777,-9.226494303837116,-11.65627592864792,26.461000000010245
311850.3417,-14.522580090848379,-19.058547777431883,-12.271989185172794,-12.695479115927721,26.461999999999534
311850.3427,-17.27339370758157,-20.078777636305112,-15.008326254023368,-12.985656920981722,26.462999999988824
311850.3437,-19.646902985226866,-20.767707340388082,-17.45735967233587,-12.557220222865961,26.46400000003632
311850.3447,-21.650848792054873,-21.137718474731802,-19.644587459468518,-11.444216952831805,26.46500000002561
311850.3457,-23.29538070631604,-21.201579456380525,-21.594720897550225,-9.681894436580736,26.4660000000149
311850.3467,-24.58941865484689,-20.969720155507357,-23.327105835553233,-7.3046792362270505,26.46700000000419
311850.3477,-25.53708423553413,-20.447502922537435,-24.851401291330962,-4.34477000603929,26.46799999999348
311850.3487,-26.134599600933416,-19.632828131707722,-26.16394780759037,-0.8315231475946455,26.46899999998277
311850.3497,-26.36805151757271,-18.51442842192572,-27.2452441048894,3.208228067891648,26.470000000030268
311850.3507,-26.212374727610687,-17.071180671176116,-28.05889356875539,7.748842319058207,26.471000000019558
311850.3517,-25.631823310187922,-15.272698040148205,-28.552284219793567,12.763530183539485,26.472000000008848
311850.3527,-24.582077144720866,-13.08136037218554,-28.659133522555905,18.221103988390542,26.472999999998137
311850.3537,-23.01398263899027,-10.455808285451601,-28.303872945122038,24.082017649287486,26.473999999987427
311850.3547,-20.878765611009086,-7.355776380700668,-27.40767975166064,30.293994085198836,26.475000000034925
311850.3557,-18.134394616060572,-3.7479884497927323,-25.89580000656539,36.78762132717535,26.476000000024214
311850.3567,-14.752630694295297,0.38730222352903576,-23.705662494270516,43.4723582241076,26.477000000013504
311850.3577,-10.726189186205664,5.049656513392074,-20.79517248340432,50.233418259507566,26.478000000002794
311850.3587,-6.07537328935444,10.212277593802465,-17.1505088604467,56.9299892721619,26.478999999992084
311850.3597,-0.8535261823274511,15.816945277217776,-12.792736425317395,63.395194677973336,26.479999999981374
311850.3607,4.849306947563809,21.77064371729676,-7.782590923742493,69.43810851441202,26.48100000002887
311850.3617,10.90501462540601,27.94437906646802,-2.2228965814761623,74.84800642863136,26.48200000001816
311850.3627,17.148708737138076,34.17454197311319,3.741771616183781,79.40087541899616,26.48300000000745
311850.3637,23.382833177692312,40.266986872816574,9.928376629224136,82.86802774188321,26.48399999999674
311850.3647,29.384040620424,46.00379002912543,16.121637744666213,85.02648237512663,26.48499999998603
311850.3657,34.912563254934334,51.15242844957859,22.08293243290766,85.67060564517945,26.486000000033528
311850.3667,39.72359149283279,55.47691096459755,27.561421041609254,84.62435609425512,26.487000000022817
311850.3677,43.57999255127265,58.750209626300745,32.306747617011055,81.7533712417763,26.488000000012107
311850.3687,46.26556475979806,60.76720104875164,36.082528344454815,76.97607699213229,26.489000000001397
311850.3697,47.59794611773965,61.3572468407748,38.679754087298875,70.27300190214864,26.489999999990687
311850.3707,47.44028504634108,60.395528630724186,39.92921325815118,61.693541773187995,26.491000000038184
311850.3717,45.71083991523345,57.81230950141728,39.71208849719763,51.35954358837025,26.492000000027474
311850.3727,42.38979845983444,53.59941710820413,37.967992537098226,39.465255191088914,26.493000000016764
311850.3737,37.52278974007488,47.81342567396365,34.69987703901415,26.273407155710352,26.494000000006054
311850.3747,31.220786030019294,40.57524061199139,29.97546024241159,12.107440984817504,26.494999999995343
311850.3757,23.656342423663276,32.06604287215189,23.92505850733947,-2.6598447763248774,26.495999999984633
311850.3767,15.056378152054432,22.519809875661554,16.73595450505903,-17.620710971851647,26.49700000003213
311850.3777,5.69194516983312,12.212874968606187,8.64367149402917,-32.349218007148956,26.49800000002142
311850.3787,-4.134362849811985,1.451197612969463,-0.07926970707258915,-46.419377810958956,26.49900000001071
311850.3797,-14.102550919104445,-9.443825208707596,-9.136372797066947,-59.4236928618531,26.5
311850.3807,-23.890008137711966,-20.15008258642669,-18.221124955621693,-70.99101488871574,26.50099999998929
311850.3817,-33.186009341067965,-30.359063530878448,-27.03101167282874,-80.80268762295687,26.502000000036787
311850.3827,-41.705050834124364,-39.78886897032878,-35.28073448559204,-88.60604259114986,26.503000000026077
311850.3837,-49.19825064146709,-48.195150931631424,-42.71386987807978,-94.22448691580654,26.504000000015367
311850.3847,-55.462211771666325,-55.3793866155319,-49.11235296051963,-97.56364463401218,26.505000000004657
311850.3857,-60.34495537406636,-61.19411539174693,-54.30335558530121,-98.61327106624819,26.505999999993946
311850.3867,-63.74876093926484,-65.54500930528894,-58.16333862561886,-97.44493337615428,26.506999999983236
311850.3877,-65.6299828645265,-68.38989137027805,-60.6192738685509,-94.20571869145019,26.508000000030734
311850.3887,-65.99612703734502,-69.7350397858271,-61.64723398251233,-89.10847382012427,26.509000000020023
311850.3897,-64.90064992349058,-69.62930140348539,-61.26872259128848,-82.41928005078938,26.510000000009313
311850.3907,-62.43607200659125,-68.15666930747534,-59.545247087189544,-74.44300917096221,26.510999999998603
311850.3917,-58.72606827885149,-65.42804744074722,-56.57171529519696,-65.50788419660363,26.511999999987893
311850.3927,-53.91720748929953,-61.572926091922064,-52.469259465606804,-55.94997759561644,26.51300000003539
311850.3937,-48.17096157010464,-56.73162836153534,-47.378058741274884,-46.09852391936232,26.51400000002468
311850.3947,-41.65650513452816,-51.048668056935306,-41.45065075549507,-36.26281081017685,26.51500000001397
311850.3957,-34.5446847898521,-44.6675974950426,-34.84610523382672,-26.72125459216741,26.51600000000326
311850.3967,-27.003375050333666,-37.72753673801888,-27.725291380173125,-17.71307920131088,26.51699999999255
311850.3977,-19.19426922341028,-30.361383050472355,-20.24732202758419,-9.432816547996236,26.51799999998184
311850.3987,-11.270996901076678,-22.695520014635495,-12.567116635416156,-2.0276488327694806,26.519000000029337
311850.3997,-3.3783298141711278,-14.850697022485859,-4.833906261618636,4.402566427068065,26.520000000018626
311850.4007,4.347853383440564,-6.943645463985334,2.809582243435989,9.802897876397408,26.521000000007916
311850.4017,11.780217975467192,0.9110532985485317,10.227571201151239,14.158989284872128,26.521999999997206
311850.4027,18.79961103677283,8.599327874775156,17.291617320033364,17.491246088540187,26.522999999986496
311850.4037,25.29500884180528,16.006625297062488,23.88121005357939,19.848075684429983,26.524000000033993
311850.4047,31.164009554607386,23.01788347422882,29.884783186905892,21.298684022164075,26.525000000023283
311850.4057,36.31399337984604,29.518644542880946,35.201242198658925,21.92588413090491,26.526000000012573
311850.4067,40.66394601760965,35.39732956540239,39.742000001287984,21.819300710829225,26.527000000001863
311850.4077,44.14681716530814,40.54853798393426,43.433404777779586,21.06926869973226,26.527999999991152
311850.4087,46.71217849534589,44.877094668454056,46.219348965067,19.76163283314365,26.52900000003865
311850.4097,48.328867546657044,48.30245842841784,48.0637794384006,17.973568792230658,26.53000000002794
311850.4107,48.9872645125312,50.76304015617049,48.95279415549674,15.770471936098392,26.53100000001723
311850.4117,48.700852895672874,52.219963350051735,48.8960146107336,13.203901768318705,26.53200000000652
311850.4127,47.5067625219883,52.659836288713436,47.92696676387398,10.310531338074389,26.53299999999581
311850.4137,45.46507971629818,52.096189763879316,46.10228158687275,7.112030087054628,26.5339999999851
311850.4147,42.65682548492192,50.56935812601507,43.49963199415299,3.615803127279066,26.535000000032596
311850.4157,39.18063591060692,48.14473143480841,40.21444455627718,-0.1834853807631071,26.536000000021886
311850.4167,35.14831520927318,44.90946696010396,36.35554899569745,-4.301668194529865,26.537000000011176
311850.4177,30.679556104436056,40.967902265680365,32.04004245208392,-8.762166827009496,26.538000000000466
311850.4187,25.896220523074483,36.43604338244034,27.38773623004824,-13.592476279419405,26.538999999989755
311850.4197,20.916634852533466,31.435596204375422,22.515609817812567,-18.820111565681533,26.540000000037253
311850.4207,15.850370632628316,26.088057026816813,17.5327133807796,-24.46811007239499,26.541000000026543
311850.4217,10.793950671701072,20.509373687343807,12.535932809731936,-30.550221736099115,26.542000000015832
311850.4227,5.82784415619332,14.805632009606187,7.606962320452431,-37.06596684106626,26.543000000005122
311850.4237,1.0149990929205646,9.070118501659445,2.810724471503522,-43.99579385302846,26.543999999994412
311850.4247,-3.598982811458679,3.3819696808823783,-1.8046540393854096,-51.29662032682729,26.544999999983702
311850.4257,-7.984081143307323,-2.193545021317888,-6.206347843174023,-58.898080800509334,26.5460000000312
311850.4267,-12.122710076408914,-7.603229651412406,-10.374001917133896,-66.6998288339903,26.54700000002049
311850.4277,-16.00553763274881,-12.80293931366063,-14.295877265790548,-74.57023888500208,26.54800000000978
311850.4287,-19.626726763190913,-17.753742726065312,-17.964389737514946,-82.34682215304744,26.54899999999907
311850.4297,-22.979119909280243,-22.417774562142764,-21.371523757860626,-89.83860595974136,26.54999999998836
311850.4307,-26.049904757564146,-26.754322699853127,-24.504622946669663,-96.83062884081562,26.551000000035856
311850.4317,-28.817262520821334,-30.716680178438057,-27.343031784657363,-103.09057687425079,26.552000000025146
311850.4327,-31.24841361649348,-34.2502212198882,-29.855988356601742,-108.37743785582875,26.553000000014435
311850.4337,-33.29934624054433,-37.29204104077721,-32.00205377334343,-112.45188885561889,26.554000000003725
311850.4347,-34.916352446211796,-39.77234120519576,-33.730219095229174,-115.08797198725688,26.554999999993015
311850.4357,-36.03931851089257,-41.617560710100506,-34.98266837918484,-116.08546691157184,26.555999999982305
311850.4367,-36.606538051209974,-42.755065160247256,-35.69901162866694,-115.28225095381602,26.557000000029802
311850.4377,-36.560654320774574,-43.119030522849734,-35.82164923059476,-112.56586191799134,26.558000000019092
311850.4387,-35.85520799551486,-42.657011504684235,-35.30180432840745,-107.88345543336204,26.559000000008382
311850.4397,-34.46118146572962,-41.33658256184003,-34.10567371564033,-101.24938493445752,26.55999999999767
311850.4407,-32.37289928269836,-39.15139301201073,-32.220110104424506,-92.74973040431817,26.56099999998696
311850.4417,-29.61267125317621,-36.125992713519935,-29.657263686395506,-82.54325874266308,26.56200000003446
311850.4427,-26.23364879932538,-32.31886164723943,-26.45767871163656,-70.85850559877066,26.56300000002375
311850.4437,-22.320500419460274,-27.823209989896082,-22.691456521189348,-57.98691232472869,26.56400000001304
311850.4447,-17.987687432519117,-22.765293969626704,-18.457250782130973,-44.27221496996206,26.56500000000233
311850.4457,-13.375321835365234,-17.300201513298198,-13.879040590389861,-30.096544999408472,26.565999999991618
311850.4467,-8.642796631018392,-11.605281867586543,-9.100817031388056,-15.863942878998833,26.566999999980908
311850.4477,-3.960576940984333,-5.871605007087763,-4.27950191152698,-1.9821860438568735,26.568000000028405
311850.4487,0.49929023383946886,-0.2940201651659162,0.4234228103032305,11.156024949361544,26.569000000017695
311850.4497,4.5732641563473395,4.9394790564633935,4.850974522842857,23.191406746052127,26.570000000006985
311850.4507,8.11624318417078,9.658296187861007,8.859745611702671,33.81485103871416,26.570999999996275
311850.4517,11.010582113069775,13.71888072621621,12.328306603022966,42.781576317491464,26.571999999985565
311850.4527,13.173491161015662,17.01274153295594,15.164290886269823,49.92180895481372,26.573000000033062
311850.4537,14.562231009040671,19.472203244511096,17.30961322745605,55.14735068221419,26.57400000002235
311850.4547,15.176685921613789,21.073459892165108,18.743419532996505,58.45365762056977,26.57500000001164
311850.4557,15.059100690064563,21.836694931437634,19.482545126380213,59.917350786839556,26.57600000000093
311850.4567,14.290989509058745,21.82327224442001,19.579457431602542,59.68937748231648,26.57699999999022
311850.4577,12.98744676123439,21.130237605521984,19.11785899674288,57.98432485657132,26.57800000003772
311850.4587,11.289291966132554,19.882583846519683,18.20631073481222,55.0666303318808,26.57900000002701
311850.4597,9.353646562487354,18.223906753528127,16.970387143417412,51.23462063995024,26.580000000016298
311850.4607,7.343654812184353,16.306197522718914,15.543982132267793,46.80342865263349,26.581000000005588
311850.4617,5.418115611018741,14.27957142571936,14.060437157258255,42.08787724680531,26.581999999994878
311850.4627,3.721782437857064,12.282717192453086,12.644158794637226,37.38638058533165,26.582999999984168
311850.4637,2.3770168428920364,10.434769799086165,11.403332091368155,32.96680015806864,26.584000000031665
311850.4647,1.4773540170362873,8.829169157706342,10.424225446690087,29.055016288810812,26.585000000020955
311850.4657,1.0833691047183511,7.529882136055286,9.767433251366036,25.826751060364558,26.586000000010245
311850.4667,1.2210356429147005,6.570152771795568,9.466228206390072,23.40292477089514,26.586999999999534
311850.4677,1.882560611680972,5.953725110917915,9.527012322535333,21.848566028873087,26.587999999988824
311850.4687,3.029482374095437,5.658274825366978,9.93168070317768,21.17504641875778,26.58900000003632
311850.4697,4.597645437897372,5.640608232444871,10.641560907151934,21.345193605047633,26.59000000002561
311850.4707,6.503533976239155,5.843055971940409,11.602476051043878,22.280667730284687,26.5910000000149
311850.4717,8.651364917898253,6.200414257673397,12.75041122868124,23.870876307142648,26.59200000000419
311850.4727,10.940316785566008,6.646774633625022,14.017245159385816,25.982658309622398,26.59299999999348
311850.4737,13.271302601915014,7.121632868607529,15.336042149284959,28.469988784910147,26.59399999998277
311850.4747,15.552779066424526,7.574772483493163,16.645478514555485,31.18303531869299,26.595000000030268
311850.4757,17.705210038749126,7.969566696445277,17.893093293387373,33.976026404405886,26.596000000019558
311850.4767,19.663956596412778,8.284518567381681,19.037192720834753,36.713554669431325,26.597000000008848
311850.4777,21.380532627978404,8.513044682873167,20.04738684933133,39.27511810976728,26.597999999998137
311850.4787,22.822327354581876,8.66168412838024,20.903879600212672,41.55788237153346,26.598999999987427
311850.4797,23.971038506310208,8.747064343710345,21.595756154649642,43.47781003542936,26.600000000034925
311850.4807,24.820168732669188,8.792064417670778,22.118602092059522,44.969434628158794,26.601000000024214
311850.4817,25.372003568950618,8.821674613234997,22.471838812585364,45.984647239596555,26.602000000013504
311850.4827,25.634506934261747,8.85905402984804,22.656165662468766,46.49090626451021,26.603000000002794
311850.4837,25.618539781631906,8.92223771307202,22.671461624301745,46.469274953429135,26.603999999992084
311850.4847,25.335734173654878,9.021847173553192,22.515423746365737,45.912641027192876,26.604999999981374
311850.4857,24.79724805066778,9.16002585737846,22.18311483166946,44.824385737669445,26.60600000002887
311850.4867,24.01349788515469,9.330668706615741,21.66747128112717,43.217657919166456,26.60700000001816
311850.4877,22.99483176382483,9.520859416016567,20.960696910830496,41.11528532682506,26.60800000000745
311850.4887,21.75297906234048,9.713287156814138,20.05635367208073,38.55023512763363,26.60899999999674
311850.4897,20.303008467078786,9.889301452884833,18.951867833185442,35.56643126055969,26.60999999998603
311850.4907,18.665454799977567,10.03219130858078,17.651110143927475,32.21965988589531,26.611000000033528
311850.4917,16.86824442542102,10.13024989877713,16.1666871265484,28.578253481467026,26.612000000022817
311850.4927,14.948062125030516,10.179211312647329,14.521600185583416,24.723243541923015,26.613000000012107
311850.4937,12.950857767231446,10.183717900249837,12.749987729537578,20.74771120791165,26.614000000001397
311850.4947,10.931283000376286,10.157587734134303,10.8967569801307,16.75514016010439,26.614999999990687
311850.4957,8.950966881382973,10.12278958100599,9.0160272638343,12.856678669196636,26.616000000038184
311850.4967,7.075672309993888,10.107182824653977,7.168433549249012,9.16733681079518,26.617000000027474
311850.4977,5.37150828821777,10.141225965299975,5.417464746250816,5.801267788812749,26.618000000016764
311850.4987,3.900492108768571,10.253983963332367,3.8251227545267956,2.866395867120963,26.619000000006054
311850.4997,2.7158475981391312,10.468858044839397,2.4472736671358284,0.4587452891703422,26.619999999995343
311850.5007,1.8574800887812932,10.799511214177274,1.3291125973338564,-1.343115371813774,26.620999999984633
311850.5017,1.348079141313058,11.246462601694805,0.5011724325466878,-2.4830776835286734,26.62200000003213
311850.5027,1.1902638823926026,11.794772950678608,-0.023727373346719604,-2.9315313640199605,26.62300000002142
311850.5037,1.3651056155524421,12.413146275075023,-0.25227056262729125,-2.6880815504680577,26.62400000001071
311850.5047,1.8322451384643368,13.054638112930418,-0.210959547204485,-1.7826872082187792,26.625
311850.5057,2.5316789529856734,13.659001966922995,0.05512401450449964,-0.275084891777921,26.62599999998929
311850.5067,3.3871331741718014,14.15653827993253,0.48505097284185184,1.7475011145480936,26.627000000036787
311850.5077,4.310791841962952,14.473151590408786,1.0060661399746635,4.174223142198087,26.628000000026077
311850.5087,5.209012886487583,14.536187721669739,1.5385737678658336,6.875783797379648,26.629000000015367
311850.5097,5.988563950164394,14.280528107888436,2.0016677802172635,9.710551952167508,26.630000000004657
311850.5107,6.562852336533303,13.65437307657175,2.318732949029253,12.531186238489804,26.630999999993946
311850.5117,6.857615073479977,12.624155737607193,2.422633563246819,15.191303647757902,26.631999999983236
311850.5127,6.815578105273623,11.17809332047044,2.2600428279831912,17.551745827656767,26.633000000030734
311850.5137,6.399684532725873,9.32799812585142,1.7945461295219245,19.486051232578,26.634000000020023
311850.5147,5.594622387406746,7.109125469877415,1.0082669938942572,20.884831402850743,26.635000000009313
311850.5157,4.406540434184049,4.57801678289609,-0.09809492604100455,21.658864877312347,26.635999999998603
311850.5167,2.861010899461533,1.8084853408621253,-1.5067726731536286,21.74085067996954,26.636999999987893
311850.5177,0.9994643978784387,-1.113928193953807,-3.1857980184190238,21.08589179733458,26.63800000003539
311850.5187,-1.1255315372324537,-4.09855069346339,-5.092904563355441,19.670894462497575,26.63900000002468
311850.5197,-3.4556674683488096,-7.05663202904193,-7.18004804489655,17.493159623891902,26.64000000001397
311850.5207,-5.932412274002725,-9.908214768633913,-9.398065129394464,14.56849946546481,26.64100000000326
311850.5217,-8.502097694464597,-12.588175669898533,-11.700980254635734,10.929228483440486,26.64199999999255
311850.5227,-11.120048715446469,-15.05086153142179,-14.049507228070789,6.62235370552383,26.64299999998184
311850.5237,-13.753335355298644,-17.27286312060773,-16.413375366747825,1.7082247549959568,26.644000000029337
311850.5247,-16.38185882985377,-19.253637816929583,-18.772231518374593,-3.740191667521024,26.645000000018626
311850.5257,-18.99765320801084,-21.013889361944155,-21.11501801534166,-9.637366429242403,26.646000000007916
311850.5267,-21.602466725197697,-22.591823571438404,-23.43788831525294,-15.884672537575023,26.646999999997206
311850.5277,-24.203867343626385,-24.03760239988722,-25.740881062199186,-22.36946263240241,26.647999999986496
311850.5287,-26.81027730993471,-25.40649603711414,-28.023713797113917,-28.964065383774837,26.649000000033993
311850.5297,-29.425465346287048,-26.75136661105361,-30.281165255385854,-35.52507795839822,26.650000000023283
311850.5307,-32.0430998866587,-28.115194245032384,-32.498578699903426,-41.89336133866196,26.651000000012573
311850.5317,-34.64198408028336,-29.52436849634144,-34.648030680819545,-47.89512757288267,26.652000000001863
311850.5327,-37.182550141375884,-30.98341340334868,-36.685667471096494,-53.34444194732028,26.652999999991152
311850.5337,-39.60508979760992,-32.471696591653505,-38.55061787688023,-58.0473525341562,26.65400000003865
311850.5347,-41.83004744564079,-33.94250220947,-40.16575388693565,-61.80771329918849,26.65500000002794
311850.5357,-43.76051641660901,-35.324639039192725,-41.44040182731275,-64.43459773941125,26.65600000001723
311850.5367,-45.286873438284964,-36.52652782701755,-42.274921754028504,-65.75102359437237,26.65700000000652
311850.5377,-46.293281018622615,-37.44248648708272,-42.56688904165311,-65.6035427353187,26.65799999999581
311850.5387,-46.665601435948055,-37.96072914690829,-42.21844701614133,-63.872110884268544,26.6589999999851
311850.5397,-46.30011710543145,-37.97243377771224,-41.144269052919874,-60.47955445853206,26.660000000032596
311850.5407,-45.11235479686679,-37.38112836548778,-39.279485762222144,-55.3999082334352,26.661000000021886
311850.5417,-43.04527526784723,-36.111606961729336,-36.586906293843164,-48.66491463002717,26.662000000011176
311850.5427,-40.07611940519696,-34.117618084691024,-33.0628957575892,-40.368054729045944,26.663000000000466
311850.5437,-36.221294872011896,-31.387665922266223,-28.741361028362356,-30.665618283062884,26.663999999989755
311850.5447,-31.53883554314402,-27.948420543769984,-23.69543715239236,-19.774505273886675,26.665000000037253
311850.5457,-26.12815652464125,-23.865432517721175,-18.036643907822743,-7.966670546335398,26.666000000026543
311850.5467,-20.12704325247958,-19.24107174256883,-11.911481052837317,4.439641976277034,26.667000000015832
311850.5477,-13.706034768166663,-14.20983959515294,-5.495633733852767,17.09149744065909,26.668000000005122
311850.5487,-7.0605690861128725,-8.93141716832034,1.0138515033763256,29.61511372340907,26.668999999994412
311850.5497,-0.4014343674174116,-3.581991619147989,7.407901135423192,41.63119516633098,26.669999999983702
311850.5507,6.05580169121244,1.6554678420827196,13.4756259852463,52.77088660568141,26.6710000000312
311850.5517,12.10164083920338,6.601243518188685,19.01471463038162,62.69142714400556,26.67200000002049
311850.5527,17.543030064335927,11.088467276775269,23.84131042005056,71.09059978316017,26.67300000000978
311850.5537,22.212566731345273,14.971597480275237,27.798726684759515,77.71915526520205,26.67399999999907
311850.5547,25.975945711354107,18.133205293830432,30.764458517780156,82.39052888744712,26.67499999998836
311850.5557,28.737216123212335,20.488661517846147,32.65509366968921,84.98735557230071,26.676000000035856
311850.5567,30.441600233100473,21.988504403002164,33.42889592271219,85.46450542027466,26.677000000025146
311850.5577,31.075824704506672,22.618468801259983,33.086016110057216,83.84859159076689,26.678000000014435
311850.5587,30.666106871779874,22.39734895607839,31.66646253229983,80.23412638551456,26.679000000003725
311850.5597,29.274109168063557,21.373034017199497,29.24611873003827,74.77670273062277,26.679999999993015
311850.5607,26.99130899898965,19.617182676721313,25.931219634426736,67.68374234675986,26.680999999982305
311850.5617,23.932318818219983,17.2190810827517,21.851777809096085,59.20346804502885,26.682000000029802
311850.5627,20.22772630305879,14.279251410121185,17.154484911083316,49.612819672138244,26.683000000019092
311850.5637,16.017006912147153,10.903347624507154,11.995599393177551,39.20504007991373,26.684000000008382
311850.5647,11.441995387788701,7.196795800012341,6.534274152609501,28.27761273651445,26.68499999999767
311850.5657,6.64129808269208,3.260519118628023,0.9266855897765804,17.12114405229823,26.68599999998696
311850.5667,1.7458969237582365,-0.8120539488634366,-4.678790309570476,6.00966219875966,26.68700000003446
311850.5677,-3.1239469811912994,-4.936650251666024,-10.145235614276649,-4.8073368433469295,26.68800000002375
311850.5687,-7.8605214770312415,-9.038576828224341,-15.349685931491058,-15.11091246851372,26.68900000001304
311850.5697,-12.369376490876517,-13.05212758850165,-20.184575766441476,-24.716728852379585,26.69000000000233
311850.5707,-16.56916814994847,-16.919278382800936,-24.55832802508421,-33.47721055741326,26.690999999991618
311850.5717,-20.39093547347006,-20.588025261271287,-28.395331539210684,-41.281981777854774,26.691999999980908
311850.5727,-23.777126000159644,-24.010725026703188,-31.635564429572835,-48.056834029798836,26.693000000028405
311850.5737,-26.680661579797,-27.142759177620064,-34.23410041352413,-53.76150336570248,26.694000000017695
311850.5747,-29.06427576239398,-29.941768111932518,-36.16068468200882,-58.3865456837194,26.695000000006985
311850.5757,-30.900268647884488,-32.367601785629795,-37.399493776221206,-61.94958242367124,26.695999999996275
311850.5767,-32.1707251683119,-34.3830182332615,-37.94911025297626,-64.49115574508598,26.696999999985565
311850.5777,-32.8681412716556,-35.95504600275759,-37.82265911797859,-66.07038986236132,26.698000000033062
311850.5787,-32.99631190810814,-37.05682394607797,-37.0479800451041,-66.76061110067636,26.69900000002235
311850.5797,-32.57126610898118,-37.669653629383845,-35.66765683026512,-66.64503991810993,26.70000000001164
311850.5807,-31.621996128883865,-37.784954764162094,-33.738700389360034,-65.81263837160759,26.70100000000093
311850.5817,-30.190724378994304,-37.405807704920285,-31.331687691640877,-64.3541789040864,26.70199999999022
311850.5827,-28.332484478683178,-36.547800205896166,-28.52919647030372,-62.35859524452899,26.70300000003772
311850.5837,-26.11385788905924,-35.23896499490939,-25.42344086166639,-59.90968185607464,26.70400000002701
311850.5847,-23.610798253936114,-33.5186930766092,-22.113099484181525,-57.083221179136494,26.705000000016298
311850.5857,-20.905581782377187,-31.435624560553435,-18.699425462581,-53.944633095571696,26.706000000005588
311850.5867,-18.083031852861012,-29.04464157005248,-15.281826466759842,-50.54725318595359,26.706999999994878
311850.5877,-15.226266898807685,-26.403202845116837,-11.953190397687955,-46.93135016508306,26.707999999984168
311850.5887,-12.412300571275301,-23.567353875992783,-8.79529804954684,-43.12398385367105,26.709000000031665
311850.5897,-9.707872093365955,-20.587808476498385,-5.874698929756718,-39.13978008911231,26.710000000020955
311850.5907,-7.1658955633261785,-17.50651935038212,-3.2394243571591304,-34.9826569304983,26.711000000010245
311850.5917,-4.8228865163365455,-14.354132134660526,-0.9168705851287713,-30.648478453422108,26.711999999999534
311850.5927,-2.697653411273986,-11.148649914116412,1.0868943046527326,-26.128541783985487,26.712999999988824
311850.5937,-0.7914362975042479,-7.895528297689735,2.786256850383223,-21.41372540194053,26.71400000003632
311850.5947,0.9104559130403745,-4.5892842077071565,4.2136083970823455,-16.499049531633855,26.71500000002561
311850.5957,2.435601960164361,-1.216547495159065,5.415452862291283,-11.388331122111714,26.7160000000149
311850.5967,3.8202534040706317,2.239671353280176,6.447345577959471,-6.098565224460229,26.71700000000419
311850.5977,5.10430965283382,5.794865673215513,7.368058334346353,-0.6636395024030943,26.71799999999348
311850.5987,6.325940502687259,9.457549366364622,8.233456273868933,4.863004566419895,26.71899999998277
311850.5997,7.51636917976484,13.223955350012895,9.090621184497387,10.407107870281349,26.720000000030268
311850.6007,8.695335637493724,17.07348281069195,9.972756251705713,15.87399301228704,26.721000000019558
311850.6017,9.86771528336607,20.9654222852947,10.89535724452216,21.15078171208939,26.722000000008848
311850.6027,11.021674728527914,24.837395134200477,11.854037186244165,26.11044855523633,26.722999999998137
311850.6037,12.12861097094905,28.605804031797636,12.824253378233607,30.617577279714975,26.723999999987427
311850.6047,13.14495549072923,32.16841556883243,13.76301900638366,34.53553078301432,26.725000000034925
311850.6057,14.015745292671975,35.40900074405402,14.612501421259173,37.73460209741795,26.726000000024214
311850.6067,14.679686157289275,38.20376225497941,15.305232257431436,40.10059474800089,26.727000000013504
311850.6077,15.075276705204702,40.4290979870085,15.770497710846701,41.5431998926317,26.728000000002794
311850.6087,15.147441318687031,41.97010567596966,15.941355897174047,42.0035045243102,26.728999999992084
311850.6097,14.854048377184736,42.72913917308491,15.761654621585873,41.4599861011901,26.729999999981374
311850.6107,14.171676085104368,42.633692434547314,15.192405182380108,39.93242597280574,26.73100000002887
311850.6117,13.100034459108935,41.6429181439963,14.216908963849727,37.4833035950838,26.73200000001816
311850.6127,11.664556072561972,39.752182546093465,12.844131012949035,34.2164075107695,26.73300000000745
311850.6137,9.916821567442645,36.99520937400837,11.109960670871578,30.272604720686683,26.73399999999674
311850.6147,7.932675455604638,33.44356100336616,9.07618111211637,25.8229312337124,26.73499999998603
311850.6157,5.808096331890501,29.203427151792614,6.827171254429564,21.05938500097812,26.736000000033528
311850.6167,3.6530941506755332,24.40992077986115,4.4645667916074885,16.183999344989,26.737000000022817
311850.6177,1.5840961654401349,19.219296587685868,2.100293515940276,11.396932809359686,26.738000000012107
311850.6187,-0.2845655044133361,13.799689857238263,-0.15146158588935518,6.884415328006891,26.739000000001397
311850.6197,-1.8493526990056537,8.321105398049355,-2.182672040144897,2.807430230668078,26.739999999990687
311850.6207,-3.025657878313154,2.94545547596515,-3.899571394892874,-0.7080183623403731,26.741000000038184
311850.6217,-3.7546603380595793,-2.182555057066993,-5.229733040231358,-3.5783021117788945,26.742000000027474
311850.6227,-4.008279107113214,-6.942969224085463,-6.127512453557158,-5.766639656243763,26.743000000016764
311850.6237,-3.791752427350299,-11.245952248410461,-6.577369016494625,-7.2842648154251375,26.744000000006054
311850.6247,-3.1435707594122015,-15.034596146885368,-6.594763274791333,-8.188159904234327,26.744999999995343
311850.6257,-2.132714311747983,-18.284975062469698,-6.224532183883712,-8.575482502263586,26.745999999984633
311850.6267,-0.8533773291647196,-21.003511735132715,-5.536861191065264,-8.575067887362259,26.74700000003213
311850.6277,0.5824207732989359,-23.221949703428173,-4.621178757950398,-8.33661630407229,26.74800000002142
311850.6287,2.053752317004713,-24.990433178410612,-3.5784778115715157,-8.018355875146218,26.74900000001071
311850.6297,3.440505498465949,-26.36935837137579,-2.512703869208255,-7.774093506351082,26.75
311850.6307,4.633120687763168,-27.42076189868228,-1.5219294286608702,-7.7406176831824585,26.75099999998929
311850.6317,5.541537578868549,-28.20004475457065,-0.6900518890278019,-8.026394384215077,26.752000000036787
311850.6327,6.10261421216489,-28.748791584584335,-0.07970658694251358,-8.702402191118097,26.753000000026077
311850.6337,6.285404244570049,-29.08933849281452,0.2730180574533309,-9.795792602306575,26.754000000015367
311850.6347,6.093856162920097,-29.22157839621193,0.3616302021828518,-11.286849228511866,26.755000000004657
311850.6357,5.566711871045157,-29.122286186089966,0.209805401715269,-13.109471703029627,26.755999999993946
311850.6367,4.774613615885092,-28.74701558988549,-0.1305568358726011,-15.155146211624801,26.756999999983236
311850.6377,3.8146575505967175,-28.034386536897077,-0.5836172467047654,-17.280105107332393,26.758000000030734
311850.6387,2.80283974471687,-26.91236696906532,-1.0558565373413689,-19.315143203672758,26.759000000020023
311850.6397,1.8650086205927088,-25.305975513752934,-1.4437870206821573,-21.07736605541259,26.760000000009313
311850.6407,1.1270526987717968,-23.145706819514675,-1.6424804705696314,-22.38301039528015,26.760999999998603
311850.6417,0.7051050220433527,-20.375920306776884,-1.5542195446950808,-23.060408855863407,26.761999999987893
311850.6427,0.6965320653466742,-16.96244043429085,-1.096582183618332,-22.96217474153644,26.76300000003539
311850.6437,1.1723974732386773,-12.898690942935156,-0.20932822302477036,-21.97575674079612,26.76400000002468
311850.6447,2.1719572822977455,-8.209819475125345,1.1404311643901681,-20.03165122097607,26.76500000001397
311850.6457,3.6995658817027635,-2.9544497042882902,2.9551482489195218,-17.108749124661426,26.76600000000326
311850.6467,5.724167011316357,2.776091284896171,5.206025515168332,-13.236519335153298,26.76699999999255
311850.6477,8.181329966882974,8.861001668239293,7.834472108690629,-8.493971743727915,26.76799999998184
311850.6487,10.977586790224418,15.155409911220483,10.755643594594869,-3.0055810109155954,26.769000000029337
311850.6497,13.99664930835239,21.497494644270304,13.863716680049803,3.065433363322863,26.770000000018626
311850.6507,17.106950406728323,27.716721583880542,17.038424395914713,9.525900761713464,26.771000000007916
311850.6517,20.16987270052336,33.64252088262236,20.15229716905188,16.162876448251136,26.771999999997206
311850.6527,23.048005520829655,39.11271336137907,23.078027086947383,22.75445263362287,26.772999999986496
311850.6537,25.612807982181614,43.981043304820496,25.695397360603643,29.08046008570842,26.774000000033993
311850.6547,27.751146410246808,48.1232829798102,27.89729243873176,34.932383322109224,26.775000000023283
311850.6557,29.370308169463353,51.441528245856205,29.594417758554663,40.121930783368924,26.776000000012573
311850.6567,30.401256601927958,53.86648955359795,30.718499385505986,44.487857890334745,26.777000000001863
311850.6577,30.80006655572349,55.35777934684022,31.223887995380977,47.90081871207258,26.777999999991152
311850.6587,30.547649244247893,55.902385455013615,31.08764303356884,50.26620286732129,26.77900000003865
311850.6597,29.648022328630603,55.51168155253969,30.308306337897083,51.52508046915187,26.78000000002794
311850.6607,28.125492204001695,54.21744418563769,28.903677109324434,51.65351389217652,26.78100000001723
311850.6617,26.02118060231309,52.06740984716663,26.90796243141336,50.66058921850176,26.78200000000652
311850.6627,23.389341927940098,49.120909529840326,24.368694595046335,48.58556568651337,26.78299999999581
311850.6637,20.293881810635305,45.44506289801319,21.343778225329125,45.494537153202764,26.7839999999851
311850.6647,16.805407119828512,41.11190676864825,17.89896146402833,41.47694984025852,26.785000000032596
311850.6657,12.99902370475344,36.19668559978802,14.105925391413523,36.64223473721543,26.786000000021886
311850.6667,8.952964448821483,30.777361959858588,10.041066947827614,31.11670403830454,26.787000000011176
311850.6677,4.747992841120919,24.93523170620636,5.784927261988756,25.04074421173625,26.788000000000466
311850.6687,0.46740238185467514,18.756371403849343,1.422104322024133,18.566229569344078,26.788999999989755
311850.6697,-3.8026655555549915,12.33352219875991,-2.958600067855316,11.853994067964853,26.790000000037253
311850.6707,-7.9729216837393135,5.767939113340064,-7.2641032152220815,5.071147157142786,26.791000000026543
311850.6717,-11.950995707378878,-0.8292834301117149,-11.397350743200636,-1.6119908226615458,26.792000000015832
311850.6727,-15.64218397383765,-7.336857280159207,-15.258296461108738,-8.02552459973682,26.793000000005122
311850.6737,-18.951111445212902,-13.624266802227474,-18.7457637276291,-14.00430782046137,26.793999999994412
311850.6747,-21.78442483701625,-19.554260615020386,-21.760291425881256,-19.392964382462736,26.794999999983702
311850.6757,-24.054493175443177,-24.98689788212722,-24.207937288811074,-24.051489851931755,26.7960000000312
311850.6767,-25.68394319097602,-29.78498968633176,-26.004872603257983,-27.861183973986975,26.79700000002049
311850.6777,-26.610716860364843,-33.82059520913997,-27.082471018527766,-30.73054583494563,26.79800000000978
311850.6787,-26.793223559004602,-36.98207936861654,-27.392485753285367,-32.60067209285519,26.79899999999907
311850.6797,-26.215083999740376,-39.18113070470179,-26.911837451531277,-33.44964960973908,26.79999999998836
311850.6807,-24.888937924335337,-40.359088702261495,-25.64650935649609,-33.29543650167545,26.801000000035856
311850.6817,-22.858817885605625,-40.49194561901507,-23.63407280602197,-32.19678448925975,26.802000000025146
311850.6827,-20.20067719951503,-39.59346975588231,-20.944444435660703,-30.251868906212156,26.803000000014435
311850.6837,-17.020795200676393,-37.716038640233506,-17.678601553483517,-27.594453163869275,26.804000000003725
311850.6847,-13.451955880999382,-34.948959166258525,-13.965143503002816,-24.387608742794324,26.804999999993015
311850.6857,-9.647491094180735,-31.414269659263017,-9.954769929098152,-20.815222466659066,26.805999999982305
311850.6867,-5.773478236729518,-27.260245101510012,-5.812934479661821,-17.071729887156856,26.807000000029802
311850.6877,-1.999565178262171,-22.653039187098592,-1.71110640446533,-13.350696471153793,26.808000000019092
311850.6887,1.510956273203885,-17.767074340990085,2.182784593496736,-9.833007875790388,26.809000000008382
311850.6897,4.611108503161636,-12.77491544343963,5.714047747470149,-6.6755114101852016,26.80999999999767
311850.6907,7.179460360911255,-7.837421894355929,8.750361489562671,-4.000962499829259,26.81099999998696
311850.6917,9.127904870899412,-3.094959336992369,11.18964193355251,-1.890068614788128,26.81200000003446
311850.6927,10.407347855049988,1.339632643263573,12.966038663163152,-0.37629155768809863,26.81300000002375
311850.6937,11.010825275534,5.385769735413798,14.05358329571106,0.5561232448148602,26.81400000001304
311850.6947,10.97376474734097,8.997201624852698,14.467195711070074,0.9706593917915167,26.81500000000233
311850.6957,10.371332309080653,12.161324424432893,14.260959551964378,0.9736161866381913,26.815999999991618
311850.6967,9.313039093716696,14.895852912575826,13.523794250477788,0.7060677381302094,26.816999999980908
311850.6977,7.935003058378625,17.24320826709317,12.372856183542678,0.33323941299175885,26.818000000028405
311850.6987,6.390448601342168,19.263172911351493,10.945178333399904,0.03205197650521197,26.819000000017695
311850.6997,4.839164929891358,21.024508267316023,9.3881904458605,-0.022269773376872228,26.820000000006985
311850.7007,3.4367202820040386,22.596310542230828,7.849838715995609,0.33044783214838097,26.820999999996275
311850.7017,2.3242371475086068,24.039887289452793,6.469039280899599,1.222977137610568,26.821999999985565
311850.7027,1.6194734200189838,25.401873354108133,5.367152820892382,2.750232496339425,26.823000000033062
311850.7037,1.4098321752680891,26.709175721834733,4.641063672108571,4.961445628736719,26.82400000002235
311850.7047,1.7477503906880032,27.96615561830307,4.358296516991543,7.855505013609762,26.82500000001164
311850.7057,2.6487107149809006,29.154240652597068,4.554421526559482,11.379746586671198,26.82600000000093
311850.7067,4.091899516181935,30.233930608960616,5.23280200143536,15.432221223286609,26.82699999999022
311850.7077,6.023319005290845,31.148939438392887,6.366545267665186,19.86720781138806,26.82800000003772
311850.7087,8.36097042620855,31.832023759225162,7.9023451956380075,24.50351032733282,26.82900000002701
311850.7097,11.001575562849206,32.21190234482317,9.765768155866207,29.13489143420754,26.830000000016298
311850.7107,13.82820735903377,32.22058453123033,11.867444635575877,33.54186745801656,26.831000000005588
311850.7117,16.718164216675223,31.800405199426947,14.109592486022587,37.50402830726944,26.831999999994878
311850.7127,19.550447664253507,30.91011048972391,16.392315980710904,40.81205301077345,26.832999999984168
311850.7137,22.212284921546885,29.529445797532677,18.619193456980252,43.27866301233102,26.834000000031665
311850.7147,24.604266572648154,27.66185426346768,20.701776524221277,44.74788167389049,26.835000000020955
311850.7157,26.643831091390798,25.33508378807701,22.562763172195336,45.1021357236002,26.836000000010245
311850.7167,28.267005613895464,22.599704590032626,24.13776070807212,44.26692584636518,26.836999999999534
311850.7177,29.42848833391837,19.525737525256748,25.37570648447127,42.21299120403899,26.837999999988824
311850.7187,30.100315089453193,16.197766799413174,26.23814969232107,38.95607880836982,26.83900000003632
311850.7197,30.26947629641351,12.709043127330274,26.697703026992087,34.55458784255209,26.84000000002561
311850.7207,29.934929230164446,9.15516290713979,26.73603906884036,29.105479147390902,26.8410000000149
311850.7217,29.104478300206136,5.627929038615095,26.341827229581323,22.738913460374985,26.84200000000419
311850.7227,27.79197116118579,2.209958981112644,25.50898223956811,15.612105841596364,26.84299999999348
311850.7237,26.01518524735526,-1.0294892634692785,24.235528176491346,7.90286021644157,26.84399999998277
311850.7247,23.794666370541908,-4.037141856201599,22.523280958193002,-0.19681618716703864,26.845000000030268
311850.7257,21.153641006109773,-6.776622147009761,20.37842840607076,-8.48671315131114,26.846000000019558
311850.7267,18.11897202758978,-9.227671002776553,17.812954023386308,-16.763838988006466,26.847000000008848
311850.7277,14.72298026263349,-11.383868697800544,14.84672300431331,-24.8271849383571,26.847999999998137
311850.7287,11.005827166558479,-13.249204201545837,11.509940644552199,-32.48185910648687,26.848999999987427
311850.7297,7.01806094524482,-14.83395041752734,7.845616314767393,-39.54269947595245,26.850000000034925
311850.7307,2.822880006535631,-16.15036659252827,3.911629440829223,-45.837527483105646,26.851000000024214
311850.7317,-1.502330377549993,-17.208755589977844,-0.21799754585643805,-51.21021959746268,26.852000000013504
311850.7327,-5.865579013352938,-18.014353556981185,-4.452960186300337,-55.52375377631262,26.853000000002794
311850.7337,-10.161257967513304,-18.565428033977444,-8.687912341652577,-58.66333431505668,26.853999999992084
311850.7347,-14.272692898698681,-18.85281836764347,-12.805203229250207,-60.53962025324193,26.854999999981374
311850.7357,-18.07624559094587,-18.86098426436968,-16.679079914133762,-61.09198993337648,26.85600000002887
311850.7367,-21.446789961776535,-18.570452131040692,-20.181169721980304,-60.29168020112528,26.85700000001816
311850.7377,-24.264222555546855,-17.96138317179538,-23.186912686060015,-58.14455614289029,26.85800000000745
311850.7387,-26.420534695437766,-17.0178498154324,-25.58249488398967,-54.69320816045322,26.85899999999674
311850.7397,-27.82688069968496,-15.732312938967375,-27.27175240009316,-50.01804710835357,26.85999999998603
311850.7407,-28.42003569549653,-14.109752151702352,-28.182482208883798,-44.237081132184436,26.861000000033528
311850.7417,-28.167653401617464,-12.170920181791459,-28.271615491638904,-37.50411142649964,26.862000000022817
311850.7427,-27.071808895749818,-9.954269074958647,-27.528780559227588,-30.005175521055847,26.863000000012107
311850.7437,-25.170438094325494,-7.516223262693001,-25.977901161391745,-21.953188737176426,26.864000000001397
311850.7447,-22.536453351958656,-4.9296399451469295,-23.676631184235013,-13.580876351866614,26.864999999990687
311850.7457,-19.274507836986206,-2.2804838731728774,-20.713604382851244,-5.132237452918901,26.866000000038184
311850.7467,-15.51558197831721,0.33706769620873045,-17.203661212489298,3.1470780298011505,26.867000000027474
311850.7477,-11.409754178988695,2.8267029601508007,-13.281386574552673,11.019979266547141,26.868000000016764
311850.7487,-7.117677021254755,5.096713899140084,-9.093435945143467,18.268147803975623,26.869000000006054
311850.7497,-2.801394057881486,7.066786695078222,-4.790229147482007,24.701630733933914,26.869999999995343
311850.7507,1.3848099039488373,8.674209482259215,-0.5176412942386789,30.167199915696383,26.870999999984633
311850.7517,5.302835794273794,9.87889879681427,3.5906854560365504,34.5549232880451,26.87200000003213
311850.7527,8.837849932583136,10.666741816270298,7.41984684575211,37.8025006761685,26.87300000002142
311850.7537,11.903510888441664,11.050897827004713,10.878545919918555,39.897061292364775,26.87400000001071
311850.7547,14.445000270307903,11.070885303821541,13.90202308446448,40.874291762024875,26.875
311850.7557,16.439703880701348,10.789482929122437,16.452915332735138,40.814947957843025,26.87599999998929
311850.7567,17.895589125291973,10.287674414542485,18.52009293688471,39.838986031496304,26.877000000036787
311850.7577,18.847515340360918,9.658048832385271,20.115692387809492,38.09771284524943,26.878000000026077
311850.7587,19.35187858876591,8.997213024089072,21.27071002278667,35.76449010334482,26.879000000015367
311850.7597,19.48011704552868,8.397866857566491,22.02962877546686,33.024619112136264,26.880000000004657
311850.7607,19.311677019979903,7.941226857762991,22.44461185413439,30.065077066205113,26.880999999993946
311850.7617,18.927057576847933,7.690455875464731,22.56980755537672,27.064768000318832,26.881999999983236
311850.7627,18.40151360117623,7.6856686852977525,22.456269413146362,24.185893333735073,26.883000000030734
311850.7637,17.799908183887126,7.940943940751871,22.147910749174354,21.566943705493692,26.884000000020023
311850.7647,17.173075150154673,8.443594686139825,21.67879180137216,19.317674659648496,26.885000000009313
311850.7657,16.555894722338696,9.155749011883579,21.07189342749708,17.516265643092623,26.885999999998603
311850.7667,15.967115225237844,10.018087740792275,20.339378215466734,16.208688499400353,26.886999999987893
311850.7677,15.410787635517709,10.955395790367865,19.484192433517325,15.41014260058697,26.88800000003539
311850.7687,14.879033066565935,11.883425176663167,18.502734441347254,15.108262809450885,26.88900000002468
311850.7697,14.355749161367967,12.716454657062634,17.38821858129423,15.267685738817077,26.89000000001397
311850.7707,13.820789650765601,13.37487369682757,16.13430658386433,15.835478666277965,26.89100000000326
311850.7717,13.254127623099885,13.792121664272187,14.738565644459733,16.746899852634467,26.89199999999255
311850.7727,12.639538309868607,13.920376309957208,13.20534380216653,17.93097077390085,26.89299999998184
311850.7737,11.967407758200643,13.73450265830261,11.547725138147262,19.31539763476197,26.894000000029337
311850.7747,11.236381767071704,13.233933573110635,9.788331925735207,20.830475272579406,26.895000000018626
311850.7757,10.45370363228043,12.44234171947657,7.9588675403312505,22.41173159534274,26.896000000007916
311850.7767,9.634235977398413,11.405162167166212,6.098430046051841,24.001212922246516,26.896999999997206
311850.7777,8.798306614841094,10.185217236986562,4.250758511059408,25.547456494446827,26.897999999986496
311850.7787,7.968646695868223,8.856862864097002,2.4606893268718677,27.00433229619542,26.899000000033993
311850.7797,7.166788765829174,7.499203551048891,0.7701868534744208,28.32904954917332,26.900000000023283
311850.7807,6.409353005867958,6.188999460923413,-0.7856369554280774,29.479703436007473,26.901000000012573
311850.7817,5.704665975084199,4.993907723088632,-2.182090671201845,30.412777605256085,26.902000000001863
311850.7827,5.050126001350089,3.9666593926288427,-3.407670032930213,31.081014526572876,26.902999999991152
311850.7837,4.43065597930582,3.1406780656923616,-4.465707444170464,31.432019710549035,26.90400000003865
311850.7847,3.818474972232858,2.527505377660804,-5.374694644066242,31.407882192514975,26.90500000002794
311850.7857,3.174285530323655,2.116226184220135,-6.1671970250649535,30.94598112532221,26.90600000001723
311850.7867,2.44982744323823,1.8748987324967712,-6.887415855164864,29.98101822622232,26.90700000000652
311850.7877,1.5916054150487986,1.7538104645810202,-7.587588507187279,28.448181228047428,26.90799999999581
311850.7887,0.5454723837938962,1.6902157452483255,-8.323533403948995,26.287217822985244,26.9089999999851
311850.7897,-0.7383452132689703,1.614083169983319,-9.149734053016795,23.447095343049284,26.910000000032596
311850.7907,-2.3002490441446137,1.4542990244765217,-10.114406336165857,19.89084890422957,26.911000000021886
311850.7917,-4.166774976918729,1.1447470666064479,-11.254999896903456,15.60018706342326,26.912000000011176
311850.7927,-6.347042379266885,0.6297148338616025,-12.594547052645543,10.579432404521786,26.913000000000466
311850.7937,-8.830502127282857,-0.13184065783191085,-14.139194570191746,4.858423860160829,26.913999999989755
311850.7947,-11.58621924943866,-1.1635086299978392,-15.877142418764,-1.5059071587364947,26.915000000037253
311850.7957,-14.563781897039458,-2.470305719499973,-17.77908018280736,-8.429462359357332,26.916000000026543
311850.7967,-17.695773787735746,-4.039235649295414,-19.80006942560286,-15.802451345962961,26.917000000015832
311850.7977,-20.901597953768125,-5.841372631181862,-21.882683186096987,-23.492332233644632,26.918000000005122
311850.7987,-24.09231069530367,-7.835166195207277,-23.96109575479715,-31.348014330181535,26.918999999994412
311850.7997,-27.17602929628664,-9.970552679754954,-25.96572883478387,-39.20502098215023,26.919999999983702
311850.8007,-30.06342518354284,-12.19339238377796,-27.82801297829865,-46.8912442601911,26.9210000000312
311850.8017,-32.67281130285293,-14.449737699128681,-29.484820606355754,-54.2328944424135,26.92200000002049
311850.8027,-34.93437907191287,-16.689477263273854,-30.882169242821973,-61.060258174861715,26.92300000000978
311850.8037,-36.7932317952065,-18.86898960839176,-31.977876511490507,-67.21292743475104,26.92399999999907
311850.8047,-38.21098867974222,-20.952567168334394,-32.74296346468201,-72.54424071807078,26.92499999998836
311850.8057,-39.16588361006879,-22.912523999793297,-33.16173810642944,-76.92477866485656,26.926000000035856
311850.8067,-39.65144020461592,-24.728061672843126,-33.23063255741953,-80.24486683717086,26.927000000025146
311850.8077,-39.67395306386633,-26.38312000858339,-32.95600045098958,-82.41614584292212,26.928000000014435
311850.8087,-39.2491289863282,-27.863566033583297,-32.351191870590014,-83.37236116397585,26.929000000003725
311850.8097,-38.398328103999965,-29.15416158538861,-31.43329965154488,-83.06959140847731,26.929999999993015
311850.8107,-37.14488397269712,-30.23578738711124,-30.22000480881909,-81.48616674085437,26.930999999982305
311850.8117,-35.51096901770746,-31.083384189298506,-28.726936171161356,-78.62252524738575,26.932000000029802
311850.8127,-33.51540806149864,-31.665000534525714,-26.965900735093747,-74.5012145381033,26.933000000019092
311850.8137,-31.17273392436866,-31.942218313694738,-24.94424229503476,-69.16717378722636,26.934000000008382
311850.8147,-28.493636013407734,-31.872073143320687,-22.665456308743167,-62.688336266752465,26.93499999999767
311850.8157,-25.486789828908677,-31.410412286966746,-20.13104178506644,-55.15648570165845,26.93599999998696
311850.8167,-22.16188913329352,-30.51645642045389,-17.34342133085306,-46.688194603687386,26.93700000003446
311850.8177,-18.533550478219112,-29.158171707616948,-14.309623998812025,-37.42558251082105,26.93800000002375
311850.8187,-14.625638082012443,-27.31793288351614,-11.04531684241578,-27.536568953905316,26.93900000001304
311850.8197,-10.475479136169383,-24.997880772376714,-7.578702203768003,-17.214269612683402,26.94000000000233
311850.8207,-6.1374147856001295,-22.224358776607552,-3.953777073909398,-6.67520045905276,26.940999999991618
311850.8217,-1.6851644155018939,-19.050856588741365,-0.23248205742829098,3.8439847618119813,26.941999999980908
311850.8227,2.787431009063687,-15.558993732837648,3.5046508719147464,14.091396802206077,26.943000000028405
311850.8237,7.1675840462595435,-11.85723244127045,7.159616989849177,23.806491224093715,26.944000000017695
311850.8247,11.326778467329365,-8.077205277302204,10.619930313336726,32.72820867215939,26.945000000006985
311850.8257,15.125959652170943,-4.367760075629083,13.763417260371382,40.604393594647235,26.945999999996275
311850.8267,18.422431395956842,-0.8870429091375421,16.464562663503184,47.2020553692096,26.946999999985565
311850.8277,21.07801293488861,2.2068619741071145,18.601994508446413,52.31790602965482,26.948000000033062
311850.8287,22.967864319769042,4.766057410285574,20.06656136656134,55.788517985299286,26.94900000002235
311850.8297,23.98929158432872,6.662942523338913,20.769368971839086,57.49940435002232,26.95000000001164
311850.8307,24.06980588431904,7.799487892123307,20.649109272073524,57.39234055144723,26.95100000000093
311850.8317,23.173737937161068,8.114893863211478,19.678041167268717,55.470320533213375,26.95199999999022
311850.8327,21.306799760322164,7.5909548714075,17.86606624854293,51.799670522991676,26.95300000003772
311850.8337,18.518133083809353,6.254620940473876,15.262478996117329,46.50901930742819,26.95400000002701
311850.8347,14.89957577129184,4.177464733575383,11.955148035203187,39.785033060943434,26.955000000016298
311850.8357,10.582097743211923,1.4720102002931632,8.067088209712518,31.865048473938224,26.956000000005588
311850.8367,5.7295870771798905,-1.7148644204041215,3.7505948370431335,23.026961715645733,26.956999999994878
311850.8377,0.5303849208624803,-5.21099330776213,-0.8206870624020849,13.576933806580803,26.957999999984168
311850.8387,-4.812844885004638,-8.829795580038931,-5.461212481834951,3.835637765119465,26.959000000031665
311850.8397,-10.094185930828953,-12.382135775683842,-9.983829558342128,-5.87611513470364,26.960000000020955
311850.8407,-15.115674331982817,-15.688268683309557,-14.210166909475268,-15.251483775688937,26.961000000010245
311850.8417,-19.69782264312563,-18.58895558130343,-17.98035514256711,-24.01057325356476,26.961999999999534
311850.8427,-23.688704313291947,-20.95490750858108,-21.16137601093176,-31.91149796375071,26.962999999988824
311850.8437,-26.970962626880514,-22.69385209589124,-23.65344622604422,-38.758898033095335,26.96400000003632
311850.8447,-29.466283897733323,-23.754721618794033,-25.394006718815014,-44.40947079363118,26.96500000002561
311850.8457,-31.137088412767998,-24.12870361160733,-26.359087760115997,-48.774306433033495,26.9660000000149
311850.8467,-31.98542505270009,-23.84715993737513,-26.562038027697085,-51.81805713266902,26.96700000000419
311850.8477,-32.04928569700492,-22.976681946381383,-26.049821933502532,-53.55520141308198,26.96799999999348
311850.8487,-31.39676270468517,-21.611784743208435,-24.897284868081027,-54.04387022484589,26.96899999998277
311850.8497,-30.11863837808677,-19.865931464747057,-23.199942953237553,-53.37786124985669,26.970000000030268
311850.8507,-28.320104731126793,-17.861702087835233,-21.06595848018226,-51.677569767999955,26.971000000019558
311850.8517,-26.112355804489095,-15.720969885661935,-18.608005435093574,-49.08060055465323,26.972000000008848
311850.8527,-23.604770134535787,-13.555918546067211,-15.935708163337338,-45.7327940037933,26.972999999998137
311850.8537,-20.89831123146989,-11.461627885014742,-13.149253191890772,-41.780305694512045,26.973999999987427
311850.8547,-18.080628644637684,-9.51078682878761,-10.33463823156381,-37.36323240406083,26.975000000034925
311850.8557,-15.223156167278534,-7.750875699628827,-7.560847095251515,-32.611094324075644,26.976000000024214
311850.8567,-12.380295467991669,-6.203916987063735,-4.879041999474787,-27.64028138154258,26.977000000013504
311850.8577,-9.590563355615647,-4.8686481855976735,-2.3236647035421165,-22.55337091642421,26.978000000002794
311850.8587,-6.879389337724731,-3.724745408580497,0.08484551320711338,-17.44004378385343,26.978999999992084
311850.8597,-4.2630954258505165,-2.7385435650946466,2.3361584365605235,-12.379183070107347,26.979999999981374
311850.8607,-1.7534867752120935,-1.8695748194490942,4.425526817604853,-7.441646854346278,26.98100000002887
311850.8617,0.6375609546505128,-1.07719282332513,6.3492144856434924,-2.693171420719125,26.98200000001816
311850.8627,2.8941103915461266,-0.32656984933746896,8.100449048692793,1.803114226321539,26.98300000000745
311850.8637,4.993278122282504,0.4065557948743156,9.66639489806402,5.985001953045867,26.98399999999674
311850.8647,6.903833926463342,1.1328539885525164,11.02651767264001,9.790660181297342,26.98499999998603
311850.8657,8.586488357807454,1.8483754057649668,12.152549956809027,13.159388534575683,26.986000000033528
311850.8667,9.995881390920701,2.535579818715427,13.010086391254488,16.033656410894583,26.987000000022817
311850.8677,11.084092165723575,3.166256031348766,13.561653038098644,18.362241891577995,26.988000000012107
311850.8687,11.8053160446273,3.705968321177997,13.770929255572801,20.104139709472705,26.989000000001397
311850.8697,12.121217746042298,4.119503475257915,13.60766719017986,21.23279538103441,26.989999999990687
311850.8707,12.006382017901636,4.376687661190083,13.052767527759547,21.740158450237637,26.991000000038184
311850.8717,11.45325489654678,4.457903380156066,12.102938870791904,21.64003762185773,26.992000000027474
311850.8727,10.476001900294008,4.358666821165865,10.774395011159987,20.970285454867568,26.993000000016764
311850.8737,9.112801246737797,4.092721374836908,9.105126663936229,19.793435845588245,26.994000000006054
311850.8747,7.426231321519105,3.693253731310949,7.155413713862695,18.195554386113944,26.994999999995343
311850.8757,5.501588322734174,3.212029408185537,5.006407948604053,16.28322647098632,26.995999999984633
311850.8767,3.4431650228228685,2.7164555399364962,2.7567986154484814,14.178784717549577,26.99700000003213
311850.8777,1.3687160164958057,2.284789343664135,0.5177562976973861,12.014048733952263,26.99800000002142
311850.8787,-0.5974900768998135,1.9999001829745902,-1.5934830071669346,9.922999912090848,26.99900000001071
311850.8797,-2.332491975676309,1.9421431899800476,-3.4608979371501905,8.033927217970675,27.0
311850.8807,-3.722701465792496,2.1819985879599657,-4.977241686370197,6.461645790479564,27.00099999998929
311850.8817,-4.671552328536926,2.7731641100501863,-6.051262398291878,5.3004018585527914,27.002000000036787
311850.8827,-5.106100005453656,3.7467552549343868,-6.613986103009814,4.618033396150256,27.003000000026077
311850.8837,-4.982026142591534,5.107172883040741,-6.623540203137161,4.451859595393594,27.004000000015367
311850.8847,-4.286638442858565,6.830049083358472,-6.068118700195378,4.806632081309963,27.005000000004657
311850.8857,-3.039629403320862,8.86249458373229,-4.966849236907675,5.654709399936522,27.005999999993946
311850.8867,-1.291551309885214,11.125662123299406,-3.3685018062452468,6.9384293035065285,27.006999999983236
311850.8877,0.8798387717595558,13.519429978899879,-1.3481629863680822,8.574467976286206,27.008000000030734
311850.8887,3.375029577436953,15.928818126563161,0.9978291584365944,10.459808873977886,27.009000000020023
311850.8897,6.079519051368172,18.23159439833469,3.558251502076099,12.478811975733612,27.010000000009313
311850.8907,8.871305489149972,20.3064240091957,6.214124093979184,14.510789536841289,27.010999999998603
311850.8917,11.628474159775108,22.040872609876146,8.846009573595532,16.437465054476554,27.011999999987893
311850.8927,14.236259091890158,23.33859436287764,11.34089661622458,18.149721015384536,27.01300000003539
311850.8937,16.593029044058483,24.125120032010287,13.598137421349682,19.553125319833143,27.01400000002468
311850.8947,18.614766190059623,24.351797342736273,15.534014040712313,20.57185782261643,27.01500000001397
311850.8957,20.237763709375404,23.99761338320147,17.08465020446191,21.15082420504052,27.01600000000326
311850.8967,21.419448595575677,23.068829218046485,18.207150183638763,21.255927894574548,27.01699999999255
311850.8977,22.137420764069446,21.596560693902326,18.8790179262516,20.87265361022534,27.01799999998184
311850.8987,22.386970746810714,19.63262691687597,19.09607145278495,20.00327993581242,27.019000000029337
311850.8997,22.17747909400007,17.244141063518924,18.86920359168166,18.663166565073205,27.020000000018626
311850.9007,21.528197309043637,14.507422476400235,18.2204374767112,16.876641531970677,27.021000000007916
311850.9017,20.463953395727405,11.501854673554393,17.17877460907335,14.673036753737753,27.021999999997206
311850.9027,19.011310928682477,8.304297033422007,15.776330303494204,12.083384251064906,27.022999999986496
311850.9037,17.195640769145555,4.984580726785782,14.045196827824876,9.138194170847534,27.024000000033993
311850.9047,15.039446535349349,1.6024901094176682,12.015374510772139,5.866598586893456,27.025000000023283
311850.9057,12.562130965477362,-1.793537455056523,9.713976099780309,2.296976075374808,27.026000000012573
311850.9067,9.781216289391834,-5.165950404548562,7.1657537775596705,-1.5410113753994912,27.027000000001863
311850.9077,6.714855610857677,-8.48601007458703,4.394837664216893,-5.613216558723758,27.027999999991152
311850.9087,3.385312298704811,-11.730431433529697,1.4274259847140875,-9.877043814756684,27.02900000003865
311850.9097,-0.17704288263136206,-14.877203862518956,-1.7049541932135859,-14.277244582105038,27.03000000002794
311850.9107,-3.9297483241940303,-17.901150507985566,-4.96207796170348,-18.74205690532182,27.03100000001723
311850.9117,-7.814839453735965,-20.769818521053068,-8.29204011721276,-23.180279730680855,27.03200000000652
311850.9127,-11.756533533415,-23.44026435497842,-11.629134019661109,-27.479817403821322,27.03299999999581
311850.9137,-15.660449006520397,-25.857210785280365,-14.8929954395075,-31.508117355229533,27.0339999999851
311850.9147,-19.4146610955078,-27.952913914438415,-17.98929942551672,-35.11476406141097,27.035000000032596
311850.9157,-22.892724095895886,-29.648902652830046,-20.81214900381305,-38.13629911112725,27.036000000021886
311850.9167,-25.95860037712937,-30.85955729286816,-23.24812602378715,-40.40312796986074,27.037000000011176
311850.9177,-28.473244594968634,-31.497297130055802,-25.181802967064716,-41.74816789562896,27.038000000000466
311850.9187,-30.302417376786206,-31.478969133463636,-26.502356699600448,-42.01670745990795,27.038999999989755
311850.9197,-31.325162612938836,-30.73288823732482,-27.11079645964275,-41.07680357294517,27.040000000037253
311850.9207,-31.442290276741414,-29.205889320077503,-26.927231684167186,-38.829450810091245,27.041000000026543
311850.9217,-30.584171881392603,-26.86972096826229,-25.897569592282725,-35.21772962082023,27.042000000015832
311850.9227,-28.717182538814548,-23.72614556041847,-23.99905208665543,-30.234178655213555,27.043000000005122
311850.9237,-25.84821076448233,-19.810206761792156,-21.244115707798585,-23.92574007067767,27.043999999994412
311850.9247,-22.0267977799838,-15.191275897526976,-17.682181197376057,-16.395787608514972,27.044999999983702
311850.9257,-17.344650229300242,-9.971679279261839,-13.399140206545228,-7.802952599834099,27.0460000000312
311850.9267,-11.932478114087468,-4.2829217366567915,-8.514491636238139,1.6433040851199259,27.04700000002049
311850.9277,-5.954324970884645,1.7202627452737123,-3.1762723960755115,11.690185380277054,27.04800000000978
311850.9287,0.4002394405990843,7.867604886465936,2.4458905155430872,22.051699726011083,27.04899999999907
311850.9297,6.9255208062644185,13.98214988373576,8.169124565063518,32.42083810164775,27.04999999998836
311850.9307,13.41002643941515,19.88956739458904,13.806457070503676,42.48302603881808,27.051000000035856
311850.9317,19.64697714096702,25.427182762786842,19.17610384584682,51.930004042963645,27.052000000025146
311850.9327,25.444260832677745,30.45201570303845,24.110239409297808,60.473271489108136,27.053000000014435
311850.9337,30.6331430677273,34.84720422296416,28.46264073964775,67.85627911853908,27.054000000003725
311850.9347,35.075166675838204,38.526340846625494,32.11470259038985,73.86466807043116,27.054999999993015
311850.9357,38.66683662794513,41.435440824331096,34.97947023879626,78.33401763083363,27.055999999982305
311850.9367,41.34188085567399,43.55247926086143,37.00351076556365,81.15476381167106,27.057000000029802
311850.9377,43.071084602692494,44.8846548308535,38.16662954413218,82.27416789546996,27.058000000019092
311850.9387,43.85989539947363,45.46374054876885,38.479616834624245,81.69542866553039,27.059000000008382
311850.9397,43.74416950025185,45.3400473724271,37.980363553952046,79.47422565009795,27.05999999999767
311850.9407,42.78456307000373,44.57563853485695,36.728801491712844,75.71313758012505,27.06099999998696
311850.9417,41.060151437902775,43.237481105548746,34.80119161096594,70.55448883441265,27.06200000003446
311850.9427,38.66188164603992,41.39120245043582,32.28429975894866,64.17223051119934,27.06300000002375
311850.9437,35.686427489444554,39.09603577782619,29.269962626797238,56.76346103479393,27.06400000001304
311850.9447,32.23092813653876,36.40139997777045,25.85046383023359,48.54013831905545,27.06500000000233
311850.9457,28.38896206752318,33.345379014501596,22.115020694510218,39.721440505900866,27.065999999991618
311850.9467,24.24795203613941,29.955163606693798,18.147540198637742,30.52710766554902,27.066999999980908
311850.9477,19.888030778947055,26.249313199298463,14.025652917169396,21.171957089817628,27.068000000028405
311850.9487,15.382238418938911,22.241509590354063,9.820892307673883,11.861624891451997,27.069000000017695
311850.9497,10.797786770779869,17.94532323010302,5.599767615634031,2.789460441106677,27.070000000006985
311850.9507,6.198026003603569,13.37941348562361,1.425393545464134,-5.865600760721368,27.070999999996275
311850.9517,1.644694187369845,8.572544141181277,-2.6407036402068775,-13.940427763560765,27.071999999985565
311850.9527,-2.7999759304778014,3.567818083830098,-6.53698264727204,-21.28862054192296,27.073000000033062
311850.9537,-7.071677243787591,-1.5743827803752026,-10.200820934127282,-27.7812370646608,27.07400000002235
311850.9547,-11.10327734368374,-6.77513396833479,-13.568238938541684,-33.307545684187026,27.07500000001164
311850.9557,-14.825084203872622,-11.937594167703171,-16.574559333343473,-37.77596122780209,27.07600000000093
311850.9567,-18.16618482452815,-16.949545676156436,-19.15602265249651,-41.11524074843971,27.07699999999022
311850.9577,-21.05677854030298,-21.687687341524896,-21.252256525012754,-43.27592714158695,27.07800000003772
311850.9587,-23.43130367801,-26.023348746411596,-22.809384375010712,-44.23194655934732,27.07900000002701
311850.9597,-25.232057866692713,-29.829160108133234,-23.783472748569118,-43.982198339338744,27.080000000016298
311850.9607,-26.412948624113824,-32.98612533223907,-24.14396351021221,-42.551931422054984,27.081000000005588
311850.9617,-26.942987980914545,-35.390513310957914,-23.876723351034006,-39.99368349652176,27.081999999994878
311850.9627,-26.809164469243903,-36.9600067115363,-22.98636945617676,-36.38756972388567,27.082999999984168
311850.9637,-26.018384855378866,-37.63862429623699,-21.497593605225866,-31.840744984337586,27.084000000031665
311850.9647,-24.59826946632305,-37.40005325808853,-19.45530038115624,-26.485922476024626,27.085000000020955
311850.9657,-22.596698493540387,-36.24917903887281,-16.92348844640339,-20.478905250166875,27.086000000010245
311850.9667,-20.0801297695659,-34.2217658188685,-13.982924958813491,-13.995167578666235,27.086999999999534
311850.9677,-17.13082793688395,-31.382404481457453,-10.72777940983796,-7.225601118795223,27.087999999988824
311850.9687,-13.843247998333498,-27.82099016458686,-7.2614823590554165,-0.3716083039258581,27.08900000003632
311850.9697,-10.31989218869136,-23.648104574730315,-3.692146443284056,6.360224821465976,27.09000000002561
311850.9707,-6.667000149788725,-18.9897487132538,-0.12792424777738814,12.763617071450788,27.0910000000149
311850.9717,-2.9904344771706657,-13.981893761478045,3.3273236807597337,18.63798096136024,27.09200000000419
311850.9727,0.6079130977689471,-8.76529084914009,6.577717095912902,23.793474523032714,27.09299999999348
311850.9737,4.032941169854495,-3.480908588814515,9.53814103141531,28.055524570063163,27.09399999998277
311850.9747,7.198228530331981,1.7337405712851983,12.135968710737593,31.268692802037553,27.095000000030268
311850.9757,10.026953973817427,6.74725551021545,14.311680723870444,33.29982883496975,27.096000000019558
311850.9767,12.45192415763129,11.435993633148891,16.018460118086765,34.0405282652986,27.097000000008848
311850.9777,14.414897023278408,15.684854018745517,17.220955761425373,33.40898039156714,27.097999999998137
311850.9787,15.865476223060373,19.387452159646593,17.89349832164226,31.351340973697894,27.098999999987427
311850.9797,16.759908195773313,22.446019367264633,18.0181141964634,27.84279363030014,27.100000000034925
311850.9807,17.060130807473985,24.771393898514113,17.582705402281384,22.88846468255886,27.101000000024214
311850.9817,16.73339749777582,26.283456748247016,16.57974418727416,16.52432889301888,27.102000000013504
311850.9827,15.752734655516376,26.91230319804215,15.005770598403345,8.818189340933948,27.103000000002794
311850.9837,14.098387860383681,26.60033707467257,12.861884296581914,-0.12926134512060783,27.103999999992084
311850.9847,11.760284018641215,25.30533838001396,10.155297412783161,-10.183380989683748,27.104999999981374
311850.9857,8.741393833511577,23.004400428795567,6.901875197128348,-21.174694957226933,27.10600000002887
311850.9867,5.061737091691091,19.69847630098998,3.129449775145851,-32.89845116375184,27.10700000001816
311850.9877,0.7626472167005832,15.417133649620624,-1.1184355796453276,-45.11493868944992,27.10800000000745
311850.9887,-4.089184069270416,10.223008286651543,-5.778794358223588,-57.5509295731865,27.10899999999674
311850.9897,-9.398414119512545,4.215384586710251,-10.765979787318324,-69.90259795246752,27.10999999998603
311850.9907,-15.039042700668524,-2.4676753473257906,-15.969497244022653,-81.84022108718526,27.111000000033528
311850.9917,-20.854171878606167,-9.64917680801346,-21.25331906720544,-93.01487241968289,27.112000000022817
311850.9927,-26.65790592292932,-17.115419999229264,-26.457081134902705,-103.06718189334154,27.113000000012107
311850.9937,-32.239610583330446,-24.62085044657287,-31.399400848832087,-111.63807221885038,27.114000000001397
311850.9947,-37.37056174226266,-31.895565526480436,-35.883381161341426,-118.38119476014488,27.114999999990687
311850.9957,-41.81280472357527,-38.65528099619676,-39.70416985358803,-122.97660147089852,27.116000000038184
311850.9967,-45.32983599979494,-44.61333069466808,-42.658244973780775,-125.1450178068032,27.117000000027474
311850.9977,-47.6985282610713,-49.49406234614764,-44.55391478799513,-124.66194370808563,27.118000000016764
311850.9987,-48.72156649094785,-53.046823512632145,-45.22237168677314,-121.37072168557083,27.119000000006054
311850.9997,-48.23956282743876,-55.05962203498404,-44.528539650457155,-115.19368526517823,27.119999999995343
311851.0007,-46.141983207501944,-55.37150770719363,-42.38091547602739,-106.1405450235671,27.120999999984633
311851.0017,-42.37605512442406,-53.882763073455806,-38.7396311207367,-94.31328460442323,27.12200000003213
311851.0027,-36.95293295004624,-50.56211063315501,-33.62205835940933,-79.90702036939429,27.12300000002142
311851.0037,-29.95056838380551,-45.450333635179675,-27.105431492249394,-63.20651433259257,27.12400000001071
311851.0047,-21.512955887833318,-38.65995359701096,-19.326167397259105,-44.57830388417935,27.125
311851.0057,-11.845678720259802,-30.37088978063429,-10.475798409587071,-24.45870253944752,27.12599999998929
311851.0067,-1.2079492729488113,-20.822320476732703,-0.7936826800410088,-3.3382102535809217,27.127000000036787
311851.0077,10.098404755333515,-10.30124791308436,9.443102331636362,18.25687382908051,27.128000000026077
311851.0087,21.742331319440492,0.8714865002565522,19.932065461894325,39.78464062690364,27.129000000015367
