TimeStamp,ECR,FCR,ECU,FCU,time_index
311894.8797,-9.116338576069051,3.266444548967148,-8.446818498900177,-0.2965771281861043,71.0
311894.8807,-10.576119731648339,2.6573594872684536,-9.277018463227353,-2.040213571920654,71.00099999998929
311894.8817,-12.290975437836156,1.75824245103737,-10.308154179187994,-4.062806398429655,71.00200000003679
311894.8827,-14.25784329830482,0.5617771331474516,-11.533982256377797,-6.358504260132128,71.00300000002608
311894.8837,-16.4476177668799,-0.9156322351739754,-12.927522998871169,-8.896974085365084,71.00400000001537
311894.8847,-18.806146982678168,-2.634551752985644,-14.442328556616488,-11.624025646854326,71.00500000000466
311894.8857,-21.257254465728444,-4.5351387476401595,-16.015425330814136,-14.46413625466114,71.00599999999395
311894.8867,-23.707521674823873,-6.541435702197006,-17.57167739322583,-17.324654688996134,71.00699999998324
311894.8877,-26.052420325093156,-8.566933712389702,-19.029191541863057,-20.10132643222618,71.00800000003073
311894.8887,-28.18327562997427,-10.520895858135551,-20.30529461660191,-22.684680534580874,71.00900000002002
311894.8897,-29.99448267160373,-12.314874746803005,-21.322568100356666,-24.96676063605612,71.01000000000931
311894.8907,-31.39039256426484,-13.868856983535812,-22.01442776723005,-26.847672995581224,71.0109999999986
311894.8917,-32.29133245090727,-15.11651970137168,-22.329786451598494,-28.24146237599385,71.01199999998789
311894.8927,-32.63831810158121,-16.00918452090408,-22.236430554950672,-29.080907247491684,71.01300000003539
311894.8937,-32.396149941952814,-16.518191744075747,-21.722866292800504,-29.32093993736808,71.01400000002468
311894.8947,-31.55473926887069,-16.63557800258776,-20.79853742361691,-28.940532946487643,71.01500000001397
311894.8957,-30.12867566048728,-16.37310764057705,-19.492467944822224,-27.94303573787163,71.01600000000326
311894.8967,-28.155203071078788,-15.759864993752966,-17.850526189699867,-26.3550825445295,71.01699999999255
311894.8977,-25.690905770276405,-14.838745812766739,-15.931627121054818,-24.22430784337252,71.01799999998184
311894.8987,-22.80750361455176,-13.66227850478259,-13.803275953980346,-21.616191157093255,71.01900000002934
311894.8997,-19.587210328486464,-12.28825081008613,-11.536900579116674,-18.61039926323167,71.02000000001863
311894.9007,-16.118114297295214,-10.775611080254317,-9.203418863226695,-15.296998347042381,71.02100000000792
311894.9017,-12.489999553361056,-9.181056868097178,-6.869440625933949,-11.772872219801782,71.0219999999972
311894.9027,-8.790940738333338,-7.556623612681349,-4.594418264157417,-8.138610822180215,71.0229999999865
311894.9037,-5.104889640709946,-5.948453822078899,-2.4289438921759383,-4.496034939138372,71.024000000034
311894.9047,-1.51033547357956,-4.3967767006734855,-0.4142567633271797,-0.9464102114840577,71.02500000002328
311894.9057,1.9200187180474737,-2.9369759155456787,1.4171133094336483,2.4107105137118703,71.02600000001257
311894.9067,5.11874997137187,-1.6014856673769946,3.0397683954826205,5.478179245876864,71.02700000000186
311894.9077,8.022669924106275,-0.42214749526850365,4.433236384345721,8.161719486811267,71.02799999999115
311894.9087,10.571597611960748,0.5674056324173118,5.579511104574404,10.370451087751807,71.02900000003865
311894.9097,12.707331566570206,1.3297876074501889,6.460740255689496,12.017760651500918,71.03000000002794
311894.9107,14.373178552137407,1.8227333837760773,7.0574445310208835,13.022767091219174,71.03100000001723
311894.9117,15.514327546176318,1.9991368870176327,7.347589385100536,13.312555842304318,71.03200000000652
311894.9127,16.07925057142964,1.8084530668184862,7.306731344278605,12.825248034294772,71.03299999999581
311894.9137,16.02217767155139,1.1995080269270597,6.909333553801762,11.513843673717389,71.0339999999851
311894.9147,15.306545743131803,0.12459131287945173,6.1312033578546385,9.350644201020073,71.0350000000326
311894.9157,13.909175858054558,-1.4554612180394784,4.952862792253017,6.331934584098647,71.03600000002189
311894.9167,11.82480704248527,-3.565629388026433,3.3635358666992974,2.4825030944057236,71.03700000001118
311894.9177,9.07052066376809,-6.211057219855879,1.3653381305969663,-2.140488969180426,71.03800000000047
311894.9187,5.6895400991103475,-9.371985734317073,-1.0228046559862052,-7.444795272383085,71.03899999998976
311894.9197,1.7538925280040034,-12.999865863449934,-3.761993556310624,-13.302006228494696,71.04000000003725
311894.9207,-2.634524193288311,-17.015185134912176,-6.791395815843554,-19.54849695014236,71.04100000002654
311894.9217,-7.344819602725068,-21.307422923169685,-10.027847272881171,-25.988662575280674,71.04200000001583
311894.9227,-12.220133996082781,-25.737382801774405,-13.36725184585682,-32.400533122877846,71.04300000000512
311894.9237,-17.082827811417612,-30.14195103525435,-16.68785568733026,-38.543666910573634,71.04399999999441
311894.9247,-21.741664291856637,-34.34111531331934,-19.855301676098826,-44.169021187277245,71.0449999999837
311894.9257,-26.000623319648977,-38.14686723556967,-22.729198610937786,-49.030309303925094,71.0460000000312
311894.9267,-29.668817188678005,-41.37342571120066,-25.170785187261327,-52.896193545431956,71.04700000002049
311894.9277,-32.570850756452,-43.84807448059181,-27.0511467434817,-55.5625477883837,71.04800000000978
311894.9287,-34.55689225227536,-45.42181999183223,-28.259365292520116,-56.863966975222716,71.04899999999907
311894.9297,-35.51170583199074,-45.979055482345345,-28.709958983957936,-56.683708679233234,71.04999999998836
311894.9307,-35.36194609698049,-45.44546694194227,-28.348999526081705,-54.96132771070972,71.05100000003586
311894.9317,-34.081125666691314,-43.79353385579354,-27.158383641269342,-51.697403642441294,71.05200000002515
311894.9327,-31.691831169579018,-41.04515316414565,-25.157870567069292,-46.954953330360624,71.05300000001444
311894.9337,-28.264967273646263,-37.27113414666139,-22.40467057567902,-40.85735094866038,71.05400000000373
311894.9347,-23.916035291013255,-32.58755615204693,-18.990564494291707,-33.58282797627535,71.05499999999302
311894.9357,-18.79868280841949,-27.14922896050489,-15.036734059698457,-25.355874119342516,71.0559999999823
311894.9367,-13.095973548138984,-21.140725268719304,-10.686669779608014,-16.436086313251245,71.0570000000298
311894.9377,-7.010003448609613,-14.765646007522863,-6.097679973873124,-7.105197462491295,71.05800000001909
311894.9387,-0.7506141044819553,-8.234915030072056,-1.4316376221906926,2.346856256958025,71.05900000000838
311894.9397,5.475982824687382,-1.7549682277044198,3.1543396855685986,11.635911578312141,71.05999999999767
311894.9407,11.477862215458039,4.483302460040522,7.516582294626188,20.49669344353597,71.06099999998696
311894.9417,17.086587909664846,10.314066526684035,11.532299394487216,28.694249623472444,71.06200000003446
311894.9427,22.16435897775799,15.603891968195697,15.105228162209208,36.0330324195398,71.06300000002375
311894.9437,26.608679015947907,20.25645337415538,18.169138181154636,42.36315231660142,71.06400000001304
311894.9447,30.354340277775677,24.214389640851376,20.68901404575773,47.58355749189946,71.06500000000233
311894.9457,33.3727391717052,27.45833023887522,22.659936628896023,51.64213390546021,71.06599999999162
311894.9467,35.668756381239206,30.00334088371459,24.10387483531705,54.53295251485125,71.06699999998091
311894.9477,37.27562447311826,31.893242472599614,25.06476765097592,56.291093439419264,71.0680000000284
311894.9487,38.248352036878224,33.193413767021255,25.602406159934468,56.985635123875625,71.0690000000177
311894.9497,38.656364107837526,33.982785593156336,25.78570591178172,56.711497648914104,71.07000000000698
311894.9507,38.57604716720869,34.34576508446819,25.685985288040417,55.58086669440074,71.07099999999627
311894.9517,38.083852572217886,34.36479177452694,25.370834303623965,53.714897601174314,71.07199999998556
311894.9527,37.250519894581345,34.114128508929824,24.89907484772162,51.2363126796699,71.07300000003306
311894.9537,36.13684167743976,33.65534019371189,24.317186792391915,48.26336979316646,71.07400000002235
311894.9547,34.79121812522511,33.0347278767936,23.657417642034606,44.905510860044345,71.07500000001164
311894.9557,33.249061560385776,32.28278309936694,22.93762203438668,41.26081252014832,71.07600000000093
311894.9567,31.5339245408066,31.4155275682052,22.162708093967343,37.41517605156551,71.07699999999022
311894.9577,29.660060067799616,30.437424989699636,21.327416526048797,33.44302723110353,71.07800000003772
311894.9587,27.63599268992523,29.34541186439695,20.420039512303223,29.409164359788964,71.07900000002701
311894.9597,25.468597079643775,28.133504613823963,19.426610635316226,25.37130552405629,71.0800000000163
311894.9607,23.16715252797788,26.79740887125264,18.33507055348515,21.382850974805947,71.08100000000559
311894.9617,20.746869039061693,25.338584591992564,17.138937374676278,17.495394628057944,71.08199999999488
311894.9627,18.231459114821806,23.767303454586717,15.84008203259988,13.760586159969908,71.08299999998417
311894.9637,15.654449723595757,22.104363121125825,14.450319253668702,10.23105320763657,71.08400000003166
311894.9647,13.05907815822266,20.381282277237176,12.991661975350457,6.96022915783574,71.08500000002095
311894.9657,10.496777664218378,18.63897407530426,11.49523688338407,4.001080732478754,71.08600000001024
311894.9667,8.024416957600076,16.92506558013714,9.999005563109886,1.403874902518547,71.08699999999953
311894.9677,5.700595796125705,15.290179622881208,8.544564601193779,-0.7867489242370095,71.08799999998882
311894.9687,3.581402619578017,13.783608035552236,7.173395822158566,-2.535041286852758,71.08900000003632
311894.9697,1.7160995818952471,12.448870354004963,5.922994985336134,-3.817327229939471,71.09000000002561
311894.9707,0.14320936418849095,11.319663485701634,4.823318231485335,-4.624695638075877,71.0910000000149
311894.9717,-1.1125635192638927,10.41666483527105,3.8939496460776026,-4.964818467879753,71.09200000000419
311894.9727,-2.042231925306365,9.745558847556874,3.142314588767005,-4.862610349595682,71.09299999999348
311894.9737,-2.6530251523053447,9.296524809730105,2.563150368940644,-4.35955804768615,71.09399999998277
311894.9747,-2.9674151052883113,9.045266028586534,2.1393103393831967,-3.511689289953257,71.09500000003027
311894.9757,-3.0207526948967947,8.955493743147029,1.8438336928732455,-2.3862966411508095,71.09600000001956
311894.9767,-2.8577452917406703,8.98262083047552,1.6430761387742912,-1.0576688935202485,71.09700000000885
311894.9777,-2.528130119399992,9.078287125329448,1.5005804486892134,0.3978047105062488,71.09799999999814
311894.9787,-2.0819859521069892,9.195244048173162,1.3812826742608275,1.9067153751096337,71.09899999998743
311894.9797,-1.5651671766081783,9.29208127014142,1.2556083633089525,3.4034265772402605,71.10000000003492
311894.9807,-1.0153356513174625,9.337287359744876,1.103017790464911,4.834119014464261,71.10100000002421
311894.9817,-0.45900745872875287,9.312199227137812,0.9146098383034911,6.1596947445750425,71.1020000000135
311894.9827,0.09007070986308736,9.212505669003614,0.6944858089530815,7.357252056453997,71.1030000000028
311894.9837,0.631036970704587,9.048117466156773,0.4596980332026686,8.419979474572548,71.10399999999208
311894.9847,1.174499190648866,8.8413855203956,0.2387513281337444,9.355472077001401,71.10499999998137
311894.9857,1.739727780652653,8.62382232089871,0.06877376003621724,10.182630585140048,71.10600000002887
311894.9867,2.3507432211426407,8.431642869672132,-0.00838816982679292,10.927447657179737,71.10700000001816
311894.9877,3.0317064815349086,8.30057250641187,0.049220055127413564,11.618101874553984,71.10800000000745
311894.9887,3.802101905561307,8.260457135591924,0.27879421019925327,12.279856100927152,71.10899999999674
311894.9897,4.6722349897459745,8.330246687417704,0.7081329798129647,12.930285132235348,71.10999999998603
311894.9907,5.639547896481076,8.513900958162274,1.3517004660458822,13.575334446112299,71.11100000003353
311894.9917,6.6861848281583915,8.797689647286024,2.2078027168386574,14.206639044313405,71.11200000002282
311894.9927,7.77812394825721,9.149232353756908,3.2571905747356236,14.80041540652434,71.11300000001211
311894.9937,8.86604325073761,9.518461307245962,4.463268270701853,15.318091255497626,71.1140000000014
311894.9947,9.88791895493392,9.840505221347968,5.773935050635394,15.708671216356864,71.11499999999069
311894.9957,10.77318297391457,10.040304617016899,7.124930434075162,15.912667447333861,71.11600000003818
311894.9967,11.44810754180117,10.038595515961813,8.444407692476176,15.867269158133862,71.11700000002747
311894.9977,11.841955762288542,9.758756496994637,9.658339055513748,15.512298598500399,71.11800000001676
311894.9987,11.893349509182604,9.13391775198132,10.696271902080104,14.796415876746254,71.11900000000605
311894.9997,11.556269646648769,8.113689673407183,11.496916135066341,13.682999253952055,71.11999999999534
311895.0007,10.805121972100759,6.669887101146519,12.013053095391435,12.155145058358668,71.12099999998463
311895.0017,9.638374401247168,4.800702412222743,12.215315014813095,10.219300732366703,71.12200000003213
311895.0027,8.080390355229564,2.5329093411863095,12.094485728362487,7.907159501686167,71.12300000002142
311895.0037,6.181239178014434,-0.07815196471077578,11.662108586714089,5.275595169821647,71.12400000001071
311895.0047,4.014442311619229,-2.950865156170668,10.949343398315284,2.4045867194868213,71.125
311895.0057,1.6727973626674766,-5.981760134295416,10.004175948253422,-0.6067410996242917,71.12599999998929
311895.0067,-0.737405972264242,-9.051737129889549,8.887235759925007,-3.645669510463459,71.12700000003679
311895.0077,-3.103319900674445,-12.033603460999482,7.666605766821964,-6.592598802761355,71.12800000002608
311895.0087,-5.3130609686694905,-14.800319488638596,6.41209923494479,-9.328391453901462,71.12900000001537
311895.0097,-7.263206756370927,-17.23328996106009,5.189525902787853,-11.741761530125126,71.13000000000466
311895.0107,-8.865655311876917,-19.2300360970396,4.0554665035903,-13.736126606004763,71.13099999999395
311895.0117,-10.053293418027803,-20.710642109327807,3.0530229841663483,-15.23539036227731,71.13199999998324
311895.0127,-10.78402681494192,-21.62248158360458,2.2089159429044884,-16.188222562376865,71.13300000003073
311895.0137,-11.042871788363268,-21.94288343555936,1.5321704135700218,-16.570538631276612,71.13400000002002
311895.0147,-10.841979297053712,-21.679579408026914,1.0144787804587114,-16.386040563275618,71.13500000000931
311895.0157,-10.218643961776953,-20.868968107015178,0.6321700722327768,-15.664849259308282,71.1359999999986
311895.0167,-9.23152391282929,-19.572416447535947,0.3495635454512609,-14.4604198807057,71.13699999998789
311895.0177,-7.955447666214276,-17.870981011393656,0.12335588239594196,-12.845071505800354,71.13800000003539
311895.0187,-6.475297199806443,-15.859054638776618,-0.0924022303430257,-10.904567665153152,71.13900000002468
311895.0197,-4.879522206000028,-13.637516886094316,-0.3412340924662792,-8.732246052563214,71.14000000001397
311895.0207,-3.253853665076771,-11.306984945935646,-0.6595648793830766,-6.423209017434506,71.14100000000326
311895.0217,-1.6757450476028877,-8.961723773650833,-1.072898053566629,-4.06905123316506,71.14199999999255
311895.0227,-0.2099813238762533,-6.684685389952791,-1.5931990822540067,-1.7535218018830248,71.14299999998184
311895.0237,1.094231172506704,-4.544017348706722,-2.21772142564439,0.4505961974682231,71.14400000002934
311895.0247,2.204534168259268,-2.591222723067598,-2.9293643844279162,2.4832429720386213,71.14500000001863
311895.0257,3.1050502425568665,-0.8609846879614869,-3.698499925117592,4.297476416968891,71.14600000000792
311895.0267,3.7945416055891785,0.6274952487206383,-4.486061091110059,5.858644011088198,71.1469999999972
311895.0277,4.283395198782451,1.8679389986949315,-5.247562215677283,7.1425924994761845,71.1479999999865
311895.0287,4.589838183417644,2.8636148913974013,-5.937632749941745,8.133263675297055,71.149000000034
311895.0297,4.7358479904334,3.6236057477080696,-6.514600527043256,8.820072223587365,71.15000000002328
311895.0307,4.743232395585637,4.15919802615686,-6.944660870363664,9.195464628284597,71.15100000001257
311895.0317,4.630317297807262,4.480829613510359,-7.205214648832801,9.253016939134021,71.15200000000186
311895.0327,4.409597661870228,4.595949743817356,-7.287046158326846,8.986348665904519,71.15299999999115
311895.0337,4.08658949280036,4.508024285900072,-7.195131508809388,8.38901916384037,71.15400000003865
311895.0347,3.6599802588387007,4.216776327767384,-6.948007860551838,7.455443653743608,71.15500000002794
311895.0357,3.1230265785968974,3.719600930943161,-6.575779335746939,6.1827324094487786,71.15600000001723
311895.0367,2.4660066388844326,3.0139501224800833,-6.116972209307794,4.573233015867178,71.15700000000652
311895.0377,1.6794152590231142,2.1003646796052498,-5.614566488845259,2.6374552979855337,71.15799999999581
311895.0387,0.7575039980151498,0.9857456119634361,-5.1116119589167175,0.39699250033140626,71.1589999999851
311895.0397,-0.29827408702126723,-0.3135807068065355,-4.646876317365261,-2.1129720006992354,71.1600000000326
311895.0407,-1.4763511698318215,-1.7694398501369533,-4.250967459802346,-4.841962580742904,71.16100000002189
311895.0417,-2.753048212108451,-3.3404071440803955,-3.9433220643229103,-7.7236399541733425,71.16200000001118
311895.0427,-4.091788577756689,-4.9717036693135634,-3.730363587055968,-10.676585046204126,71.16300000000047
311895.0437,-5.443690931730107,-6.59653563777472,-3.6050136603666383,-13.606533536420066,71.16399999998976
311895.0447,-6.749567413209534,-8.138871098528464,-3.5476036989617414,-16.410012338884638,71.16500000003725
311895.0457,-7.943205203233955,-9.517493459471654,-3.5280920205763526,-18.979184635548204,71.16600000002654
311895.0467,-8.955672187213379,-10.651029480953072,-3.5093601098403764,-21.207579511702434,71.16700000001583
311895.0477,-9.720274489087503,-11.463534914955714,-3.451252905729654,-22.99627911358659,71.16800000000512
311895.0487,-10.177716830097534,-11.890145887307218,-3.314952968906669,-24.26007133084148,71.16899999999441
311895.0497,-10.280983944329162,-11.882276637875204,-3.067244506559203,-24.93305640241473,71.1699999999837
311895.0507,-9.999476270611595,-11.411867827427711,-2.6842338265244927,-24.97322426544169,71.1710000000312
311895.0517,-9.32199468510669,-10.474262699607188,-2.154146777635901,-24.36559394630663,71.17200000002049
311895.0527,-8.25827134791607,-9.089404423880326,-1.478915736316769,-23.123620360470905,71.17300000000978
311895.0537,-6.838876947989356,-7.301196097142709,-0.6743895943302212,-21.288717182668353,71.17399999999907
311895.0547,-5.113485785587427,-5.1750310403643915,0.23086198680366612,-18.92790371935369,71.17499999998836
311895.0557,-3.1476344538425254,-2.793669194850654,1.1980377100450916,-16.129744094976132,71.17600000003586
311895.0567,-1.0182522292347838,-0.2517892763774214,2.1816444523931917,-12.998893508293255,71.17700000002515
311895.0577,1.1916423620583296,2.3503291665771964,3.133738319919017,-9.649685052461294,71.17800000001444
311895.0587,3.3986054833840345,4.913456821220832,4.0084450909998095,-6.1992704496608315,71.17900000000373
311895.0597,5.524285644850006,7.345829010011603,4.766307341487427,-2.7608615271228594,71.17999999999302
311895.0607,7.500303663422463,9.568774328959918,5.378019498662444,0.5623967510386559,71.1809999999823
311895.0617,9.272066413537845,11.521081028348197,5.82716966034108,3.6824548001376067,71.1820000000298
311895.0627,10.801190320430962,13.16174245682313,6.11170278859199,6.529927286529852,71.18300000001909
311895.0637,12.066346514282463,14.470874842454126,6.243944623378393,9.055978576151837,71.18400000000838
311895.0647,13.062493844303491,15.448772326206583,6.249167257964058,11.232457044248113,71.18499999999767
311895.0657,13.798623509717718,16.11323907255696,6.162821961290776,13.050370437237607,71.18599999998696
311895.0667,14.294284468580608,16.49549964471075,6.026698337697005,14.51694309831327,71.18700000003446
311895.0677,14.575277717616963,16.63512107170832,5.884378107594367,15.65161919463366,71.18800000002375
311895.0687,14.66898819702112,16.574470331019633,5.7764258028361155,16.481462572004993,71.18900000001304
311895.0697,14.599857350400573,16.35327051653262,5.735790002793955,17.036445542989487,71.19000000000233
311895.0707,14.385483652003904,16.003803840147892,5.783874024465903,17.34511215996945,71.19099999999162
311895.0717,14.03377397713073,15.547241199052834,5.927675335299192,17.43104740602674,71.19199999998091
311895.0727,13.541461606771431,14.991462884795544,6.158293890819034,17.310487921023547,71.1930000000284
311895.0737,12.89416722524594,14.330584234242071,6.450980503477244,16.991282087318805,71.1940000000177
311895.0747,12.068021042209987,13.546228247075264,6.76674960248257,16.473260358640754,71.19500000000698
311895.0757,11.03270264494314,12.610411130658477,7.055430514333054,15.749925317402534,71.19599999999627
311895.0767,9.755606298319048,11.489743560928387,7.259892259045192,14.811230205338587,71.19699999998556
311895.0777,8.206717970247093,10.150516142539324,7.321062381002611,13.647098644675454,71.19800000003306
311895.0787,6.363708596618818,8.56414531930654,7.183281729595929,12.251258559576923,71.19900000002235
311895.0797,4.21671443561229,6.712414966222568,6.79950212756763,10.62492792786384,71.20000000001164
311895.0807,1.7722935645926476,4.591963252936047,6.135846034555589,8.77990254630744,71.20100000000093
311895.0817,-0.9438836440033813,2.2175328764735585,5.175105555857679,6.740655311374335,71.20199999999022
311895.0827,-3.8859391172783266,-0.3763811009406466,3.9188568850512953,4.545156760096026,71.20300000003772
311895.0837,-6.988468977867011,-3.1356989902544274,2.3879959598666343,2.2442578311955144,71.20400000002701
311895.0847,-10.169018436720396,-5.988778712922489,0.6216491719678543,-0.1003750950141163,71.2050000000163
311895.0857,-13.332195122411381,-8.85015244220461,-1.3254349841568402,-2.4196307788345073,71.20600000000559
311895.0867,-16.37510876126371,-11.625671189802556,-3.3867661888071843,-4.641347559179903,71.20699999999488
311895.0877,-19.19369562531352,-14.21861337773016,-5.488900626665785,-6.695336758574901,71.20799999998417
311895.0887,-21.689397342050647,-16.536218210962893,-7.5566925572146895,-8.518565203115251,71.20900000003166
311895.0897,-23.77562426117317,-18.496061024782204,-9.51852693950692,-10.05999809400659,71.21000000002095
311895.0907,-25.383447587551515,-20.031700002754764,-11.311060563710386,-11.284623976994029,71.21100000001024
311895.0917,-26.46603074158681,-21.097090579990255,-12.883054600744522,-12.176251974941234,71.21199999999953
311895.0927,-27.00142266460613,-21.669378958022328,-14.19797703853499,-12.738781507941832,71.21299999998882
311895.0937,-26.993483355602795,-21.749838257550913,-15.235179449674733,-12.995785992577035,71.21400000003632
311895.0947,-26.470880693774482,-21.362885115530673,-15.989596258339615,-12.988410899982231,71.21500000002561
311895.0957,-25.48427141063385,-20.55329403580426,-16.470061742281928,-12.771747641969126,71.2160000000149
311895.0967,-24.1019412988488,-19.381894084749433,-16.696475723722738,-12.409992303406298,71.21700000000419
311895.0977,-22.40431491006074,-17.920171370232698,-16.696159749627654,-11.970817728979215,71.21799999999348
311895.0987,-20.47784029342316,-16.244297758039547,-16.499820539190843,-11.519467040199203,71.21899999998277
311895.0997,-18.408800865890395,-14.429152201586245,-16.137569207512364,-11.113108270920435,71.22000000003027
311895.1007,-16.277600163834514,-12.542891660721281,-15.635430239072079,-10.795970064520253,71.22100000001956
311895.1017,-14.154007046723075,-10.642565077572803,-15.012715017796635,-10.595708849987991,71.22200000000885
311895.1027,-12.093744994602668,-8.771152783780353,-14.280537045588945,-10.521345022631174,71.22299999999814
311895.1037,-10.136669976339078,-6.956266207674089,-13.4416197933798,-10.56296003701809,71.22399999998743
311895.1047,-8.306620855433215,-5.2105735429368725,-12.49140629269688,-10.693181810134652,71.22500000003492
311895.1057,-6.6128603322214445,-3.5338429205029964,-11.420336538010398,-10.870318122802784,71.22600000002421
311895.1067,-5.052869310654273,-1.9163327997072057,-10.217029116391785,-11.042842825292922,71.2270000000135
311895.1077,-3.616128464627765,-0.34312569412078486,-8.872000481977079,-11.154812413445,71.2280000000028
311895.1087,-2.2884301489597654,1.2010909338197118,-7.381489582793697,-11.151703115611477,71.22899999999208
311895.1097,-1.0562202754780583,2.7273347561492627,-5.7509340664759705,-10.986119374188986,71.22999999998137
311895.1107,0.08952271122936795,4.238255466192891,-3.99766959180907,-10.62283725795055,71.23100000002887
311895.1117,1.15030718724797,5.725139024284001,-2.152493759870844,-10.042709671529197,71.23200000001816
311895.1127,2.1183801336189787,7.166338157355919,-0.25984430487284627,-9.245068158401617,71.23300000000745
311895.1137,2.976410570786769,8.527331063685372,1.6235229171540981,-8.248398288684985,71.23399999999674
311895.1147,3.698649035869144,9.762442605901557,3.431320119029743,-7.089228487764068,71.23499999998603
311895.1157,4.25344826892808,10.818090464662681,5.091791582871977,-5.81934014830816,71.23600000003353
311895.1167,4.606882601533226,11.637259756520008,6.532733727223675,-4.501563969260911,71.23700000002282
311895.1177,4.727082223638735,12.164779223299899,7.687042602099466,-3.204558750190725,71.23800000001211
311895.1187,4.588815747671567,12.352883222421767,8.498292612439784,-1.9970619161978587,71.2390000000014
311895.1197,4.17781870566058,12.166505287886721,8.925829188218218,-0.9421471356947512,71.23999999999069
311895.1207,3.494380603987707,11.587764976773999,8.948886233223046,-0.0920193343657355,71.24100000003818
311895.1217,2.555767724578362,10.619178747607952,8.56931449547313,0.5161780499972377,71.24200000002747
311895.1227,1.3971669174759018,9.28524123438859,7.8126229566445575,0.8631689852581137,71.24300000001676
311895.1237,0.0709767893345945,7.632174426352927,6.72718142711254,0.9487245033150286,71.24400000000605
311895.1247,-1.355566735050027,5.725814393583494,5.3815952765202955,0.7911334805646727,71.24499999999534
311895.1257,-2.8042791808555316,3.6477816879908005,3.8604274481183283,0.42504511636425796,71.24599999998463
311895.1267,-4.191127372521225,1.490245307184679,2.2585931650127407,-0.10208256502264669,71.24700000003213
311895.1277,-5.4321125288126115,-0.650274760466676,0.6748748262638968,-0.7345643874883965,71.24800000002142
311895.1287,-6.449423950175137,-2.6795280398701338,-0.7949131129254405,-1.4136432530501062,71.24900000001071
311895.1297,-7.177314187843703,-4.511996304179383,-2.0645448910363324,-2.082714892802981,71.25
311895.1307,-7.567162413625636,-6.076630377108357,-3.063241974594766,-2.6921203336511477,71.25099999998929
311895.1317,-7.591259682227265,-7.32135945641043,-3.7402878056332387,-3.2030555156374465,71.25200000003679
311895.1327,-7.2449617751222375,-8.215985616678752,-4.068027096338441,-3.5902422989105682,71.25300000002608
311895.1337,-6.547001819465441,-8.753226945368288,-4.043021312273605,-3.843133773098641,71.25400000001537
311895.1347,-5.537921983730859,-8.947845606889082,-3.6852953125870687,-3.9655763542634626,71.25500000000466
311895.1357,-4.276755317542553,-8.833975335960076,-3.0357782078318962,-3.974006671642596,71.25599999999395
311895.1367,-2.8362487859148495,-8.460929246329574,-2.15219868691037,-3.894407254563315,71.25699999998324
311895.1377,-1.2970514122692272,-7.887907387227876,-1.1038267749936577,-3.758367103772949,71.25800000003073
311895.1387,0.2586155453357796,-7.178120902008901,0.03445188533177452,-3.5986793938563166,71.25900000002002
311895.1397,1.7532451964924123,-6.392896682202802,1.1881950556585936,-3.4449504491330503,71.26000000000931
311895.1407,3.119735873191308,-5.586318733228047,2.2890640590459763,-3.319687842932799,71.2609999999986
311895.1417,4.305994357924513,-4.8009010877690335,3.279604245212209,-3.235281873257039,71.26199999998789
311895.1427,5.2780662675361,-4.064678271714115,4.1167601506285925,-3.192199351855881,71.26300000003539
311895.1437,6.021550636666033,-3.389953920060347,4.7738692240370115,-3.178581327920854,71.26400000002468
311895.1447,6.54121976659453,-2.773780582400663,5.2410289327171045,-3.171289931096232,71.26500000001397
311895.1457,6.858935277778399,-2.2000706084655137,5.523889717817194,-3.138298716857063,71.26600000000326
311895.1467,7.010110602787544,-1.6430763273512112,5.641075367467343,-3.0421808961148886,71.26699999999255
311895.1477,7.0391035460598,-1.0718434199633056,5.620558636410795,-2.8443347016094935,71.26799999998184
311895.1487,6.994017268728334,-0.45514758743831246,5.495411425074819,-2.509506469102079,71.26900000002934
311895.1497,6.92143520673113,0.2336195354074596,5.299397100675251,-2.01013773871232,71.27000000001863
311895.1507,6.8616107620332345,1.0121395820011938,5.0628734551210925,-1.3300763349712899,71.27100000000792
311895.1517,6.844576972136081,1.8858937296090053,4.80942887873587,-0.46725171419463324,71.2719999999972
311895.1527,6.887540603700102,2.8462792427198056,4.553586707025123,0.5649840261723523,71.2729999999865
311895.1537,6.99378947512821,3.8703252863121156,4.299792556335547,1.7380161712958822,71.274000000034
311895.1547,7.153184916718659,4.922051826476355,4.042759132292449,3.009645486494369,71.27500000002328
311895.1557,7.344148787843181,5.955345766757475,3.769096719067378,4.327148891805207,71.27600000001257
311895.1567,7.5369025430784875,6.918071264712927,3.4600200945430313,5.631446991439864,71.27700000000186
311895.1577,7.697589531122113,7.757002152145569,3.0948077799185953,6.861988851047227,71.27799999999115
311895.1587,7.792823503824624,8.423076477884274,2.654608835246606,7.96188834335671,71.27900000003865
311895.1597,7.794164889480377,8.87643527549776,2.126153937023688,8.882815898322423,71.28000000002794
311895.1607,7.682035774387779,9.090723660500874,1.5049350784136777,9.589167895779731,71.28100000001723
311895.1617,7.448643722227923,9.05620087764871,0.7974711719299703,10.061101706670225,71.28200000000652
311895.1627,7.099587577499377,8.781320338087571,0.02236983268206257,10.29613131575907,71.28299999999581
311895.1637,6.653954921541591,8.292589832946412,-0.7899806111088555,10.309116243632895,71.2839999999851
311895.1647,6.142877206867966,7.632691335293263,-1.5991126826963766,10.130631733683007,71.2850000000326
311895.1657,5.606669118973497,6.857012418976017,-2.357452431653576,9.803865700145526,71.28600000002189
311895.1667,5.090827285372179,6.028900245336633,-3.0143051046983955,9.38033226965562,71.28700000001118
311895.1677,4.641285096006971,5.214078497873988,-3.5204844080500646,8.91480864372188,71.28800000000047
311895.1687,4.299402777711724,4.474754630326909,-3.833140407537584,8.459979853688925,71.28899999998976
311895.1697,4.097206504498754,3.863980520991263,-3.9203091874926974,8.061306955442529,71.29000000003725
311895.1707,4.053373471456451,3.420810300171115,-3.764722677622539,7.752615075213869,71.29100000002654
311895.1717,4.170392868626087,3.166726353384128,-3.3664784806406587,7.552830135500999,71.29200000001583
311895.1727,4.433221911703963,3.1036851838295947,-2.7442714354778532,7.464183484984776,71.29300000000512
311895.1737,4.809612250674313,3.2139804345529885,-1.9350213372606102,7.472062591081221,71.29399999999441
311895.1747,5.252119252313213,3.461945904768455,-0.991881917567328,7.546527101514772,71.2949999999837
311895.1757,5.701640857926057,3.7973438534475066,0.019229764517548216,7.645348388521204,71.2960000000312
311895.1767,6.092180347379295,4.1601206337746515,1.0243019962275972,7.718282862453719,71.29700000002049
311895.1777,6.356403540631196,4.486078765353331,1.9466968900457042,7.7121693062985015,71.29800000000978
311895.1787,6.431478135004844,4.712925024319364,2.712940826949577,7.576359967579314,71.29899999999907
311895.1797,6.264649422927202,4.786116894643399,3.258324526171979,7.267962029233954,71.29999999998836
311895.1807,5.818026145816889,4.663948557325394,3.5318145475902836,6.756383623300055,71.30100000003586
311895.1817,5.072121103603158,4.321390795829361,3.4998396443831155,6.026745064524738,71.30200000002515
311895.1827,4.027806689922803,3.7523197357927525,3.148618665439132,5.081825000759953,71.30300000001444
311895.1837,2.7064946799693104,2.9699255342205966,2.4848317972896643,3.9423520934055305,71.30400000000373
311895.1847,1.1485179420433944,2.005268792594426,1.5345908649241653,2.645611938150042,71.30499999999302
311895.1857,-0.5901370772188989,0.904132361847615,0.3408223646338191,1.2425007341663212,71.3059999999823
311895.1867,-2.442440917054012,-0.27751824016623017,-1.040676339294182,-0.2066940200380958,71.3070000000298
311895.1877,-4.335840450906468,-1.479017566536748,-2.546125800685465,-1.6373842236716016,71.30800000001909
311895.1887,-6.198166478248833,-2.6408866665532438,-4.1091320105396925,-2.9861595889130785,71.30900000000838
311895.1897,-7.963373079843666,-3.7105452366013214,-5.666027122869712,-4.196135108042082,71.30999999999767
311895.1907,-9.576570277657895,-4.64728959423858,-7.160687417845628,-5.2216642975471,71.31099999998696
311895.1917,-10.997881879984751,-5.426049459235288,-8.54838988896828,-6.031979068825855,71.31200000003446
311895.1927,-12.204776285394946,-6.039557135556384,-9.798368313754176,-6.613423519400424,71.31300000002375
311895.1937,-13.192668226971328,-6.498719230950661,-10.894861473313735,-6.970087160142945,71.31400000001304
311895.1947,-13.973759334346342,-6.831158195869491,-11.83659738953104,-7.122799459810902,71.31500000000233
311895.1957,-14.574258382847459,-7.078071340985507,-12.63481321744035,-7.106606716126063,71.31599999999162
311895.1967,-15.030281246033471,-7.289720894549869,-13.310055479780049,-6.966998533861475,71.31699999998091
311895.1977,-15.38286023805979,-7.5200037783786025,-13.888125412621878,-6.755270283941317,71.3180000000284
311895.1987,-15.672579935312255,-7.820640807605121,-14.395617487753404,-6.523488216307503,71.3190000000177
311895.1997,-15.934393013528085,-8.235562960377901,-14.855537462306083,-6.319557629396515,71.32000000000698
311895.2007,-16.19315140158678,-8.796053427352414,-15.283475757237811,-6.1828784907106735,71.32099999999627
311895.2017,-16.460316753848115,-9.51713012716639,-15.68475355439669,-6.141008898291069,71.32199999998556
311895.2027,-16.732196698927055,-10.395531467950352,-16.052858410949725,-6.207651250887258,71.32300000003306
311895.2037,-16.989900906450817,-11.409510266900268,-16.369353276966727,-6.382139530658576,71.32400000002235
311895.2047,-17.201038554292232,-12.520462383376794,-16.6052906464038,-6.650452325418567,71.32500000001164
311895.2057,-17.323003128181043,-13.676235288724541,-16.724007205571294,-6.987620467973478,71.32600000000093
311895.2067,-17.30752887901813,-14.815795324957561,-16.68502928406074,-7.361255988575641,71.32699999999022
311895.2077,-17.106071641202792,-15.874797206486607,-16.44870014382648,-7.735814672712423,71.32800000003772
311895.2087,-16.67547816523478,-16.79150876964842,-15.981058684941877,-8.077129367822687,71.32900000002701
311895.2097,-15.983371589232592,-17.51250709772749,-15.258463872815035,-8.356722899187796,71.3300000000163
311895.2107,-15.012700092482389,-17.99758272598845,-14.271473984161142,-8.5554310225994,71.33100000000559
311895.2117,-13.764969641436917,-18.22336482230636,-13.027553620488382,-8.665935314475911,71.33199999999488
311895.2127,-12.261803257606356,-18.185304752571312,-11.55228852576131,-8.693916579490594,71.33299999998417
311895.2137,-10.544626950294134,-17.89781623270912,-9.888928476737153,-8.657680428711314,71.33400000003166
311895.2147,-8.672461339048523,-17.392551709054676,-8.09623849104455,-8.586264266119285,71.33500000002095
311895.2157,-6.717980885213862,-16.71497898943156,-6.244802902378583,-8.516193415483018,71.33600000001024
311895.2167,-4.762171922487173,-15.919591405679581,-4.412079539370723,-8.487197720624648,71.33699999999953
311895.2177,-2.888059906077858,-15.064222262394713,-2.6766273892769115,-8.537314206824819,71.33799999998882
311895.2187,-1.1740718804148196,-14.204026381917979,-1.1120182780724293,-8.697874620936522,71.33900000003632
311895.2197,0.3123573804782631,-13.385728924814526,0.2190175022085208,-8.988901132877725,71.34000000002561
311895.2207,1.520342193189005,-12.64272036929439,1.2696742354219825,-9.415406167605655,71.3410000000149
311895.2217,2.4197439168181454,-11.99149829404896,2.0129088088257894,-9.96501528749207,71.34200000000419
311895.2227,3.00360968336428,-11.42982870998629,2.4436691652706073,-10.60721219937793,71.34299999999348
311895.2237,3.288611641232415,-10.936834290815078,2.5792930351442873,-11.294353512597876,71.34399999998277
311895.2247,3.3134300839373014,-10.475029843751644,2.4580229455044305,-11.96443221037734,71.34500000003027
311895.2257,3.135213664298475,-9.994134813050316,2.1357556705989023,-12.545399112817217,71.34600000001956
311895.2267,2.8244279254639366,-9.436317030734498,1.6813061547356272,-12.960697339800248,71.34700000000885
311895.2277,2.458552728305856,-8.742378462467068,1.1706021353795937,-13.135540996585567,71.34799999999814
311895.2287,2.115195664141845,-7.858296434524088,0.6803232929678978,-13.00338823015683,71.34899999998743
311895.2297,1.8652421500483503,-6.741492424942293,0.2815485180400726,-12.51202861661102,71.35000000003492
311895.2307,1.7666586094664478,-5.3662192166535245,0.03397216401469474,-11.628728850215996,71.35100000002421
311895.2317,1.8595034769345486,-3.7275344751533686,-0.01880467662977514,-10.343957020119097,71.3520000000135
311895.2327,2.1625877379375464,-1.8434573767195768,0.1474965894202023,-8.673327454083164,71.3530000000028
311895.2337,2.6720732047564346,0.24492745682583422,0.5363482634277843,-6.657563883438807,71.35399999999208
311895.2347,3.3621174272657854,2.475463783996363,1.1307818467358925,-4.360453965725498,71.35499999998137
311895.2357,4.187486109097413,4.768864915197378,1.8955364188277701,-1.8649465517738157,71.35600000002887
311895.2367,5.087874926654293,7.034270209475235,2.780761323061351,0.7322922118843862,71.35700000001816
311895.2377,5.993529512430182,9.17593444995159,3.726905750178049,3.3274121730137836,71.35800000000745
311895.2387,6.831639236682475,11.100462651592075,4.67032524904299,5.81645598957275,71.35899999999674
311895.2397,7.5329175221975655,12.723953102287798,5.549078229537405,8.10238965657576,71.35999999998603
311895.2407,8.03777407547389,13.97842139895299,6.3083790069378,10.101506881581996,71.36100000003353
311895.2417,8.301532570639715,14.816946625018504,6.9052178201604795,11.748689923803997,71.36200000002282
311895.2427,8.298245633373343,15.217100741145055,7.311747634959864,13.001118175314282,71.36300000001211
311895.2437,8.022797364341088,15.182381954185617,7.517163184549526,13.840159956920381,71.3640000000014
311895.2447,7.491148332554542,14.741556800229612,7.5279469804747645,14.271348808590169,71.36499999999069
311895.2457,6.738752841926109,13.946006242300514,7.3665151922515495,14.322517155731584,71.36600000003818
311895.2467,5.817346462375707,12.86535008899823,7.068447918264765,14.040321439671871,71.36700000002747
311895.2477,4.7904473437819775,11.581774621067959,6.6786188613006905,13.485528611723543,71.36800000001676
311895.2487,3.7280241490570116,10.183596507360589,6.246636438258524,12.727531920876332,71.36900000000605
311895.2497,2.700846719384589,8.758652167232194,5.822062985347171,11.838615575489198,71.36999999999534
311895.2507,1.7750476162656568,7.388101091974487,5.449886326238776,10.888489106564744,71.37099999998463
311895.2517,1.0073833482298553,6.141175201667732,5.166678590412034,9.939564001755313,71.37200000003213
311895.2527,0.4415982935903412,5.071300401441474,4.997795471799391,9.043353095654947,71.37300000002142
311895.2537,0.10617147369239655,4.213872150970773,4.955853899831276,8.238247154814601,71.37400000001071
311895.2547,0.013579326353308874,3.5857987164764777,5.040589373066084,7.5487761229585795,71.375
311895.2557,0.16105158869054756,3.186750623941317,5.240050002015874,6.986309498792568,71.37599999998929
311895.2567,0.5326481147109982,3.0018899516240385,5.532947244534204,6.551006598034394,71.37700000003679
311895.2577,1.102356825196278,3.005714559817076,5.89186715998524,6.234707173457199,71.37800000002608
311895.2587,1.837819549322254,3.1665534580089845,6.286962303547573,6.024367692613181,71.37900000001537
311895.2597,2.704242210441836,3.4511995050349893,6.689701319330607,5.90560652181553,71.38000000000466
311895.2607,3.6680431197931167,3.8291688484715425,7.076254905376148,5.865925949018346,71.38099999999395
311895.2617,4.699837691059812,4.276131938774027,7.430142611891957,5.897229276033479,71.38199999998324
311895.2627,5.776444499902488,4.77616241937241,7.743849924176704,5.9973414099577935,71.38300000003073
311895.2637,6.881716863274671,5.32258696924215,8.019240346047972,6.1703617776782,71.38400000002002
311895.2647,8.0061433022138,5.91737707050008,8.266720760370907,6.425816261774847,71.38500000000931
311895.2657,9.145304688489489,6.569186456904311,8.503256379363565,6.776715771464893,71.3859999999986
311895.2667,10.297410363870952,7.290289004436868,8.749459832611473,7.2367583016653665,71.38699999998789
311895.2677,11.460245889240248,8.092795605807826,9.02608407632953,7.81701537556149,71.38800000003539
311895.2687,12.627939609135963,8.984612427066844,9.350319856403079,8.522511638312157,71.38900000002468
311895.2697,13.78798582031231,9.965638181571682,9.732327850311501,9.34913074783166,71.39000000001397
311895.2707,14.918945384313515,11.02468084953048,10.17241996372485,10.281258659352462,71.39100000000326
311895.2717,15.989181340095428,12.137506054490862,10.659244718929617,11.290508689392485,71.39199999999255
311895.2727,16.956883416127116,13.266316648702308,11.169233840083574,12.335767682695224,71.39299999998184
311895.2737,17.771501454027682,14.360817026797585,11.66744051907879,13.364669445131835,71.39400000002934
311895.2747,18.37655697308218,15.360850777989905,12.109756925535406,14.316453544507208,71.39500000001863
311895.2757,18.71364964687261,16.200433005765966,12.446353558168665,15.126019470407396,71.39600000000792
311895.2767,18.727336928280156,16.81284588015922,12.626050634754892,15.728853022014825,71.3969999999972
311895.2777,18.370454868877882,17.136343342857604,12.601225407601884,16.066397390879466,71.3979999999865
311895.2787,17.609378126356518,17.119931117939185,12.332790154855362,16.091376772330268,71.399000000034
311895.2797,16.428695200734442,16.728659920267365,11.794751160472636,15.772562717373416,71.40000000002328
311895.2807,14.834804383709766,15.947896613577967,10.977882447634338,15.098505508923248,71.40100000001257
311895.2817,12.858015000224404,14.786118253124519,9.892117872943361,14.079832423705383,71.40200000000186
311895.2827,10.552860597564834,13.275900378688128,8.567375339577698,12.749834933386277,71.40299999999115
311895.2837,7.996484807229352,11.472931908171494,7.052667238467384,11.163216745627857,71.40400000003865
311895.2847,5.285132398609495,9.453069321847734,5.413508601453886,9.393040097964546,71.40500000002794
311895.2857,2.528951376809612,7.3076252893049425,3.7277938708281635,7.526073219007689,71.40600000001723
311895.2867,-0.1545296849699877,5.137253883005184,2.0804593252767445,5.656891519880283,71.40700000000652
311895.2877,-2.647756821300762,3.0449298131740434,0.5573668642497983,3.8812044088462243,71.40799999999581
311895.2887,-4.840760829184237,1.1286094330669405,-0.7610756163427717,2.2889569643130314,71.4089999999851
311895.2897,-6.638410931286239,-0.5258024071825694,-1.8060096009371212,0.9577833335187509,71.4100000000326
311895.2907,-7.966721569522273,-1.8505770801358254,-2.5254076118762137,-0.05263635778450022,71.41100000002189
311895.2917,-8.777696558948104,-2.800853510181829,-2.888079129089996,-0.7048395681509376,71.41200000001118
311895.2927,-9.052316346143078,-3.357497748939164,-2.886049404137358,-0.9861089328175844,71.41300000000047
311895.2937,-8.80143145198913,-3.527896158085017,-2.5351034143323767,-0.9090597343713599,71.41399999998976
311895.2947,-8.064503831295694,-3.344632952498136,-1.8734503534156657,-0.5102538802427466,71.41500000003725
311895.2957,-6.906321313676157,-2.8621923590956984,-0.9586314142702793,0.15301972104417919,71.41600000002654
311895.2967,-5.411981516715436,-2.152001305025098,0.13705057149151012,1.0074989817545705,71.41700000001583
311895.2977,-3.680584841267891,-1.296273751933013,1.3321714802464655,1.9698063930151644,71.41800000000512
311895.2987,-1.8181782645372129,-0.3812188864721898,2.542396858609562,2.952890377570302,71.41899999999441
311895.2997,0.06945651498189558,0.509777012341165,3.6867197729659535,3.8724887815739124,71.4199999999837
311895.3007,1.8835797895136597,1.3023952672757069,4.693188293861457,4.653064363071531,71.4210000000312
311895.3017,3.5383010960557755,1.9365226267232505,5.50364176436102,5.232724290862214,71.42200000002049
311895.3027,4.964986883237943,2.369864552436758,6.07707562840514,5.566742204235528,71.42300000000978
311895.3037,6.11497983916578,2.579769917822208,6.391389512334607,5.629441607058362,71.42399999999907
311895.3047,6.960505706289899,2.5631793230459072,6.443429260469714,5.414359407923997,71.42499999998836
311895.3057,7.493815098199431,2.3347908284004664,6.2473955485415,4.932772588621498,71.42600000003586
311895.3067,7.724770021981584,1.9237061152591173,5.831843867386826,4.21082332947711,71.42700000002515
311895.3077,7.677221988336853,1.3689605078976341,5.235628449676705,3.2856037735866592,71.42800000001444
311895.3087,7.384627860676871,0.7144384622196168,4.503233933639472,2.200649023402314,71.42900000000373
311895.3097,6.885401913763532,0.00372282256529876,3.6799846966857497,1.0013278632456586,71.42999999999302
311895.3107,6.218503625356183,-0.7245827289046721,2.8076187983822964,-0.2693883236967133,71.4309999999823
311895.3117,5.419711313292537,-1.4405816318178113,1.9206621531295864,-1.5743553688130538,71.4320000000298
311895.3127,4.518937666076138,-2.1254968131610013,1.0439444771869717,-2.884561197574764,71.43300000001909
311895.3137,3.538814710604605,-2.7725477689511373,0.19147149009602074,-4.180113041187177,71.43400000000838
311895.3147,2.494626392969846,-3.386239924549983,-0.633279212637508,-5.449863108420866,71.43499999999767
311895.3157,1.3955122890685858,-3.9801850126027567,-1.4357233398850202,-6.689780318440333,71.43599999998696
311895.3167,0.2467220154496647,-4.573728945461872,-2.2274227114216045,-7.9003142525663135,71.43700000003446
311895.3177,-0.9474184871404805,-5.1877919708460265,-3.0225695243644974,-9.08310893738344,71.43800000002375
311895.3187,-2.1802482907440974,-5.840411759623256,-3.8341267805533126,-10.237496988229918,71.43900000001304
311895.3197,-3.439674549725834,-6.5425147136106405,-4.67008590696491,-11.357231478426117,71.44000000000233
311895.3207,-4.705676374433943,-7.294420561608253,-5.530290724568616,-12.42789076364651,71.44099999999162
311895.3217,-5.948785337088147,-8.08351209772719,-6.404218004693521,-13.425322440852488,71.44199999998091
311895.3227,-7.129813378975251,-8.883382900846165,-7.270004793696617,-14.315383476913643,71.4430000000284
311895.3237,-8.200962704442714,-9.654622881575456,-8.094881535618343,-15.055095224440155,71.4440000000177
311895.3247,-9.108298875376299,-10.347229830098728,-8.837020988788666,-15.595178504640261,71.44500000000698
311895.3257,-9.795413556065274,-10.90446205007918,-9.448661081202983,-15.883780789536534,71.44599999999627
311895.3267,-10.207963280942275,-11.267790189971567,-9.880220607124427,-15.87107047804782,71.44699999998556
311895.3277,-10.298659971920413,-11.382481578337288,-10.085014285726258,-15.514266590855499,71.44800000003306
311895.3287,-10.03221963717206,-11.203270711092031,-10.024099834133985,-14.7826072680948,71.44900000002235
311895.3297,-9.389755610340924,-10.699543616034486,-9.670762230942772,-13.661744542638418,71.45000000001164
311895.3307,-8.372134833540537,-9.859494951731488,-9.014162561880424,-12.157088453366303,71.45100000000093
311895.3317,-7.001897819952344,-8.692802559977151,-8.061749110994915,-10.295708008598869,71.45199999999022
311895.3327,-5.323467768667036,-7.231497002318565,-6.8401402482193925,-8.12652225223013,71.45300000003772
311895.3337,-3.401530182483181,-5.5288708589513655,-5.394331530191492,-5.718669962211392,71.45400000002701
311895.3347,-1.3176363339235677,-3.656458208761499,-3.785239468881103,-3.158116487007869,71.4550000000163
311895.3357,0.8347446980212475,-1.6993007260635784,-2.08575600275436,-0.5427244366572778,71.45600000000559
311895.3367,2.956346835502622,0.25011500083243493,-0.3756349123854844,2.023835081290072,71.45699999999488
311895.3377,4.948901107593156,2.09873063470027,1.2643503722438767,4.438837104438422,71.45799999998417
311895.3387,6.722027785457168,3.7599956259319756,2.758460810600025,6.607357710703102,71.45900000003166
311895.3397,8.199628837374137,5.160519873613964,4.041712409026887,8.448643798055947,71.46000000002095
311895.3407,9.325216756225176,6.245697151291796,5.064741877591413,9.901447382888431,71.46100000001024
311895.3417,10.065703250328898,6.983785357922036,5.797369498783349,10.927860935500696,71.46199999999953
311895.3427,10.413304638335564,7.368067510790551,6.230528708899105,11.51532113943855,71.46299999998882
311895.3437,10.385387774084366,7.416891754187256,6.376381599738579,11.676611130952434,71.46400000003632
311895.3447,10.02226533174312,7.171582990136192,6.266607428085375,11.447870453462073,71.46500000002561
311895.3457,9.38313485157019,6.692414532127539,5.949021202883805,10.884800725125723,71.4660000000149
311895.3467,8.540524477877636,6.0530067368039475,5.482835172968281,10.057416445944067,71.46700000000419
311895.3477,7.573743764215511,5.333663808807729,4.933002559700513,9.043819186726871,71.46799999999348
311895.3487,6.561927341713764,4.614256118194344,4.364167961382811,7.92355744761557,71.46899999998277
311895.3497,5.577294083645744,3.9672942667555606,3.834784279637124,6.7711658842779245,71.47000000003027
311895.3507,4.679221300786196,3.4518191571965975,3.3919383535338543,5.650453561278886,71.47100000001956
311895.3517,3.9096546562063628,3.108651693266931,3.0673584346937215,4.610033906057908,71.47200000000885
311895.3527,3.2902474154026096,2.957414349374399,2.8749628588017404,3.680466669124326,71.47299999999814
311895.3537,2.8214594754506455,2.9955674440596405,2.810161742402419,2.8732263330863845,71.47399999998743
311895.3547,2.483662906275642,3.1995119037048054,2.8509564773835487,2.1815371006778754,71.47500000003492
311895.3557,2.2401139772089325,3.5276160052644427,2.960711283783177,1.582938569203894,71.47600000002421
311895.3567,2.0414795587928842,3.9248446664030943,3.0923134788904436,1.043285272730545,71.4770000000135
311895.3577,1.8314646351830166,4.32852335911189,3.1933094906523842,0.5217526924006074,71.4780000000028
311895.3587,1.5529906502649555,4.67466848482585,3.211514289909304,-0.02366567820525753,71.47899999999208
311895.3597,1.1543304520095963,4.904271337902867,3.100551198496457,-0.630723042114709,71.47999999998137
311895.3607,0.5946184610496266,4.968937439159357,2.8247905694364936,-1.3280823470663916,71.48100000002887
311895.3617,-0.15177734690355332,4.835355100800421,2.36321818421059,-2.131546420504318,71.48200000001816
311895.3627,-1.0924189969947615,4.488189085428492,1.7118710220912605,-3.0417116720657775,71.48300000000745
311895.3637,-2.215742398978166,3.931154839884321,0.8846187209702645,-4.043256477418278,71.48399999999674
311895.3647,-3.4918523043895884,3.186210138013011,-0.08777024353144723,-5.105911358986633,71.48499999998603
311895.3657,-4.875060537722018,2.2909861663613027,-1.1601735405158111,-6.186991605290183,71.48600000003353
311895.3667,-6.30789393336612,1.2947509957349126,-2.2770134994513995,-7.235220280743861,71.48700000002282
311895.3677,-7.726161313048989,0.25333838780833,-3.37712434051756,-8.195445449608453,71.48800000001211
311895.3687,-9.064573392031729,-0.7764294788681048,-4.399114501338648,-9.013771736556667,71.4890000000014
311895.3697,-10.262364526390144,-1.7422545383459564,-5.286708289248804,-9.64259088730564,71.48999999999069
311895.3707,-11.268374540396298,-2.6012546685753444,-5.993559249083396,-10.045011806383828,71.49100000003818
311895.3717,-12.045111008803463,-3.3237489308523918,-6.487084862429315,-10.198255618025781,71.49200000002747
311895.3727,-12.5714206779924,-3.895568225578724,-6.750972479065495,-10.095688786740261,71.49300000001676
311895.3737,-12.843542097851298,-4.318677095327591,-6.786139578733277,-9.74730629591199,71.49400000000605
311895.3747,-12.874475562677295,-4.610066458531422,-6.610084300659936,-9.178633345427857,71.49499999999534
311895.3757,-12.691774770580956,-4.799054014811618,-6.254719575972811,-8.42817238663916,71.49599999998463
311895.3767,-12.334020549801531,-4.923291290443951,-5.762930737005298,-7.543666859505384,71.49700000003213
311895.3777,-11.84636523762943,-5.023907677814138,-5.184217908329362,-6.577569466462399,71.49800000002142
311895.3787,-11.275624325274805,-5.140309357806393,-4.569869105931424,-5.582179776177378,71.49900000001071
311895.3797,-10.665431325584061,-5.30518604530384,-3.968149755329762,-4.604945907190247,71.5
311895.3807,-10.051958853359103,-5.540257644825089,-3.419985695378144,-3.6844051733674776,71.50099999998929
311895.3817,-9.460645189788881,-5.85321826352069,-2.955560836954118,-2.8471709912320264,71.50200000003679
311895.3827,-8.904257709973258,-6.236214039855303,-2.5921533011080937,-2.1062648827508954,71.50300000002608
311895.3837,-8.382483420647587,-6.666035926144798,-2.3334049231003635,-1.460953925424247,71.50400000001537
311895.3847,-7.883076692886746,-7.106034322794167,-2.1700714015471387,-0.8980993408064997,71.50500000000466
311895.3857,-7.384431161481452,-7.50958658841264,-2.0821488183956802,-0.3948665122943245,71.50599999999395
311895.3867,-6.859293064468553,-7.824788406498734,-2.0421318316332795,0.07749389515248593,71.50699999998324
311895.3877,-6.279212052747119,-7.999911702155738,-2.0190435006938667,0.5491958014672912,71.50800000003073
311895.3887,-5.619244943560656,-7.989088097947422,-1.9827979073550952,1.0472723136339985,71.50900000002002
311895.3897,-4.862396242559619,-7.757646246035629,-1.908422334580741,1.5912330755656476,71.51000000000931
311895.3907,-4.003299910651994,-7.286557055096275,-1.7796792345401244,2.1894966071322246,71.5109999999986
311895.3917,-3.0507180300022783,-6.575520612558853,-1.5916883054183515,2.8369963677493666,71.51199999998789
311895.3927,-2.028546950973909,-5.644354951444069,-1.3522498512506624,3.514245052268093,71.51300000003539
311895.3937,-0.9751690505895296,-4.532507619163113,-1.0817023291857484,4.187997730831447,71.51400000002468
311895.3947,0.058845996715808105,-3.296690765380734,-0.8112966270099091,4.8134949009507055,71.51500000001397
311895.3957,1.0145188156764868,-2.0068217733675553,-0.5802223791094837,5.33810695528976,71.51600000000326
311895.3967,1.8293920629532736,-0.7406167034096603,-0.4315623688897496,5.706057691147645,71.51699999999255
311895.3977,2.4431682887010364,0.4226831077676699,-0.40756574048162597,5.863790554210644,71.51799999998184
311895.3987,2.8035248769624563,1.4088830730390707,-0.5447078065704312,5.7654687271014105,71.51900000002934
311895.3997,2.871546553690866,2.15510380035292,-0.8690357827483666,5.378076375600893,71.52000000001863
311895.4007,2.62623953392234,2.6151671394702505,-1.3922823193569807,4.685616069561723,71.52100000000792
311895.4017,2.0676672227072204,2.7635997172863433,-2.109163543807282,3.6919743190272967,71.5219999999972
311895.4027,1.2183686081313574,2.5978804591543274,-2.9961714530128076,2.422146228894782,71.5229999999865
311895.4037,0.1228757611601069,2.138721051929092,-4.0120320009903985,0.9216602706261158,71.524000000034
311895.4047,-1.1546785055411937,1.428351075350443,-5.099843343322972,-0.7457891620389682,71.52500000002328
311895.4057,-2.534694408392631,0.526965100562192,-6.190748515912487,-2.5023263405021186,71.52600000001257
311895.4067,-3.927648877288167,-0.4923403627552969,-7.208848816064451,-4.261168785970144,71.52700000000186
311895.4077,-5.240584454610893,-1.5496729423794695,-8.076942674887771,-5.9327426111195445,71.52799999999115
311895.4087,-6.383988283240156,-2.56493178211127,-8.722591695406187,-7.431109060021599,71.52900000003865
311895.4097,-7.2784671407199975,-3.4642735663028565,-9.083978937257372,-8.680141943680313,71.53000000002794
311895.4107,-7.860640886867212,-4.185871069325042,-9.115038137334583,-9.618917536180957,71.53100000001723
311895.4117,-8.087746937330909,-4.6844503791238274,-8.789395209558037,-10.205850949004489,71.53200000000652
311895.4127,-7.940565794657352,-4.934213831430281,-8.102769181427995,-10.421229137856349,71.53299999999581
311895.4137,-7.424431073534284,-4.929913391316117,-7.07361865720635,-10.267939405770091,71.5339999999851
311895.4147,-6.568262215941831,-4.686018386412611,-5.74197872071945,-9.770359298402061,71.5350000000326
311895.4157,-5.42173754448027,-4.234104734237403,-4.166596777620216,-8.97154313269648,71.53600000002189
311895.4167,-4.050892372167251,-3.618762353430773,-2.4206286269890347,-7.928995839802293,71.53700000001118
311895.4177,-2.5325657356028954,-2.8924569028867575,-0.5862835595788469,-6.709451481973823,71.53800000000047
311895.4187,-0.9482168757421651,-2.109877902384076,1.2511025046574977,-5.383159670371314,71.53899999998976
311895.4197,0.6223201822635281,-1.322348459744462,3.009042278334218,-4.018220089034114,71.54000000003725
311895.4207,2.106582840666032,-0.5728582210239537,4.613402260595566,-2.675490099172792,71.54100000002654
311895.4217,3.444226382496637,0.10778772418049064,6.002973063253614,-1.404524712770865,71.54200000001583
311895.4227,4.5903776787620325,0.7033285063325874,7.1327371319419495,-0.24089874149400356,71.54300000000512
311895.4237,5.517346874470432,1.212694228018696,7.975596459446771,0.7948814506759151,71.54399999999441
311895.4247,6.214613329878806,1.6488938330641327,8.522473785405667,1.696830353010028,71.5449999999837
311895.4257,6.687173117816063,2.0362778114334343,8.780857375075547,2.4714177555521597,71.5460000000312
311895.4267,6.952495066345255,2.406475586449463,8.77200649219231,3.134254049849594,71.54700000002049
311895.4277,7.036465085009138,2.7934435803521347,8.527157890032523,3.705918135743684,71.54800000000978
311895.4287,6.968791453121739,3.2281526477658073,8.083161235173165,4.207402632756717,71.54899999999907
311895.4297,6.778388001313261,3.7334835897656196,7.478015124285962,4.655685990167622,71.54999999998836
311895.4307,6.489243656067239,4.3198827701177045,6.746771401820576,5.059924622032406,71.55100000003586
311895.4317,6.117226848242355,4.982257977044056,5.918224713419334,5.418692109078601,71.55200000002515
311895.4327,5.668168116412497,5.6984745596497834,5.012712138065582,5.718583437760939,71.55300000001444
311895.4337,5.13742463225511,6.4296552132754,4.041223894188465,5.934361042401623,71.55400000000373
311895.4347,4.510970493229353,7.122308886562674,3.0058831745125407,6.030660088808371,71.55499999999302
311895.4357,3.767892603246294,7.712132529694912,1.9017056319934365,5.96510877340757,71.5559999999823
311895.4367,2.8840203130311415,8.129161590533819,0.7194118124869812,5.69257142371766,71.5570000000298
311895.4377,1.8362929855796293,8.303807742912607,-0.5510472718249111,5.17010254349103,71.55800000001909
311895.4387,0.6073857974716457,8.17322879888304,-1.9166688359514419,4.362120538899915,71.55900000000838
311895.4397,-0.8099210990159086,7.687435347221704,-3.37773298435594,3.2452786382049132,71.55999999999767
311895.4407,-2.4091277588796967,6.814555442066481,-4.924732558964461,1.8125307056585056,71.56099999998696
311895.4417,-4.167583661972995,5.544751148793857,-6.536279332142096,0.07595944789442263,71.56200000003446
311895.4427,-6.045558344940735,3.8924020423969568,-8.178269835289397,-1.9319527399012937,71.56300000002375
311895.4437,-7.986985179744735,1.8963292193545764,-9.80446618213157,-4.15878520077283,71.56400000001304
311895.4447,-9.921885327400252,-0.3819861943120663,-11.358502020360895,-6.5343846997595385,71.56500000000233
311895.4457,-11.770311340820566,-2.862051010305012,-12.777175753583387,-8.974662107595496,71.56599999999162
311895.4467,-13.44749602198766,-5.449563478016768,-13.994757265618867,-11.38667528470887,71.56699999998091
311895.4477,-14.869767201125804,-8.042719047465098,-14.94792424865394,-13.674570205632715,71.5680000000284
311895.4487,-15.960705554103463,-10.539065946197507,-15.580871073034501,-15.745869512216409,71.5690000000177
311895.4497,-16.656988848571526,-12.842311447020629,-15.85010450348568,-17.51756314959119,71.57000000000698
311895.4507,-16.91338570155283,-14.86848979104876,-15.728459647301717,-18.92147283745687,71.57099999999627
311895.4517,-16.70643342854244,-16.55096833749498,-15.207934791193367,-19.908429167979676,71.57199999998556
311895.4527,-16.03645120095831,-17.84388303372669,-14.301049154097806,-20.450910573160105,71.57300000003306
311895.4537,-14.927690432875297,-18.723746429504814,-13.040562984911698,-20.5439365537372,71.57400000002235
311895.4547,-13.426594688008182,-19.189146303058273,-11.477551804193894,-20.204169559208363,71.57500000001164
311895.4557,-11.598315105096871,-19.258633501299744,-9.677981150405707,-19.46734512763963,71.57600000000093
311895.4567,-9.521787716805619,-18.967066335643405,-7.718069902822142,-18.38430245617443,71.57699999999022
311895.4577,-7.283810698044964,-18.360819571743153,-5.678845286140645,-17.016012892890533,71.57800000003772
311895.4587,-4.972649912700711,-17.492365276530403,-3.6403697583680903,-15.428090037362356,71.57900000002701
311895.4597,-2.671741516363251,-16.414781225177904,-1.67615156294084,-13.685304178215228,71.5800000000163
311895.4607,-0.4540470246728905,-15.176735918302738,0.151766371303455,-11.846612259325243,71.58100000000559
311895.4617,1.6224494354931251,-13.818438619712255,1.7966087004789502,-9.961153952689381,71.58199999999488
311895.4627,3.5177235790243966,-12.368934582811985,3.229235779988382,-8.065560980076501,71.58299999998417
311895.4637,5.2109416820452505,-10.844980813205757,4.4388882773616825,-6.182790947205862,71.58400000003166
311895.4647,6.699875684701743,-9.251570883182216,5.432272627331299,-4.322542111628058,71.58500000002095
311895.4657,7.998611065465753,-7.5840051426720745,6.231108243754032,-2.4831469520170915,71.58600000001024
311895.4667,9.133816297725433,-5.831242296365024,6.8684017627432965,-0.6546956798123669,71.58699999999953
311895.4677,10.139975908929777,-3.9801356534881025,7.383831848104719,1.1769797575031535,71.58799999998882
311895.4687,11.054082480917687,-2.0200655395834914,7.818708900215745,3.0259133989604314,71.58900000003632
311895.4697,11.910327587393207,0.05256254469189579,8.211009674505402,4.901693937814115,71.59000000002561
311895.4707,12.735323639467646,2.230472310658174,8.590974023494896,6.805711363946296,71.5910000000149
311895.4717,13.54432900744916,4.492776997760144,8.977691114773933,8.728378638320526,71.59200000000419
311895.4727,14.338843715648814,6.803687768936203,9.377001491752075,10.647643798590618,71.59299999999348
311895.4737,15.105802972073208,9.11286583036202,9.78090915406111,12.52897472933463,71.59399999998277
311895.4747,15.81843466310492,11.35744669343775,10.168547366471955,14.326847417034667,71.59500000003027
311895.4757,16.438680582818993,13.4655936646576,10.50858783555582,15.987613889126097,71.59600000001956
311895.4767,16.920925894905736,15.361279263048338,10.762840223747608,17.453483555770717,71.59700000000885
311895.4777,17.216652315391354,16.969863633109405,10.89067157262412,18.667235483772515,71.59799999999814
311895.4787,17.279540305282712,18.22395115093636,10.853794477347867,19.577200801094378,71.59899999998743
311895.4797,17.070502875959125,19.068969233608854,10.620936607600596,20.142021802223,71.60000000003492
311895.4807,16.56214244590296,19.467930804055054,10.171915882378036,20.334710744908563,71.60100000002421
311895.4817,15.742181474825552,19.40491250589684,9.500704074145549,20.14559530658582,71.6020000000135
311895.4827,14.615521300513938,18.886897922709608,8.617161077231632,19.583843011459024,71.6030000000028
311895.4837,13.204721302585344,17.943787438215054,7.547252758439418,18.67739334980232,71.60399999999208
311895.4847,11.548848458044645,16.626549165725372,6.331714394655006,17.47128039127429,71.60499999998137
311895.4857,9.700809789758871,15.003661694077723,5.023274569893148,16.024485257381723,71.60600000002887
311895.4867,7.72343096073889,13.156161947783952,3.6826960556621966,14.405601384620383,71.60700000001816
311895.4877,5.684668321601474,11.171744237996133,2.374006730921107,12.68771183609238,71.60800000000745
311895.4887,3.6524267187083024,9.138446462441305,1.1593735673068881,10.942955413373962,71.60899999999674
311895.4897,1.689492843888742,7.1384974555334075,0.0941082528593979,9.237289197721195,71.60999999998603
311895.4907,-0.1509198878606588,5.242881835737192,-0.777719344814272,7.625936216926617,71.61100000003353
311895.4917,-1.8285826400571834,3.5071069676227795,-1.4266427563079744,6.149939918779202,71.61200000002282
311895.4927,-3.318293585222061,1.9685378094977797,-1.839818395614376,4.83413852520796,71.61300000001211
311895.4937,-4.610366493289102,0.6455110773260989,-2.021516880447907,3.686732767297863,71.6140000000014
311895.4947,-5.709539410099851,-0.4617345257859717,-1.9920493611962393,2.700463677186074,71.61499999999069
311895.4957,-6.632439152993354,-1.3684530941188917,-1.78524477798909,1.8552584978360156,71.61600000003818
311895.4967,-7.403885767570623,-2.101415831840983,-1.444735177168277,1.1220580434281202,71.61700000002747
311895.4977,-8.052441138425948,-2.694002289514985,-1.0194219909861075,0.46742234813979217,71.61800000001676
311895.4987,-8.605685410168457,-3.1808850769757724,-0.5585751108836121,-0.1415652258301216,71.61900000000605
311895.4997,-9.085735535238582,-3.5928711565353715,-0.10705088087455246,-0.7326043979600342,71.61999999999534
311895.5007,-9.505498735653177,-3.952443072702649,0.2988985898001142,-1.3241824842660757,71.62099999998463
311895.5017,-9.866081750903339,-4.2704692979881465,0.6348128110054021,-1.9226946421544635,71.62200000003213
311895.5027,-10.155661284074867,-4.544431536883873,0.8898961758580116,-2.5209857002331284,71.62300000002142
311895.5037,-10.34997327639988,-4.758360295751065,1.0673982467999479,-3.0984767634469965,71.62400000001071
311895.5047,-10.414413053760548,-4.884493787016821,1.1834719540300083,-3.622880218514803,71.625
311895.5057,-10.307571386234295,-4.886496790367531,1.2646333621367614,-4.053346002303058,71.62599999998929
311895.5067,-9.985879731432336,-4.723913221419369,1.3440873557770288,-4.344735906834679,71.62700000003679
311895.5077,-9.408916653826159,-4.357395161235591,1.4572983021008479,-4.452605752831782,71.62800000002608
311895.5087,-8.54484897979408,-3.7541651819489483,1.637262090040011,-4.338399117596491,71.62900000001537
311895.5097,-7.375453874326685,-2.8931367530200873,1.9099682120933648,-3.9743286236366697,71.63000000000466
311895.5107,-5.900194949377733,-1.7691428179759967,2.290524456376137,-3.3474445133903314,71.63099999999395
311895.5117,-4.138904658358217,-0.39580312033751897,2.780353781507109,-2.4624632495419214,71.63199999998324
311895.5127,-2.132749382821777,1.1933111053100525,3.365769131941174,-1.3430442520058528,71.63300000003073
311895.5137,0.05668888647949697,2.9453932338967124,4.0180974114362575,-0.03134951512431013,71.63400000002002
311895.5147,2.3502045168092196,4.790993755594581,4.695371691269029,1.414115429201866,71.63500000000931
311895.5157,4.65544673201151,6.64830077414809,5.345455855711,2.9222157855764737,71.6359999999986
311895.5167,6.8727357465921575,8.428752618200685,5.910323437950747,4.414143410258467,71.63699999998789
311895.5177,8.901737093842526,10.043492255506818,6.331096340381396,5.8091799437667975,71.63800000003539
311895.5187,10.648428090467533,11.41008510002011,6.553370871682177,7.030752999746924,71.63900000002468
311895.5197,12.031756197229548,12.45888883613619,6.532325804654289,8.01224035694969,71.64000000001397
311895.5207,12.989410767354792,13.138489499555957,6.237123269745291,8.701998076706195,71.64100000000326
311895.5217,13.482205441558248,13.419699998667095,5.654176802784446,9.067159310451872,71.64199999999255
311895.5227,13.496691187122803,13.297747799940911,4.788965700355579,9.095864447127552,71.64299999998184
311895.5237,13.045778123254511,12.792445170397077,3.666210914943627,8.797729200887614,71.64400000002934
311895.5247,12.167322875151864,11.946322185742321,2.328381911260617,8.202521194291146,71.64500000001863
311895.5257,10.920820361271073,10.820891726247542,0.8326613035020171,7.357181775035715,71.64600000000792
311895.5267,9.382507434631208,9.491388726563681,-0.753360518542735,6.3214822576142025,71.6469999999972
311895.5277,7.639324805482962,8.040466399439936,-2.356869243196792,5.162727914326681,71.6479999999865
311895.5287,5.782280173362879,6.551426555549621,-3.9054157005504653,3.9500070429271217,71.649000000034
311895.5297,3.8998006089887802,5.101600496172333,-5.332400574777926,2.748518423062505,71.65000000002328
311895.5307,2.071652026368818,3.756477600598055,-6.58195779733098,1.6144952329241473,71.65100000001257
311895.5317,0.36393946988321013,2.5651026880103025,-7.612799810570707,0.5911788044188752,71.65200000000186
311895.5327,-1.1744095252069044,1.5571380062725997,-8.400689663719028,-0.29381198168974487,71.65299999999115
311895.5337,-2.513423978776905,0.7418235320044403,-8.939338297748348,-1.0295096090616676,71.65400000003865
311895.5347,-3.6420459068785145,0.10888594665500993,-9.23967733686667,-1.6209772224877417,71.65500000002794
311895.5357,-4.566353919351433,-0.3687400257263093,-9.327613392044983,-2.087151361014179,71.65600000001723
311895.5367,-5.306306873979379,-0.7306862100005124,-9.240514127945442,-2.4574092779153633,71.65700000000652
311895.5377,-5.891396341475141,-1.0238704921032165,-9.022795136583644,-2.7672428161164544,71.65799999999581
311895.5387,-6.3556923217710795,-1.2967061898864538,-8.721058514451085,-3.0535026867761483,71.6589999999851
311895.5397,-6.732813292379578,-1.59338833631901,-8.379271118774994,-3.349712152059346,71.6600000000326
311895.5407,-7.051345237612156,-1.948828408337446,-8.034459357988355,-3.681934378649706,71.66100000002189
311895.5417,-7.331175996429469,-2.384737701378265,-7.713339365131992,-4.0656148651048065,71.66200000001118
311895.5427,-7.581107346031204,-2.907239661327644,-7.430202426350101,-4.503715845892137,71.66300000000047
311895.5437,-7.797968414250274,-3.5062350117840078,-7.18624551871969,-4.986324011682073,71.66399999998976
311895.5447,-7.967294358507726,-4.15656595549161,-6.9703887132023725,-5.49175986399191,71.66500000003725
311895.5457,-8.065469803903872,-4.820844593390118,-6.761469734698777,-5.9890618325536025,71.66600000002654
311895.5467,-8.063083724076042,-5.4536437953595795,-6.531566163004553,-6.441576392796583,71.66700000001583
311895.5477,-7.929116469565745,-6.006612429725243,-6.250081455234131,-6.811270950007919,71.66800000000512
311895.5487,-7.635492969989086,-6.433984429290561,-5.888153487996227,-7.063310594050762,71.66899999999441
311895.5497,-7.161497285644288,-6.697911620035339,-5.422911326584575,-7.170410511004282,71.6699999999837
311895.5507,-6.497556416553402,-6.773067340934309,-4.841120699375833,-7.116495813394154,71.6710000000312
311895.5517,-5.647964217413796,-6.650039854368657,-4.141819738185613,-6.899267889644842,71.67200000002049
311895.5527,-4.632223057795991,-6.33715422610529,-3.3376479110591206,-6.53138446106351,71.67300000000978
311895.5537,-3.4848208049446705,-5.86051691839458,-2.45470270941463,-6.040098720866379,71.67399999999907
311895.5547,-2.25341980697337,-5.262253469085174,-1.530907543352637,-5.465357575180541,71.67499999998836
311895.5557,-0.995596936236791,-4.597089012389748,-0.613025714465293,-4.8565148215928655,71.67600000003586
311895.5567,0.22557679052570337,-3.9275864278156662,0.2474057284572342,-4.267956649633767,71.67700000002515
311895.5577,1.3467068993497096,-3.3184914058101858,0.9988357864783619,-3.754050061506635,71.67800000001444
311895.5587,2.309504780609504,-2.830724521535453,1.5946913494285089,-3.363898375021219,71.67900000000373
311895.5597,3.0659506941350325,-2.51559862887031,1.9981093996250032,-3.136414436042212,71.67999999999302
311895.5607,3.5826839856374373,-2.4098217880203796,2.1859360735797235,-3.0961986902706924,71.6809999999823
311895.5617,3.84418265386311,-2.5317732843201677,2.1515839135698607,-3.2506378879004107,71.6820000000298
311895.5627,3.8544065879078557,-2.8794201608807755,1.9064440068835475,-3.588527658499067,71.68300000001909
311895.5637,3.636723681432587,-3.430085765563574,1.4796854870001397,-4.080379277410931,71.68400000000838
311895.5647,3.2321015334440863,-4.142105259937502,0.9164279513885971,-4.680411421280602,71.68499999999767
311895.5657,2.695713622808587,-4.958222992482877,0.27442791553468315,-5.330067002043711,71.68599999998696
311895.5667,2.092261466541983,-5.810420548247648,-0.3804366169762157,-5.96274884785753,71.68700000003446
311895.5677,1.4904384110012556,-6.625728213338288,-0.9794829230950065,-6.509350270920948,71.68800000002375
311895.5687,0.9570441915824544,-7.332479651834077,-1.456862491179514,-6.9040788820632635,71.68900000001304
311895.5697,0.5512940123046303,-7.866428690978231,-1.7550098257380884,-7.090041973769244,71.69000000000233
311895.5707,0.3198481791720784,-8.176162088634175,-1.8294045283137867,-7.024082389429214,71.69099999999162
311895.5717,0.29301990496942165,-8.22731142971826,-1.6522131104569533,-6.680423126725232,71.69199999998091
311895.5727,0.48250636503384414,-8.005184020259357,-1.2144813873045164,-6.052790375941031,71.6930000000284
311895.5737,0.8808423069863579,-7.51558538872655,-0.5266840055535112,-5.1548275849511205,71.6940000000177
311895.5747,1.462610636778654,-6.7837798675017025,0.3824083795829288,-4.018773745034996,71.69500000000698
311895.5757,2.187276430503742,-5.851713801686605,1.46842636999787,-2.692541962949558,71.69599999999627
311895.5767,3.003356086322356,-4.773790938141219,2.675399947307327,-1.2354838600481095,71.69699999998556
311895.5777,3.8535068883031443,-3.611625516834446,3.9406739122266448,0.28675295117235344,71.69800000003306
311895.5787,4.680036410110061,-2.428292415176574,5.200274368612235,1.8077847992719964,71.69900000002235
311895.5797,5.4302942904541505,-1.2826364169483075,6.394222346940257,3.2659448187103455,71.70000000001164
311895.5807,6.061424532058672,-0.2241903309002736,7.471301612751882,4.609119873726878,71.70100000000093
311895.5817,6.544023040897535,0.7108143008183105,8.392845996437451,5.798527187225637,71.70199999999022
311895.5827,6.864356069378236,1.5019731141789092,9.135211362780424,6.811093357055137,71.70300000003772
311895.5837,7.024939637048718,2.14554931978393,9.69072873257764,7.640237466275384,71.70400000002701
311895.5847,7.043443667471167,2.65357607143047,10.067085134068819,8.29501737643034,71.7050000000163
311895.5857,6.950051395740944,3.051342114081197,10.285232767265253,8.797758636551995,71.70600000000559
311895.5867,6.783558148271067,3.3735428873053155,10.376069932178034,9.180433088399429,71.70699999999488
311895.5877,6.58661875502254,3.659511332190517,10.37625495833933,9.480174815737255,71.70799999998417
311895.5887,6.400637292237151,3.9480329417991205,10.323595634228967,9.734402867939265,71.70900000003166
311895.5897,6.2608282409846385,4.272289261667815,10.252493548191058,9.97605530488147,71.71000000002095
311895.5907,6.191960975986902,4.655459246445041,10.189911877326882,10.229424269409607,71.71100000001024
311895.5917,6.205231430488151,5.107440149026886,10.152277771169391,10.507018607465193,71.71199999999953
311895.5927,6.296592481183778,5.623035720247634,10.143632424937651,10.807775371434836,71.71299999998882
311895.5937,6.44672907696996,6.181810745323998,10.155213068862185,11.116804809990446,71.71400000003632
311895.5947,6.622699680045394,6.749642091032474,10.166504278491281,11.406698689054744,71.71500000002561
311895.5957,6.781098350161502,7.281824223313453,10.147645844577516,11.640274265561839,71.7160000000149
311895.5967,6.872438222601314,7.727428654891555,10.062945843585998,11.774481453751374,71.71700000000419
311895.5977,6.846332327401766,8.034487731144878,9.875134271524033,11.765082914140903,71.71799999999348
311895.5987,6.656963993173503,8.155486405184702,9.549915880682498,11.571637525679964,71.71899999998277
311895.5997,6.26830479425763,8.052609882008277,9.060348309757218,11.16228474906953,71.72000000003027
311895.6007,5.658556642108802,7.702213908519668,8.39058647739955,10.517843985801955,71.72100000001956
311895.6017,4.823364541442069,7.098056356489784,7.538595089891361,9.634807559870783,71.72200000000885
311895.6027,3.7774610818199768,6.25294667793556,6.5175320260694365,8.526912082840997,71.72299999999814
311895.6037,2.5545519157088807,5.198622350013901,5.355636381575288,7.225110323785619,71.72399999998743
311895.6047,1.2054189983002521,3.983833683145824,4.094603172129674,5.775920857203256,71.72500000003492
311895.6057,-0.20561095333566481,2.670793479845942,2.7865774877251615,4.238290530962197,71.72600000002421
311895.6067,-1.6055279982018802,1.3303088145611448,1.4900393519893478,2.679249755651741,71.7270000000135
311895.6077,-2.9183969919728976,0.03604282705220944,0.26496295429352257,1.1687585942329501,71.7280000000028
311895.6087,-4.071490922488197,-1.1415580325628423,-0.8322908958360905,-0.22577890547862858,71.72899999999208
311895.6097,-5.0012403289968335,-2.141100129071862,-1.7538598321018415,-1.4448215075278068,71.72999999998137
311895.6107,-5.658454813973521,-2.9152907012720073,-2.464570762938144,-2.4413244159295004,71.73100000002887
311895.6117,-6.012339752048393,-3.434719890984986,-2.9450285908897316,-3.1842696762878115,71.73200000001816
311895.6127,-6.052943783362604,-3.690018962643029,-3.1932990406068624,-3.6607691514611944,71.73300000000745
311895.6137,-5.791819687628054,-3.6921922182598617,-3.225016048897061,-3.8765529890819526,71.73399999999674
311895.6147,-5.260848574396076,-3.4710954173859876,-3.0718954493219006,-3.854811462738621,71.73499999998603
311895.6157,-4.509348845859415,-3.072211761801747,-2.7787902213113673,-3.633515730347229,71.73600000003353
311895.6167,-3.5997505624704957,-2.5520402985968933,-2.3995633324743184,-3.261488013074933,71.73700000002282
311895.6177,-2.6022473705298967,-1.9725449113370574,-1.9921683765666867,-2.793609817129064,71.73800000001211
311895.6187,-1.588929456331072,-1.3952018409117037,-1.613404584488758,-2.285636607852928,71.7390000000014
311895.6197,-0.6279434382832537,-0.8752210829405334,-1.313843846902406,-1.7891210851966468,71.73999999999069
311895.6207,0.22178515844023955,-0.45649834280463775,-1.1334100616577554,-1.3469317170694568,71.74100000003818
311895.6217,0.914792887802015,-0.1677812782608926,-1.0980270808104204,-0.989790118391801,71.74200000002747
311895.6227,1.4219156767771592,-0.020413631851636097,-1.217647037078336,-0.7341465489581331,71.74300000001676
311895.6237,1.731496509166748,-0.007865290849727346,-1.4858361019880557,-0.5815776201117134,71.74400000000605
311895.6247,1.848899234727449,-0.10708053420764586,-1.8809429531498953,-0.5197376495262517,71.74499999999534
311895.6257,1.7944303577985727,-0.28149794789668436,-2.3687212572509653,-0.5247400881618891,71.74599999998463
311895.6267,1.599924918771378,-0.4854312285441321,-2.906136367844148,-0.5647033817379989,71.74700000003213
311895.6277,1.3043798887344855,-0.6693664503596942,-3.4459719850014516,-0.6040805463283562,71.74800000002142
311895.6287,0.9491064719714905,-0.7856414455982588,-3.9417759035456483,-0.6083149871095421,71.74900000001071
311895.6297,0.5729128943931232,-0.793935565884294,-4.352652657101883,-0.5483342347514377,71.75
311895.6307,0.20781793490334746,-0.6660169249753439,-4.647427881281477,-0.4044113449921514,71.75099999998929
311895.6317,-0.12426598248293173,-0.3892674394225884,-4.807772876430875,-0.16898889868732533,71.75200000003679
311895.6327,-0.4135465349193183,0.03137358038653427,-4.829981891207005,0.15183361306920393,71.75300000002608
311895.6337,-0.6628668172480165,0.5732506710235877,-4.725228863274812,0.5383122246555687,71.75400000001537
311895.6347,-0.8866844812151947,1.1976456422884436,-4.5182815768932745,0.9585812797155263,71.75500000000466
311895.6357,-1.1086378410891526,1.8530915985755598,-4.244804591775635,1.3715429101328027,71.75599999999395
311895.6367,-1.357970206511209,2.4800316479637807,-3.9475228037116357,1.730839225508229,71.75699999998324
311895.6377,-1.6652041689649901,3.0163728221023134,-3.6716313056349947,1.989510763621858,71.75800000003073
311895.6387,-2.0575382436045637,3.403396028045818,-3.459913121438406,2.104871455530182,71.75900000002002
311895.6397,-2.5544709570986455,3.591445853392498,-3.3480568795987384,2.0431036916301997,71.76000000000931
311895.6407,-3.1641387378946395,3.5448434303280005,-3.3606485163486304,1.7830999122217885,71.7609999999986
311895.6417,-3.880785480257819,3.245539498619089,-3.5082463311752234,1.3191474789588855,71.76199999998789
311895.6427,-4.683670045846757,2.6951461187559027,-3.785843429125825,0.6621647018707139,71.76300000003539
311895.6437,-5.537574178464372,1.915142359717753,-4.172886019728439,-0.16066296581855485,71.76400000002468
311895.6447,-6.394911525827253,0.9452264182253841,-4.6348634239909465,-1.1078401723285942,71.76500000001397
311895.6457,-7.199274726837901,-0.16003327930786115,-5.1263308783536115,-2.126947777319425,71.76600000000326
311895.6467,-7.890108149332446,-1.3359299860845377,-5.59508445729248,-3.159149867603186,71.76699999999255
311895.6477,-8.40807383291672,-2.513280919804537,-5.987092555103536,-4.144399350032651,71.76799999998184
311895.6487,-8.700599669070476,-3.624476670462742,-6.251711656467768,-5.0268458863064955,71.76900000002934
311895.6497,-8.72706997503531,-4.6093367734549995,-6.3466831597501265,-5.759924028718105,71.77000000001863
311895.6507,-8.463142684886853,-5.4202094368982525,-6.242425921446612,-6.310624390935516,71.77100000000792
311895.6517,-7.9037524991436445,-6.025827220933703,-5.925204331857264,-6.662524464967595,71.7719999999972
311895.6527,-7.064478587579614,-6.41355199046655,-5.398857875804994,-6.817271420432479,71.7729999999865
311895.6537,-5.981107543782083,-6.589799887665884,-4.684915043972181,-6.794355914365452,71.774000000034
311895.6547,-4.707392674789514,-6.578615064088153,-3.821068899808767,-6.62917954384006,71.77500000002328
311895.6557,-3.3111829291665984,-6.41854211405917,-2.8581486133596825,-6.3695833142108125,71.77600000001257
311895.6567,-1.8692520974936444,-6.15811386279348,-1.8558656209658808,-6.071154403310009,71.77700000000186
311895.6577,-0.46128598730887993,-5.8504070742163545,-0.8777307503942363,-5.791748963228568,71.77799999999115
311895.6587,0.8364304367381766,-5.547210424751635,0.014381760229077037,-5.585747883785681,71.77900000003865
311895.6597,1.9570508758957594,-5.293387696005685,0.7655136505058612,-5.498592452926768,71.78000000002794
311895.6607,2.8483770416510668,-5.122000701030867,1.332251054064337,-5.562124517505034,71.78100000001723
311895.6617,3.476760637610315,-5.050682664656805,1.6862704764356666,-5.791182947487166,71.78200000000652
311895.6627,3.829339668823039,-5.07963071935662,1.8164752473899477,-6.181791693614309,71.78299999999581
311895.6637,3.9144059709614383,-5.191427662955779,1.7295310575519445,-6.711125502180609,71.7839999999851
311895.6647,3.759875915379327,-5.352723533864356,1.448763020768451,-7.339271601405904,71.7850000000326
311895.6657,3.4100144467851305,-5.517624351296138,1.0115337421328756,-8.01263542011847,71.78600000002189
311895.6667,2.9207268842897522,-5.632466379208644,0.46536689936352404,-8.668681943905439,71.78700000001118
311895.6677,2.353867511149377,-5.6415159842186995,-0.1368001634215083,-9.241576670792341,71.78800000000047
311895.6687,1.7711059759743897,-5.493041090044159,-0.7417698477759058,-9.668203573146393,71.78899999998976
311895.6697,1.2279330954988084,-5.14515962804905,-1.3011425708782272,-9.89400035367262,71.79000000003725
311895.6707,0.7683728916801683,-4.570887311605267,-1.7757912869951749,-9.87806721388221,71.79100000002654
311895.6717,0.4208990338916757,-3.761880011625958,-2.139323556423177,-9.59707285677541,71.79200000001583
311895.6727,0.19593788687487093,-2.7304880389310515,-2.3802037745528732,-9.04759409347152,71.79300000000512
311895.6737,0.08518822220324361,-1.5098990401314234,-2.5023409444739473,-8.246672451819476,71.79399999999441
311895.6747,0.06281393306577582,-0.15232765127270503,-2.524098602013179,-7.2305385282777,71.7949999999837
311895.6757,0.08838744953592433,1.2746039527885764,-2.4758384125797677,-6.051626471364878,71.7960000000312
311895.6767,0.11129507961458368,2.692977854439762,-2.3962524542329886,-4.774160523646452,71.79700000002049
311895.6777,0.07617709178849406,4.020725165403249,-2.3278573200317516,-3.468727751970257,71.79800000000978
311895.6787,-0.07112183565989004,5.178245535318342,-2.312104451436795,-2.206343391772454,71.79899999999907
311895.6797,-0.37766298741290155,6.094897516919077,-2.38459770075327,-1.0525589226443561,71.79999999998836
311895.6807,-0.8781481496983943,6.714767825735282,-2.5708975336449726,-0.06215409379402281,71.80100000003586
311895.6817,-1.5907801479127799,7.0011957588234415,-2.883332748127284,0.725106260876525,71.80200000002515
311895.6827,-2.5146421997023842,6.939646873218133,-3.3191409110915546,1.287275548345902,71.80300000001444
311895.6837,-3.628843089298975,6.538685982187804,-3.8601277140483914,1.6213545068992596,71.80400000000373
311895.6847,-4.893506776554728,5.8289784564324085,-4.473885989956333,1.7426734891403328,71.80499999999302
311895.6857,-6.25251039964447,4.860433392029031,-5.116461862641177,1.682622475667278,71.8059999999823
311895.6867,-7.637710546667472,3.6977746196347154,-5.736213420699023,1.4849795365384442,71.8070000000298
311895.6877,-8.97425986448967,2.4149692293925313,-6.2784903025727665,1.2012186258474749,71.80800000001909
311895.6887,-10.186517597814465,1.0890445897412617,-6.690682055995169,0.8852693072444929,71.80900000000838
311895.6897,-11.204007651628627,-0.20612574537594613,-6.927146909451289,0.5882456666500693,71.80999999999767
311895.6907,-11.966880608719585,-1.4054937072903109,-6.953544130088581,0.35365534742544597,71.81099999998696
311895.6917,-12.43039099603058,-2.457454447909608,-6.750151221764913,0.21354345128080582,71.81200000003446
311895.6927,-12.568002100972455,-3.3270093152144,-6.313846062971236,0.18592598763532892,71.81300000002375
311895.6937,-12.372867461499743,-3.9972214010712888,-5.658563940908321,0.2737338982108658,71.81400000001304
311895.6947,-11.857597055829501,-4.468881823729337,-4.814187532645449,0.4653349347847898,71.81500000000233
311895.6957,-11.052381430926651,-4.758481492249159,-3.8239796863739337,0.7365422043835034,71.81599999999162
311895.6967,-10.001702296950262,-4.894748062691618,-2.740809503296629,1.053870742569905,71.81699999998091
311895.6977,-8.759988372353952,-4.914145006815021,-1.6225379762713474,1.3786815510485007,71.8180000000284
311895.6987,-7.386667993435197,-4.855825867634989,-0.5270090347177531,1.6717680313666774,71.8190000000177
311895.6997,-5.941116522697106,-4.756582683815322,0.49287242802228987,1.8979007695091816,71.82000000000698
311895.7007,-4.477992866903847,-4.646319040015846,1.3935054994012204,2.0298567245637797,71.82099999999627
311895.7017,-3.043406422729483,-4.544516450884121,2.143988658266295,2.0515167120065767,71.82199999998556
311895.7027,-1.6722593612765082,-4.458054276854841,2.7282309322340277,1.9597145834134722,71.82300000003306
311895.7037,-0.3869794721147826,-4.3805991690292885,3.145592412918821,1.7646525136413747,71.82400000002235
311895.7047,0.8022908082772598,-4.293614718871976,3.4100139175695006,1.48884604512581,71.82500000001164
311895.7057,1.8961377715261556,-4.16887217566635,3.5477451685799233,1.1647149635423864,71.82600000000093
311895.7067,2.9031839593684494,-3.9721858356755324,3.593919079340873,0.831076360554244,71.82699999999022
311895.7077,3.8366091726954306,-3.667967780606729,3.5883329353453988,0.5289102778327733,71.82800000003772
311895.7087,4.710314454528899,-3.224109005498692,3.5708742559275404,0.2968446447767846,71.82900000002701
311895.7097,5.535193132784691,-2.6166564822472416,3.5770622936979315,0.16683710165097054,71.8300000000163
311895.7107,6.315958559761939,-1.8337722314913383,3.634162177093482,0.16051354692432598,71.83100000000559
311895.7117,7.048916138541027,-0.8785295333973668,3.7582689830771763,0.28655851681198197,71.83199999999488
311895.7127,7.720963844736029,0.2297837196057955,3.952659429859875,0.5394471435467512,71.83299999998417
311895.7137,8.309971197308617,1.456035130005436,4.20757925317673,0.8996728683881597,71.83400000003166
311895.7147,8.786535134596038,2.7513028115071885,4.501487524274968,1.3354727798788926,71.83500000002095
311895.7157,9.116957961632977,4.056454644685065,4.803629774537108,1.8058986070386578,71.83600000001024
311895.7167,9.267153188807786,5.306933184202987,5.077674707624307,2.264941444415253,71.83699999999953
311895.7177,9.207074133288847,6.438299763230721,5.286038237706568,2.666306338875627,71.83799999998882
311895.7187,8.915189323345324,7.3920064889245705,5.3944447987380215,2.9683603328913697,71.83900000003632
311895.7197,8.382505830440815,8.120831769922702,5.376246889193872,3.138751987999371,71.84000000002561
311895.7207,7.615669726604804,8.593437480715489,5.216042808918384,3.1582247382815365,71.8410000000149
311895.7217,6.638749927492414,8.797582109255613,4.912197934392478,3.0232186511814674,71.84200000000419
311895.7227,5.493430825079933,8.741647201818834,4.477980490766121,2.746968553526459,71.84299999999348
311895.7237,4.237489160549121,8.454292418790427,3.9411584279920273,2.358950161173654,71.84399999998277
311895.7247,2.9415971618560715,7.982232340278925,3.342056485216425,1.9026859283354436,71.84500000003027
311895.7257,1.6846608897234865,7.38630857385455,2.730226887455697,1.4320832134681998,71.84600000001956
311895.7267,0.5480535902697912,6.736196137247655,2.160028144636103,1.0066232865625138,71.84700000000885
311895.7277,-0.39077638587448044,6.104217318772134,1.6855201217690374,0.6858363074164691,71.84799999999814
311895.7287,-1.0647670319886249,5.558826038670919,1.3551585303975606,0.5235731155989609,71.84899999998743
311895.7297,-1.4231922716054894,5.158362211346068,1.2068005977623486,0.562611860756706,71.85000000003492
311895.7307,-1.4365478259155178,4.9456549783835335,1.2635127414271448,0.8301132331921437,71.85100000002421
311895.7317,-1.0999033723267821,4.94397773189232,1.53060227737399,1.3343643872565538,71.8520000000135
311895.7327,-0.4343782530397761,5.154733746424137,1.9941848609683803,2.063135440764951,71.8530000000028
311895.7337,0.5134408999521222,5.557090842796478,2.621457918814542,2.983824676305294,71.85399999999208
311895.7347,1.6741421346240182,6.109602208253891,3.36269126160782,4.045403331701776,71.85499999998137
311895.7357,2.9600088677677943,6.753665715855709,4.154784624236362,5.182003923488868,71.85600000002887
311895.7367,4.271070820225211,7.418503575258915,4.926093593982186,6.317843356957257,71.85700000001816
311895.7377,5.502199641009044,8.027204261839612,5.602104567779985,7.373048233303835,71.85800000000745
311895.7387,6.550669969762582,8.503272773959706,6.111457710465773,8.269866586881976,71.85899999999674
311895.7397,7.323565182458454,8.777092429953191,6.391782290205973,8.938715673210385,71.85999999998603
311895.7407,7.74442161504012,8.791715537013518,6.39482462835763,9.323532600057638,71.86100000003353
311895.7417,7.758574225435556,8.507469700113566,6.090413729606883,9.385961779276526,71.86200000002282
311895.7427,7.336783832110893,7.904984273891978,5.468917234214724,9.108023792908167,71.86300000001211
311895.7437,6.476880126209378,6.986395801302841,4.541980311095189,8.493053561124842,71.8640000000014
311895.7447,5.2033310133616535,5.774667015258844,3.3414990238072124,7.5648577996756465,71.86499999999069
311895.7457,3.5648308798913377,4.311133866434596,1.9169422820203426,6.365207021172215,71.86600000003818
311895.7467,1.630171042534308,2.6515615184391783,0.3312871529779763,4.9499298849390785,71.86700000002747
311895.7477,-0.51720091149877,0.8611271573505314,-1.3440433335292508,3.3840029541122343,71.86800000001676
311895.7487,-2.78542306556973,-0.9911583808943234,-3.034764483183653,1.7361150154821943,71.86900000000605
311895.7497,-5.080698897883956,-2.838035655452434,-4.669320801057892,0.0732240642214016,71.86999999999534
311895.7507,-7.31345136145386,-4.619046730752652,-6.1839774236004175,-1.5443865059097042,71.87099999998463
311895.7517,-9.403640770413293,-6.284575316146069,-7.526964028732927,-3.067106447524155,71.87200000003213
311895.7527,-11.28483560935153,-7.798515086807602,-8.661323408983593,-4.458708920355464,71.87300000002142
311895.7537,-12.90676135480511,-9.139352488360316,-9.56624943684109,-5.697564555173227,71.87400000001071
311895.7547,-14.236210793030072,-10.299618353809898,-10.236850770904363,-6.77630500384402,71.875
311895.7557,-15.256364234116173,-11.283833544562777,-10.68243235421479,-7.700038423928057,71.87599999998929
311895.7567,-15.964723114313026,-12.105230312202934,-10.923531224958866,-8.48336373380639,71.87700000003679
311895.7577,-16.369990565773158,-12.781657387560367,-10.988062251850291,-9.146548238991588,71.87800000002608
311895.7587,-16.488325084966643,-13.331160208254808,-10.907011536821596,-9.711312828794854,71.87900000001537
311895.7597,-16.339439782815763,-13.76775977721728,-10.71015249881933,-10.196702664204032,71.88000000000466
311895.7607,-15.943015881634416,-14.097931134451528,-10.422248622349603,-10.615505995413965,71.88099999999395
311895.7617,-15.31584622522212,-14.318207531689671,-10.060148865957752,-10.971621215211123,71.88199999998324
311895.7627,-14.470028598889034,-14.414216596117884,-9.631082767618887,-11.258668924633664,71.88300000003073
311895.7637,-13.412399923705095,-14.361302052325902,-9.13233239491195,-11.460012163831983,71.88400000002002
311895.7647,-12.145254454035403,-14.126714279094172,-8.552310564177466,-11.550197553816677,71.88500000000931
311895.7657,-10.668237417078366,-13.6731822713841,-7.872924055217664,-11.497678078816941,71.8859999999986
311895.7667,-8.981165873883223,-12.963525744377389,-7.072962034308811,-11.268539949769599,71.88699999998789
311895.7677,-7.087415497829847,-11.965844852768884,-6.1321375263979725,-10.830845403294362,71.88800000003539
311895.7687,-4.997437306345063,-10.658748852918269,-5.035334925825696,-10.159131639546807,71.88900000002468
311895.7697,-2.731940108024893,-9.036062155426029,-3.776586876106629,-9.23858076109509,71.89000000001397
311895.7707,-0.32429581811412456,-7.110479527877148,-2.3623225873735185,-8.06839932789557,71.89100000000326
311895.7717,2.1782058934455066,-4.915729109706969,-0.8134952087779636,-6.6640169056013585,71.89199999999255
311895.7727,4.714516528667334,-2.5069344967366445,0.833697994836351,-5.057824002312533,71.89299999998184
311895.7737,7.21152304191247,0.04096699579091201,2.528652459389682,-3.2983103010623096,71.89400000002934
311895.7747,9.58724159311049,2.636709456323488,4.208746447806432,-1.4476203875070615,71.89500000001863
311895.7757,11.755316441814184,5.177863246656737,5.803125318971006,0.42229907764294516,71.89600000000792
311895.7767,13.630486365262845,7.557290606826531,7.2375785697415465,2.234645010828803,71.8969999999972
311895.7777,15.134567458691718,9.670371550643239,8.440093405811236,3.9133678581258042,71.8979999999865
311895.7787,16.202429191456627,11.422395050204756,9.346592484287058,5.388944751791991,71.899000000034
311895.7797,16.787417939356185,12.735481337582382,9.906333818939467,6.6037897725570245,71.90000000002328
311895.7807,16.86571190736557,13.55443061952711,10.086470856905546,7.5168005254414085,71.90100000001257
311895.7817,16.439171317997683,13.850979271314367,9.875338823046295,8.106613708036807,71.90200000000186
311895.7827,15.5363709721745,13.626078939336518,9.284143326746742,8.373257165513964,71.90299999999115
311895.7837,14.211657538567868,12.909984584644723,8.346868623528039,8.338031247495277,71.90400000003865
311895.7847,12.542246760566101,11.76012851937621,7.118382453490145,8.041614302189982,71.90500000002794
311895.7857,10.623549962407976,10.25695114593384,5.670876914278157,7.540550426939961,71.90600000001723
311895.7867,8.563078335589427,8.498037368100901,4.088934948215102,6.902426570123925,71.90700000000652
311895.7877,6.473402402540471,6.5910539327661635,2.4636355099361356,6.200166545291537,71.90799999999581
311895.7887,4.4647305145413485,4.646083756481849,0.8861956818277943,5.505950011803084,71.9089999999851
311895.7897,2.6377059765364685,2.767999402543838,-0.5583130393311215,4.885297375906766,71.9100000000326
311895.7907,1.0770039370439008,1.0495053137456334,-1.7966478585181989,4.391843820912277,71.91100000002189
311895.7917,-0.15376179149566097,-0.43459124618543093,-2.7720100589137746,4.0632590895487235,71.91200000001118
311895.7927,-1.0154286586351446,-1.63144035517107,-3.447227361253689,3.918660692670672,71.91300000000047
311895.7937,-1.4947304489642312,-2.5122587056986703,-3.8062724817350593,3.957727421513412,71.91399999998976
311895.7947,-1.6037282412782226,-3.0723873641112482,-3.854041201390607,4.161560927109349,71.91500000003725
311895.7957,-1.377334767745721,-3.32938460166797,-3.6144721413756122,4.49518093649736,71.91600000002654
311895.7967,-0.8692043666179925,-3.3194156876888843,-3.127238932057671,4.911389868797072,71.91700000001583
311895.7977,-0.14639800645499515,-3.0923484936773087,-2.4433695173913033,5.355619401794888,71.91800000000512
311895.7987,0.7166698538402747,-2.706068806507831,-1.6202353768582933,5.771286499288346,71.91899999999441
311895.7997,1.6444472204304328,-2.220582995442999,-0.7163974923956303,6.105147379603101,71.9199999999837
311895.8007,2.5660720863485205,-1.6924737797340592,0.2132076993179169,6.312148239637565,71.9210000000312
311895.8017,3.4203159521755446,-1.1702183964292332,1.1213093099904639,6.359329804883023,71.92200000002049
311895.8027,4.159248985083398,-0.6907738613884241,1.9712280920567549,6.228442874297742,71.92300000000978
311895.8037,4.7503687890431,-0.2776922755131997,2.7384684077387433,5.9170638588376905,71.92399999999907
311895.8047,5.177092508074455,0.05913519461065881,3.4108984187082507,5.438149730408005,71.92499999998836
311895.8057,5.437675478605944,0.32217730573399334,3.9875869880787533,4.818125920391608,71.92600000003586
311895.8067,5.542772794609075,0.5236355013942255,4.476501883013543,4.093743370679865,71.92700000002515
311895.8077,5.511988014278549,0.6818534923066816,4.891386386651701,3.3080581894095724,71.92800000001444
311895.8087,5.369843500311334,0.8172190099606655,5.248209300114025,2.505967817145092,71.92900000000373
311895.8097,5.141651046045529,0.9480565639005848,5.5616190081453425,1.729773574630561,71.92999999999302
311895.8107,4.849755637881572,1.0870007081777302,5.841822541166622,1.015227688302141,71.9309999999823
311895.8117,4.51057058917586,1.2382785730725125,6.0922567240520005,0.3884648765697795,71.9320000000298
311895.8127,4.132724878453838,1.3962248029745106,6.308326329659151,-0.1358795703205033,71.93300000001909
311895.8137,3.7165136263590974,1.5452126368606758,6.477363277753245,-0.5551914806657785,71.93400000000838
311895.8147,3.2546937716024424,1.6610261534314177,6.5798238460191705,-0.8780106939872301,71.93499999999767
311895.8157,2.734514550577031,1.7135371058052495,6.591601727197871,-1.1218939705772806,71.93599999998696
311895.8167,2.140732075358452,1.6704020154253947,6.487207926720132,-1.3102613593967156,71.93700000003446
311895.8177,1.4592436265534354,1.5013766218632925,6.243467077897562,-1.4685876476613615,71.93800000002375
311895.8187,0.680902025401508,1.1827678047251626,5.843314348666706,-1.620371210884,71.93900000001304
311895.8197,-0.19495845649815796,0.7015159306315812,5.279254715399748,-1.7833385045810306,71.94000000000233
311895.8207,-1.1577325046173288,0.058426432708675244,4.55606966617053,-1.966320791972237,71.94099999999162
311895.8217,-2.1838698214087167,-0.7298538593625901,3.6924234576636388,-2.1671724701520185,71.94199999998091
311895.8227,-3.2365864258912165,-1.6303998794926466,2.7211255579937768,-2.3719941213775546,71.9430000000284
311895.8237,-4.26709060586417,-2.5952432190169525,1.687937726469347,-2.5557887125247616,71.9440000000177
311895.8247,-5.217296273266677,-3.5642423064544495,0.6489603581872584,-2.68452964955036,71.94500000000698
311895.8257,-6.023839019306884,-4.469382897024159,-0.33322124163375905,-2.718469709290794,71.94599999999627
311895.8267,-6.623067822060936,-5.2401525059535805,-1.1943187060504001,-2.6163853591469852,71.94699999998556
311895.8277,-6.956572652843603,-5.809513570639328,-1.8736353876350749,-2.340345365838705,71.94800000003306
311895.8287,-6.9767368651678625,-6.119926106438275,-2.3193943178428205,-1.8605268315630403,71.94900000002235
311895.8297,-6.651780943357184,-6.128849366702469,-2.4936006265694233,-1.1595829343138928,71.95000000001164
311895.8307,-5.969793870491936,-5.813186308103983,-2.3759688491155893,-0.23609713154682138,71.95100000000093
311895.8317,-4.941327886685192,-5.172221816324015,-1.9665206169955902,0.8932640248638114,71.95199999999022
311895.8327,-3.6002546770228463,-4.228737761855788,-1.2865725317317445,2.1931701231402876,71.95300000003772
311895.8337,-2.0027347371302877,-3.0281526587238554,-0.3779769866899712,3.610742935212386,71.95400000002701
311895.8347,-0.2243223358865658,-1.6357153428180768,0.6993631101303782,5.078333425123652,71.9550000000163
311895.8357,1.64460011087167,-0.13196326702128167,1.8715263685023573,6.517764126606566,71.95600000000559
311895.8367,3.504708752617466,1.3931807392534956,3.0558289095314133,7.845697976097127,71.95699999999488
311895.8377,5.254471632207493,2.847169902773424,4.166866815255738,8.979681878741097,71.95799999998417
311895.8387,6.7971720546684855,4.141866682209588,5.1228326655875875,9.844342171788526,71.95900000003166
311895.8397,8.047634252696488,5.200232727723016,5.851566109113527,10.377186923504919,71.96000000002095
311895.8407,8.938086583243855,5.962089718423179,6.295820739728916,10.533499147207039,71.96100000001024
311895.8417,9.422672639327931,6.388449214727176,6.4172999309583245,10.289883033534943,71.96199999999953
311895.8427,9.480240998879628,6.464040819265496,6.199126147864199,9.646144985809864,71.96299999998882
311895.8437,9.115198534050974,6.1978337841577344,5.646551060549153,8.625341312398218,71.96400000003632
311895.8447,8.356385695399812,5.621531954788815,4.785873997537602,7.271990654517171,71.96500000002561
311895.8457,7.25410854794516,4.786207991325668,3.6616987039238214,5.648615790564394,71.9660000000149
311895.8467,5.875624896396671,3.7574124224557823,2.3328076034372263,3.830930487147623,71.96700000000419
311895.8477,4.299515277437553,2.609230113122725,0.8670546803156867,1.9021081738343482,71.96799999999348
311895.8487,2.6094614365672593,1.4178481720649927,-0.6642387867771636,-0.053351108637910476,71.96899999998277
311895.8497,0.8879967034172092,0.25523659542390553,-2.1918648243265033,-1.955608318983627,71.97000000003027
311895.8507,-0.7892191625319048,-0.8164773156516757,-3.653778075790139,-3.7348014567183907,71.97100000001956
311895.8517,-2.3581119770959633,-1.749435313093716,-4.999167614399557,-5.335234520009429,71.97200000000885
311895.8527,-3.769512652883767,-2.512893267292206,-6.1912084710207145,-6.718097100051042,71.97299999999814
311895.8537,-4.990848740832903,-3.0942619132320694,-7.2082852943431455,-7.8625171396347335,71.97399999998743
311895.8547,-6.006136591303166,-3.498299399892149,-8.043634264100238,-8.764911697642097,71.97500000003492
311895.8557,-6.814370965018108,-3.744593560754998,-8.703506552977123,-9.436764658544593,71.97600000002421
311895.8567,-7.42656485306105,-3.8636385895823984,-9.204101956172131,-9.901110349690258,71.9770000000135
311895.8577,-7.86182073983203,-3.8919463656976654,-9.56764064544012,-10.188123521775058,71.9780000000028
311895.8587,-8.142903165472282,-3.866723914320056,-9.818022780243725,-10.33029744803743,71.97899999999208
311895.8597,-8.291822770868771,-3.820686631126185,-9.976562023105602,-10.357725265025584,71.97999999998137
311895.8607,-8.325930362482266,-3.7775583501525185,-10.058266402214539,-10.29398203826325,71.98100000002887
311895.8617,-8.254957355990475,-3.7487360245753067,-10.069079762420136,-10.153038276017286,71.98200000001816
311895.8627,-8.079332655313566,-3.7314759968068416,-10.004395218643046,-9.93752639435531,71.98300000000745
311895.8637,-7.789966341857624,-3.708802469290078,-9.84901862271316,-9.638540744372591,71.98399999999674
311895.8647,-7.369531515962654,-3.6511622410613533,-9.578608231210103,-9.23699311528957,71.98499999998603
311895.8657,-6.795113186747016,-3.5196704221503583,-9.162461507018099,-8.706384726585165,71.98600000003353
311895.8667,-6.041943535446691,-3.2706273467579408,-8.567376670314093,-8.016708439358851,71.98700000002282
311895.8677,-5.087821221590278,-2.8608535184261004,-7.7621994908005805,-7.139075754669726,71.98800000001211
311895.8687,-3.9177309771082367,-2.2533003653017225,-6.722586631660895,-6.050583898353368,71.9890000000014
311895.8697,-2.5281469180105463,-1.422358782658183,-5.4354837064618415,-4.738906813744587,71.98999999999069
311895.8707,-0.9305224023334348,-0.35830862821374093,-3.902832718341418,-3.206113440484929,71.99100000003818
311895.8717,0.8464606576359174,0.9295713134491587,-2.144088502755858,-1.4712855194757686,71.99200000002747
311895.8727,2.756195902749025,2.4115890913668157,-0.19723123225489195,0.42838121294983955,71.99300000001676
311895.8737,4.735175496608129,4.03811696677657,1.8818981832922415,2.4381649239699086,71.99400000000605
311895.8747,6.705731011180403,5.741975470189801,4.0219542237802886,4.4881053499490795,71.99499999999534
311895.8757,8.580322137510496,7.4425553600564,6.1399864258100605,6.496837618288318,71.99599999998463
311895.8767,10.267047797858478,9.051339733220617,8.146584276651227,8.376667809661457,71.99700000003213
311895.8777,11.675928026459966,10.478350894316113,9.95184544396366,10.03946319296876,71.99800000002142
311895.8787,12.725420450930782,11.63895372855339,11.47166075178884,11.40284752731217,71.99900000001071
311895.8797,13.348600893917837,12.460408355977242,12.633771900924053,12.396157476808229,72.0
311895.8807,13.498457220564564,12.887583659550408,13.383071646259062,12.965633423745606,72.00099999998929
311895.8817,13.151817546416805,12.887318141738874,13.68567987152384,13.078385180445409,72.00200000003679
311895.8827,12.31155166120928,12.451038290302021,13.531436773250595,12.724783822253915,72.00300000002608
311895.8837,11.006836924757897,11.595405287819833,12.934595932066522,11.919074403847498,72.00400000001537
311895.8847,9.291452474371779,10.360942960174215,11.932661884581554,10.698166815231263,72.00500000000466
311895.8857,7.240241894032894,8.808785739157317,10.583483434210091,9.118727804992439,72.00599999999395
311895.8867,4.944047706325281,7.0158571804767575,8.960869439195962,7.252850291762033,72.00699999998324
311895.8877,2.503555600031926,5.068930706690322,7.14912339695401,5.182701831160257,72.00800000003073
311895.8887,0.02257942796758178,3.0581212360971652,5.236984575913065,2.9946405551911566,72.00900000002002
311895.8897,-2.398639038609008,1.0704000577063402,3.311508250068995,0.7733259883846589,72.01000000000931
311895.8907,-4.669552689887913,-0.8162882022074041,1.4524118513736122,-1.4036595326170946,72.0109999999986
311895.8917,-6.714354798527681,-2.537796715559923,-0.2726414209658198,-3.4702239730937574,72.01199999998789
311895.8927,-8.475558550214897,-4.047043323068402,-1.8114489988357871,-5.374862048088331,72.01300000003539
311895.8937,-9.915866110929041,-5.315534764430325,-3.129125532246656,-7.082219718468227,72.01400000002468
311895.8947,-11.018248893730087,-6.333085037112965,-4.208323057054942,-8.573065960085483,72.01500000001397
311895.8957,-11.784331221207138,-7.105843526948517,-5.047886729980291,-9.842768734366324,72.01600000000326
311895.8967,-12.231328075008753,-7.652913431578974,-5.660166581554039,-10.898517360486794,72.01699999999255
311895.8977,-12.387918723232007,-8.001975604437574,-6.067329674692043,-11.755652028681382,72.01799999998184
311895.8987,-12.289529145081048,-8.184424067754552,-6.297104592002734,-12.433541435109722,72.01900000002934
311895.8997,-11.973538766680196,-8.230558230177719,-6.378433106223325,-12.951483767530753,72.02000000001863
311895.9007,-11.474917360829869,-8.165359690953041,-6.337498470416597,-13.3250914594516,72.02100000000792
311895.9017,-10.822737519126388,-8.00531040644804,-6.1945470554910855,-13.563558108731828,72.0219999999972
311895.9027,-10.03790338183678,-7.756591318907378,-5.961825794989976,-13.668103299305125,72.0229999999865
311895.9037,-9.132298188143382,-7.41484834259611,-5.642831892392012,-13.631758407354383,72.024000000034
311895.9047,-8.109395850952291,-6.966541368472576,-5.232926428245945,-13.440507446872562,72.02500000002328
311895.9057,-6.966221203348583,-6.39171909983954,-4.721214611045284,-13.075646877165434,72.02600000001257
311895.9067,-5.696396121893923,-5.667905662836962,-4.093457534756386,-12.51709242634396,72.02700000000186
311895.9077,-4.293889374300421,-4.774660068017347,-3.335667380627478,-11.74725332015699,72.02799999999115
311895.9087,-2.7570089017896766,-3.6982895799434403,-2.4379614507955356,-10.7550259591836,72.02900000003865
311895.9097,-1.09214442587193,-2.4361712681290277,-1.398218013529878,-9.539437232761975,72.03000000002794
311895.9107,0.6832109859487988,-1.0001655461126235,-0.2250920225769855,-8.112494801919583,72.03100000001723
311895.9117,2.538561377874201,0.5813111900443677,1.0599900565815468,-6.5008754040412775,72.03200000000652
311895.9127,4.429918266407201,2.262858575478206,2.4221358384897194,-4.746195405558105,72.03299999999581
311895.9137,6.300864193119674,3.9834502865150814,3.813741275385568,-2.903749325394125,72.0339999999851
311895.9147,8.085151121028677,5.66953967111321,5.176693586605994,-1.039757828943043,72.0350000000326
311895.9157,9.710652862217316,7.239695380653344,6.445872472177642,0.7726788180902231,72.03600000002189
311895.9167,11.10434383330815,8.61038848660933,7.553661773263544,2.4585881965049095,72.03700000001118
311895.9177,12.197860066666381,9.702426200832848,8.435073118620254,3.9466536215622843,72.03800000000047
311895.9187,12.9331245714911,10.447448387106503,9.03301059170056,5.174757056163997,72.03899999998976
311895.9197,13.267495713820804,10.7938798849204,9.30317864403149,6.095015508420902,72.04000000003725
311895.9207,13.177927204089848,10.711767183876391,9.218157463886627,6.677824270644778,72.04100000002654
311895.9217,12.663709229064267,10.196019385081515,8.770239077955457,6.914503449874787,72.04200000001583
311895.9227,11.747484873888425,9.267712384458779,7.972727254682327,6.8182679335899685,72.04300000000512
311895.9237,10.474392527791291,7.97328883968113,6.8595443796396935,6.423393588198726,72.04399999999441
311895.9247,8.909358505866065,6.381678317219741,5.483145433711366,5.782619539048636,72.0449999999837
311895.9257,7.1327379238329796,4.579553775451671,3.9108978421751996,4.962991755645868,72.0460000000312
311895.9267,5.234659058007008,2.665113847715396,2.2202308502010086,4.040500846258273,72.04700000002049
311895.9277,3.3085516335247305,0.7409185599569549,0.4929750594173774,3.0939825536902603,72.04800000000978
311895.9287,1.4444203429967257,-1.093604221474758,-1.19060966579986,2.198821571035795,72.04899999999907
311895.9297,-0.27754673362944227,-2.7493319212870055,-2.75758924433558,1.4210207445189185,72.04999999998836
311895.9307,-1.792472357028016,-4.153678428032944,-4.147384470019201,0.8121661490010871,72.05100000003586
311895.9317,-3.054905094803314,-5.255347950347427,-5.3156335064470035,0.4057366716054074,72.05200000002515
311895.9327,-4.04119954605743,-6.027212317496731,-6.23655742499297,0.21508224246551197,72.05300000001444
311895.9337,-4.749966762090542,-6.467085659065312,-6.903640148200567,0.23323946792325573,72.05400000000373
311895.9347,-5.200578981314433,-6.596364187841646,-7.328593663970534,0.4345819188866831,72.05499999999302
311895.9357,-5.429893651249897,-6.45669480187655,-7.538741251232965,0.7781310612020301,72.0559999999823
311895.9367,-5.487526941731775,-6.105015806515857,-7.573100048270441,1.2121991503665648,72.0570000000298
311895.9377,-5.4301407280263,-5.607459223064123,-7.477565225087816,1.6799121412332296,72.05800000001909
311895.9387,-5.3152965089373385,-5.032703123460754,-7.299679602713207,2.125080571315247,72.05900000000838
311895.9397,-5.195466340838917,-4.445404998557287,-7.083506937406051,2.4978571038436463,72.05999999999767
311895.9407,-5.112771117431905,-3.9003295638900335,-6.865110999356645,2.759643715785281,72.06099999998696
311895.9417,-5.094942339763927,-3.437708659880619,-6.669077687005141,2.8867869824834127,72.06200000003446
311895.9427,-5.152882080667139,-3.0802446271748836,-6.506410152095083,2.8727192157642105,72.06300000002375
311895.9437,-5.280038884917537,-2.832004180031908,-6.373987821501208,2.7283548116330585,72.06400000001304
311895.9447,-5.45364001302404,-2.679263424192212,-6.255622944659738,2.4807204135399754,72.06500000000233
311895.9457,-5.637639837652441,-2.5931743827453086,-6.124588290261266,2.169968072375845,72.06599999999162
311895.9467,-5.787077739970413,-2.533947605352726,-5.947342539982435,1.8450760577296994,72.06699999998091
311895.9477,-5.853402545079942,-2.4561010490824966,-5.688060181231196,1.5586674066551067,72.0680000000284
311895.9487,-5.790227462565159,-2.3142262107345677,-5.313492001098481,1.361459678006264,72.0690000000177
311895.9497,-5.558938543349596,-2.068677784513656,-4.797648515972735,1.2968927946921334,72.07000000000698
311895.9507,-5.133594658261468,-1.6906068961999836,-4.125815122486834,1.3964622371518882,72.07099999999627
311895.9517,-4.504626362011472,-1.1658284975833135,-3.297472795458003,1.6762142743072925,72.07199999998556
311895.9527,-3.680957891443984,-0.4971335465402535,-2.3278054041688416,2.134745389112211,72.07300000003306
311895.9537,-2.6903295427669325,0.2951858881318208,-1.2476136632917565,2.7529008213539026,72.07400000002235
311895.9547,-1.5777719012009412,1.1746511068944014,-0.10161278162639846,3.495201596684515,72.07500000001164
311895.9557,-0.40236197038135496,2.0916198583872028,1.0547493344225067,4.3128616579117915,72.07600000000093
311895.9567,0.7674430856964195,2.9877174037629697,2.159669535007703,5.148103043948209,72.07699999999022
311895.9577,1.8594620621345337,3.8012357683621625,3.150159023728127,5.9393523317714285,72.07800000003772
311895.9587,2.80390829719263,4.47296615753898,3.9675207321478503,6.626817759479821,72.07900000002701
311895.9597,3.5393993719056827,4.951887398565626,4.562616007882692,7.157911550693454,72.0800000000163
311895.9607,4.0182975485141945,5.20014817106136,4.900418119959359,7.491999140099917,72.08100000000559
311895.9617,4.210885136038649,5.196851002235451,4.963414564570777,7.604024352993019,72.08199999999488
311895.9627,4.107990613754368,4.940264409662419,4.7535268834839375,7.486670336708744,72.08299999998417
311895.9637,3.721829022919394,4.448244352441,4.292355339094495,7.150859199656383,72.08400000003166
311895.9647,3.084989386005488,3.756821956455914,3.619712909420166,6.6245547942735215,72.08500000002095
311895.9657,2.24767626122261,2.9170939588543083,2.790573502429989,5.949997069832044,72.08600000001024
311895.9667,1.2734751307855006,1.9907178194272641,1.870707594039984,5.179646931406931,72.08699999999953
311895.9677,0.23404655220596288,1.0444487536712626,0.9314004430530047,4.371242970910449,72.08799999998882
311895.9687,-0.7967509610275874,0.14424785403271181,0.04373200398912078,3.5824539898935304,72.08900000003632
311895.9697,-1.748763351210065,-0.6504699129147731,-0.7270642617130353,2.8656460645502304,72.09000000002561
311895.9707,-2.5609297477400954,-1.2918954444582484,-1.326657719162901,2.263266863461303,72.0910000000149
311895.9717,-3.1856773594854606,-1.7477112165163244,-1.7156452947610827,1.8042848609039093,72.09200000000419
311895.9727,-3.5919467350157146,-2.0034389615747505,-1.8721990623617994,1.5020136286097165,72.09299999999348
311895.9737,-3.766610848633444,-2.0630384196734544,-1.793124278811701,1.3535122995628321,72.09399999998277
311895.9747,-3.7142116059244072,-1.9477195833011431,-1.4932674998110067,1.3405964017846375,72.09500000003027
311895.9757,-3.4551024391509744,-1.6931072076673033,-1.0033704978206293,1.4323340771229096,72.09600000001956
311895.9767,-3.022239371229219,-1.3450583327479695,-0.36661071877415813,1.5887569178545748,72.09700000000885
311895.9777,-2.456990200217262,-0.9545651932205989,0.3658110088417302,1.7653965886048812,72.09799999999814
311895.9787,-1.8044199480606915,-0.5722642229996339,1.1395912937683517,1.9181795934150585,72.09899999998743
311895.9797,-1.10855200841869,-0.24310822670487073,1.9022700759088436,2.0081806339787653,72.10000000003492
311895.9807,-0.4080948409335909,-0.0017396636114696358,2.6077265876316305,2.0057529728968886,72.10100000002421
311895.9817,0.2669349986506941,0.1309696737152417,3.219805223268554,1.8936201186708506,72.1020000000135
311895.9827,0.8973648970227626,0.14986625919860042,3.714746568051246,1.6686203060111147,72.1030000000028
311895.9837,1.4755994101019692,0.06575681314806708,4.082225014112584,1.34193290625368,72.10399999999208
311895.9847,2.004894207657706,-0.09607556209370924,4.324938557123645,0.9377703161250825,72.10499999998137
311895.9857,2.4972867166082784,-0.2989265329179405,4.456844037903965,0.4906746452260437,72.10600000002887
311895.9867,2.9704430189600486,-0.49898288092250614,4.500267512577305,0.04170014032305332,72.10700000001816
311895.9877,3.4437966643313964,-0.6504495381895967,4.4822310352926,-0.36612435211570793,72.10800000000745
311895.9887,3.9344318711046316,-0.7109643168724512,4.43041288202686,-0.6925847690816213,72.10899999999674
311895.9897,4.453193248776604,-0.646741270322596,4.369190714784309,-0.9048280514620493,72.10999999998603
311895.9907,5.001483549011784,-0.4369073015265065,4.316203314743282,-0.9811929476398155,72.11100000003353
311895.9917,5.569141969227589,-0.07657388868875331,4.27980788226377,-0.9139233525035451,72.11200000002282
311895.9927,6.133684983693391,0.42169083846270683,4.257712581476111,-0.7104728936766666,72.11300000001211
311895.9937,6.661050558748306,1.0281670007254184,4.2369379503116535,-0.3932498647609536,72.1140000000014
311895.9947,7.107829036018422,1.6980660999494068,4.195118846648561,0.00219225375693954,72.11499999999069
311895.9957,7.4248057818277715,2.3752162257058678,4.103015210679673,0.4303570115282524,72.11600000003818
311895.9967,7.561497902209817,2.997011965768182,3.927969711867779,0.8400970630955981,72.11700000002747
311895.9977,7.471254480884829,3.500162583827488,3.6379466384522314,1.1795812933509298,72.11800000001676
311895.9987,7.116418599107765,3.8266879856765494,3.2057198672424767,1.4014507324839813,72.11900000000605
311895.9997,6.473027471322258,3.9295814612429965,2.6127553990037837,1.4676532466758798,72.11999999999534
311896.0007,5.534557173968265,3.7775844244700423,1.8523583164171125,1.3534734862489182,72.12099999998463
311896.0017,4.314298312304581,3.3585990751591206,0.9317229810793922,1.0503489221861348,72.12200000003213
311896.0027,2.846071279698224,2.6813924246998697,-0.12736780039030943,0.567177897736721,72.12300000002142
311896.0037,1.183142984553539,1.7754071945240526,-1.2893145313601055,-0.07002966503589407,72.12400000001071
311896.0047,-0.6046236179781989,0.6886760214110469,-2.5069150599594265,-0.8201479988151688,72.125
311896.0057,-2.435186534610747,-0.5159823980268982,-3.7248443971171543,-1.6304065696502734,72.12599999998929
311896.0067,-4.219954957491926,-1.7661408817249673,-4.884091517306465,-2.441020950524663,72.12700000003679
311896.0077,-5.870158358566515,-2.985837690044949,-5.926941030746712,-3.190553380294453,72.12800000002608
311896.0087,-7.303402772847338,-4.101982148126092,-6.802023964197226,-3.8214995086118866,72.12900000001537
311896.0097,-8.449836795458868,-5.0504943450045445,-7.468944707746062,-4.2855728892955645,72.13000000000466
311896.0107,-9.257378477747611,-5.781605983669091,-7.902022735961335,-4.548184871646522,72.13099999999395
311896.0117,-9.695535070059709,-6.263829490478611,-8.092765443427675,-4.5916922593979335,72.13199999998324
311896.0127,-9.757473016180054,-6.486230154109091,-8.05080520695769,-4.417101329820679,72.13300000003073
311896.0137,-9.460153995300182,-6.458798979309038,-7.803178542491304,-4.044063351203611,72.13400000002002
311896.0147,-8.842529142423649,-6.210906281246911,-7.391984052591111,-3.509159460574447,72.13500000000931
311896.0157,-7.961961085239561,-5.788000075669299,-6.870613344926195,-2.8626359287618848,72.1359999999986
