TimeStamp,ECR,FCR,ECU,FCU,time_index
311829.8797,-3.4723801982058613,-1.4495865859592394,0.5490033764118509,0.7969611770184654,6.0
311829.8807,-4.482454019983298,-2.8453098168736184,-0.7599063108895284,-0.5123060280404297,6.00099999998929
311829.8817,-5.396960278282835,-4.247884884939813,-2.0680582469116136,-1.8290827447526397,6.002000000036787
311829.8827,-6.145572299265366,-5.566523702144127,-3.300429690906365,-3.080488271983011,6.003000000026077
311829.8837,-6.661017505669326,-6.710904652480788,-4.382537229670786,-4.19404594616714,6.004000000015367
311829.8847,-6.8850491297866,-7.598378503508482,-5.246276063302633,-5.103479109090296,6.005000000004657
311829.8857,-6.773931735505615,-8.160694639933633,-5.835380274886535,-5.754109451500759,6.005999999993946
311829.8867,-6.302916116981175,-8.34963967288457,-6.110008902329198,-6.1073577077582595,6.006999999983236
311829.8877,-5.469266101395658,-8.141076679591906,-6.050040116825874,-6.143928526874043,6.008000000030734
311829.8887,-4.293529387043893,-7.537017971987725,-5.656773015559192,-5.865383353428411,6.009000000020023
311829.8897,-2.8189044681094284,-6.565543638899464,-4.952882257453561,-5.2939555332997195,6.010000000009313
311829.8907,-1.1087306463112245,-5.278575078135602,-3.9806310648054657,-4.470626091129652,6.010999999998603
311829.8917,0.7576986554087621,-3.7477085712842824,-2.7985076419552093,-3.4516408641036413,6.011999999987893
311829.8927,2.6906441906370215,-2.0584900257882155,-1.4765935804746984,-2.303794294860574,6.01300000003539
311829.8937,4.596274030534155,-0.30365161663623996,-0.0910866544743323,-1.0989182973984666,6.01400000002468
311829.8947,6.383307932179378,1.4240789547544332,1.281526222357906,0.09191459100988465,6.01500000001397
311829.8957,7.969374619816471,3.0389538574750112,2.5701240545765693,1.2039427497319621,6.01600000000326
311829.8967,9.286533397273661,4.4683511740741855,3.713936540181219,2.183519775993579,6.016999999992549
311829.8977,10.285492704027549,5.657563918745177,4.666430831826247,2.9917465764551427,6.017999999981839
311829.8987,10.938182954492678,6.572839675532096,5.397783078171138,3.6066234339131267,6.019000000029337
311829.8997,11.238497145277638,7.20244945934608,5.895757097599058,4.023560030295509,6.0200000000186265
311829.9007,11.201185155896646,7.555754285901036,6.164967424981627,4.254241537589376,6.021000000007916
311829.9017,10.859059745126105,7.660428277678903,6.224659053435738,4.3240076943363,6.021999999997206
311829.9027,10.2588273807911,7.558169514459045,6.105276373528888,4.268043786396088,6.022999999986496
311829.9037,9.455980352738903,7.29936768584444,5.844205516895122,4.126793856269755,6.024000000033993
311829.9047,8.509266366490875,6.937287803002936,5.481146808350219,3.941076521121086,6.025000000023283
311829.9057,7.475280541308278,6.522363389746203,5.05360047975868,3.74740581712025,6.026000000012573
311829.9067,6.403699990813297,6.097167847979203,4.592926915649407,3.573991573380053,6.027000000001863
311829.9077,5.333605737466992,5.692552028530135,4.1213749744350885,3.4378189397680265,6.027999999991152
311829.9087,4.291218356287231,5.325307877641167,3.6503653718566533,3.343092459746768,6.02900000003865
311829.9097,3.2892244055657622,4.997555459964485,3.1801815617118434,3.281187973916798,6.03000000002794
311829.9107,2.3277053465774498,4.697870110402063,2.701071589949599,3.2320998816291246,6.0310000000172295
311829.9117,1.3965157836205988,4.403986078771962,2.1956160220124565,3.1672174297181437,6.032000000006519
311829.9127,0.47880988399340946,4.086750853189538,1.6420841570669908,3.0531270877855023,6.032999999995809
311829.9137,-0.44470153232998716,3.7148765536367807,1.0183966917019307,2.8560323342603953,6.033999999985099
311829.9147,-1.3912539728315225,3.2599540734112433,0.3062482379174083,2.5463178693801782,6.035000000032596
311829.9157,-2.371805917640162,2.7011699797057123,-0.5050758329754712,2.102768822940757,6.036000000021886
311829.9167,-3.387572995835294,2.0291980181002476,-1.4156249040537994,1.5159886091585466,6.037000000011176
311829.9177,-4.427724273582606,1.2488231013053215,-2.412813865683263,0.7906384434853369,6.038000000000466
311829.9187,-5.468524361694769,0.37998718550993416,-3.4708105487244727,-0.05376068529174105,6.0389999999897555
311829.9197,-6.474054706595426,-0.5428898121056683,-4.551393291907122,-0.9835782914860132,6.040000000037253
311829.9207,-7.398482678635795,-1.4732814084627146,-5.606241329336297,-1.9533347578202311,6.041000000026543
311829.9217,-8.189684431507334,-2.356408449751386,-6.580472210616891,-2.909276019129693,6.0420000000158325
311829.9227,-8.793883305857957,-3.1342087103923317,-7.41710917527005,-3.7939317524435747,6.043000000005122
311829.9237,-9.160854312261224,-3.7509344667149636,-8.062060518513002,-4.551223292328474,6.043999999994412
311829.9247,-9.249178228832296,-4.158817737305516,-8.469132752530653,-5.1316269462521475,6.044999999983702
311829.9257,-9.031012995403401,-4.323226169798036,-8.60458603451833,-5.496886441906692,6.046000000031199
311829.9267,-8.495887233298987,-4.226773681339157,-8.450775527473425,-5.623806283897446,6.047000000020489
311829.9277,-7.653107479261661,-3.8719451574673474,-8.00850292056651,-5.506742287739236,6.048000000009779
311829.9287,-6.5324987932226835,-3.2819346347554528,-7.2978206169003235,-5.158528365970215,6.048999999999069
311829.9297,-5.183355382780352,-2.499567807980107,-6.357175712703598,-4.609727845844653,6.0499999999883585
311829.9307,-3.6716485014138467,-1.5843656416642882,-5.240937833533276,-3.906258660276392,6.051000000035856
311829.9317,-2.075706461233453,-0.6079880637843679,-4.015508896964237,-3.105598937319034,6.052000000025146
311829.9327,-0.48072974980598066,0.35154278448577175,-2.754348917733093,-2.271917429863935,6.0530000000144355
311829.9337,1.0273815813680023,1.2163173619340604,-1.532356756989859,-1.470578345202569,6.054000000003725
311829.9347,2.368342119559465,1.915116149921127,-0.4201079613384098,-0.762532108132031,6.054999999993015
311829.9357,3.473373821084022,2.3894783872515344,0.5215327079078305,-0.1991162780596318,6.055999999982305
311829.9367,4.290151081171233,2.598694011828315,1.2459403877544426,0.18224709603822592,6.057000000029802
311829.9377,4.786359142249493,2.523248963943036,1.72399731047465,0.3610563535523409,6.058000000019092
311829.9387,4.951555937847389,2.166397974872575,1.9458131008622994,0.3351597790681348,6.059000000008382
311829.9397,4.79718599397052,1.5537147982899029,1.920758772529975,0.12048288964749616,6.059999999997672
311829.9407,4.354767612865456,0.7306605641268451,1.6758335256820311,-0.2509106729599359,6.0609999999869615
311829.9417,3.672444538065489,-0.24160190739337586,1.2525395360955152,-0.7342295390366662,6.062000000034459
311829.9427,2.810244212382591,-1.2917545253236076,0.7025785062695993,-1.2765010100956449,6.063000000023749
311829.9437,1.8345020414614728,-2.3447100241397822,0.0827914581634863,-1.8218106467799702,6.0640000000130385
311829.9447,0.811983515651166,-3.3282390119353518,-0.5501702553514883,-2.3167277725690933,6.065000000002328
311829.9457,-0.19574322998646596,-4.179219157904378,-1.1449357571483354,-2.715394442373667,6.065999999991618
311829.9467,-1.1371646156568143,-4.84892709283911,-1.6597904845433487,-2.9837909341680207,6.066999999980908
311829.9477,-1.9744716214168525,-5.306888568203893,-2.0659364598033036,-3.1027734826169566,6.068000000028405
311829.9487,-2.6856902340861883,-5.542943682478265,-2.349350940434966,-3.0696016577474516,6.069000000017695
311829.9497,-3.26513392621442,-5.567357746125172,-2.5110989229997376,-2.897821573818739,6.070000000006985
311829.9507,-3.722187830316941,-5.408997674735052,-2.5661094730461924,-2.6155324376618205,6.070999999996275
311829.9517,-4.0785998734111875,-5.1117802305018945,-2.5405780763130243,-2.2622220471052827,6.0719999999855645
311829.9527,-4.364600944869513,-4.729763833020667,-2.4682921549410284,-1.8844962941810588,6.073000000033062
311829.9537,-4.6142897347502725,-4.32138396198464,-2.386281293454504,-1.5311349167044,6.074000000022352
311829.9547,-4.860787041936662,-3.9434109504908514,-2.3302573276714043,-1.2479702409899736,6.0750000000116415
311829.9557,-5.131682344583078,-3.6452306508554053,-2.330326057703827,-1.073101214537297,6.076000000000931
311829.9567,-5.445260544160944,-3.4640110771768873,-2.4074203971793406,-1.03292017788672,6.076999999990221
311829.9577,-5.807912569953471,-3.421225514751714,-2.5708275172614727,-1.1393480393665865,6.078000000037719
311829.9587,-6.213008391375311,-3.520863977444333,-2.8170677332126988,-1.3885528573855068,6.079000000027008
311829.9597,-6.6413574340537425,-3.74949404214844,-3.130241997741314,-1.7612791682850222,6.080000000016298
311829.9607,-7.063214784324258,-4.078145906357785,-3.483812003834199,-2.2247552330215217,6.081000000005588
311829.9617,-7.441628586601208,-4.465813410645201,-3.84362737689306,-2.7359884472862626,6.081999999994878
311829.9627,-7.736781071814687,-4.864200840865682,-4.171883277522293,-3.246120887345581,6.0829999999841675
311829.9637,-7.9108671558547705,-5.223220581492887,-4.4315921876738305,-3.705410945781106,6.084000000031665
311829.9647,-7.932991601946893,-5.496671470610795,-4.591095860450575,-4.06834369218062,6.085000000020955
311829.9657,-7.783554963172595,-5.6475094649427415,-4.628133408336132,-4.2983582421753495,6.0860000000102445
311829.9667,-7.457641379781838,-5.652162797858637,-4.533020587640413,-4.371716510859035,6.086999999999534
311829.9677,-6.9670139601351995,-5.503439240667397,-4.3105799337202075,-4.280120801023848,6.087999999988824
311829.9687,-6.3404571316458815,-5.211713978164991,-3.9805833947048885,-4.031809665358112,6.089000000036322
311829.9697,-5.622367109374343,-4.804259106010638,-3.576616624811268,-3.651010496301603,6.090000000025611
311829.9707,-4.869665738488432,-4.3227628339891915,-3.1434326539032953,-3.17578878520948,6.091000000014901
311829.9717,-4.14728234314827,-3.819269648325511,-2.733016585535378,-2.654492155225554,6.092000000004191
311829.9727,-3.5225961240824666,-3.3509338025067095,-2.399716983949456,-2.141126605945484,6.092999999993481
311829.9737,-3.059343340708903,-2.974101547692623,-2.1949002485540983,-1.6901092178949477,6.0939999999827705
311829.9747,-2.811557678434905,-2.7383101592354264,-2.161641295891906,-1.350905306337601,6.095000000030268
311829.9757,-2.8181220838429666,-2.680806661520795,-2.329971246635744,-1.1630723284798712,6.096000000019558
311829.9767,-3.0984644366181597,-2.8221444526476525,-2.71315935233368,-1.1521961937098395,6.097000000008848
311829.9777,-3.649831618792024,-3.163315880684786,-3.3054158677265626,-1.3271214390245978,6.097999999998137
311829.9787,-4.446435802697187,-3.6847327809092203,-4.081273376836847,-1.6787531007721563,6.098999999987427
311829.9797,-5.440596287576046,-4.347189143848253,-4.996748432890818,-2.1805570020394947,6.100000000034925
311829.9807,-6.5658161042550045,-5.094747713572864,-5.9922181335797,-2.7907212570221738,6.101000000024214
311829.9817,-7.741552412765618,-5.859304170073068,-6.996783485552674,-3.4557810257159467,6.102000000013504
311829.9827,-8.879280682033851,-6.566417040901845,-7.933748817078979,-4.115366612871602,6.103000000002794
311829.9837,-9.889330043517951,-7.141864881106006,-8.726737889572558,-4.7076257599826095,6.103999999992084
311829.9847,-10.687892884709711,-7.518317078260016,-9.305903318314977,-5.174805120590439,6.1049999999813735
311829.9857,-11.203592927462394,-7.641488424620213,-9.613672757619042,-5.468459905967476,6.106000000028871
311829.9867,-11.383034647639429,-7.475192167342973,-9.609514473055976,-5.553796147650684,6.107000000018161
311829.9877,-11.194849364585723,-7.004807499680611,-9.273292827700905,-5.412733530663679,6.108000000007451
311829.9887,-10.631890929769169,-6.238825762051271,-8.60691258646099,-5.045400201283968,6.10899999999674
311829.9897,-9.711403622192522,-5.208320754271841,-7.634107645846709,-4.469922341056076,6.10999999998603
311829.9907,-8.473170500724232,-3.964385073284988,-6.398399967306516,-3.7205358928648975,6.111000000033528
311829.9917,-6.975834449601167,-2.5737673167763697,-4.959421990056691,-2.844209606304864,6.112000000022817
311829.9927,-5.291749053663338,-1.1131156890371012,-3.3879447541801455,-1.8961117966621115,6.113000000012107
311829.9937,-3.500846695464129,0.33763449154386693,-1.760070300934195,-0.9343639572289862,6.114000000001397
311829.9947,-1.6840946849158076,1.7021114088269658,-0.15111970238433795,-0.01459187443070607,6.114999999990687
311829.9957,0.08286084397073055,2.913956292330838,1.370229437636063,0.8151973627068105,6.116000000038184
311829.9967,1.7352915009928687,3.9222727413905165,2.7470318909419618,1.5189177672646192,6.117000000027474
311829.9977,3.2237336780950216,4.695574086574716,3.937944847763454,2.075473379379721,6.118000000016764
311829.9987,4.5167234004819194,5.223872323374737,4.919554014034299,2.4803026776547448,6.119000000006054
311829.9997,5.601716638971518,5.518731199023002,5.686980503679656,2.7452574271410524,6.119999999995343
311830.0007,6.484170301837176,5.61130148130211,6.252758203485897,2.896838346036348,6.120999999984633
311830.0017,7.1849366726923645,5.54854935704027,6.6441354361173,2.9729708753652595,6.122000000032131
311830.0027,7.736284406486846,5.388060642037053,6.899102347477204,3.0186469892618333,6.12300000002142
311830.0037,8.176986929500428,5.191937467237554,7.061562408467212,3.080869464906893,6.12400000001071
311830.0047,8.547002066592311,5.020387470487877,7.176141686344619,3.2034025747793575,6.125
311830.0057,8.882297229334842,4.925630348232717,7.283156136553455,3.4218512141208652,6.12599999998929
311830.0067,9.210350000406248,4.946710698219911,7.414232877901397,3.759557329608629,6.127000000036787
311830.0077,9.546777298420048,5.105713124087298,7.589008986871507,4.224721485429441,6.128000000026077
311830.0087,9.893425456547028,5.405734837798462,7.813218203251032,4.809036496712674,6.129000000015367
311830.0097,10.238100750949092,5.830796387804772,8.078333442724354,5.487971189681451,6.130000000004657
311830.0107,10.55595050662241,6.347679835976476,8.362775345837925,6.222680159792549,6.130999999993946
311830.0117,10.812335789024027,6.909494471754653,8.634539863158437,6.963355834873191,6.131999999983236
311830.0127,10.966884656667391,7.460601505794602,8.854956578172459,7.653697877201227,6.133000000030734
311830.0137,10.978295041135116,7.942397582977483,8.983177963189618,8.236065828244767,6.134000000020023
311830.0147,10.809380338125175,8.299375178443487,8.980928916286276,8.656814585430498,6.135000000009313
311830.0157,10.431826144435526,8.484853851715187,8.817022550118331,8.871295247403117,6.135999999998603
311830.0167,9.830155556158143,8.465812110761059,8.47117439072,8.848037659726868,6.136999999987893
311830.0177,9.004480021322284,8.226341570962894,7.93672008097775,8.571712214250564,6.13800000003539
311830.0187,7.971734871659098,7.769383963537699,7.221953936657534,8.044589013862023,6.13900000002468
311830.0197,6.765251094586803,7.116583540045113,6.349945970115351,7.28636045910899,6.14000000001397
311830.0207,5.432682416662316,6.306275492107039,5.356849233328616,6.332354013819596,6.14100000000326
311830.0217,4.032472652236771,5.3898165681759025,4.2888621456567915,5.230319498843207,6.141999999992549
311830.0227,2.629196008070481,4.426628812056771,3.1981466475776106,4.036114211737814,6.142999999981839
311830.0237,1.2882179231468733,3.4784550380385366,2.138109023454796,2.808715800102203,6.144000000029337
311830.0247,0.07019462292748642,2.6034027292362127,1.1585155400532776,1.605056654669868,6.1450000000186265
311830.0257,-0.9740511741598783,1.8503738286889617,0.30093317384919965,0.4751883927189187,6.146000000007916
311830.0267,-1.807775018929072,1.2544393588592206,-0.40504515251879786,-0.5417506292080682,6.146999999997206
311830.0277,-2.4112566677610405,0.8336237629563626,-0.944408189100353,-1.420374328663757,6.147999999986496
311830.0287,-2.7831537770896313,0.5874235793858107,-1.3178993243493486,-2.1504251544579205,6.149000000033993
311830.0297,-2.9401252525652,0.49721235686335424,-1.5416294780250246,-2.7365661256046767,6.150000000023283
311830.0307,-2.9147556227329767,0.528495606000087,-1.6451595039476625,-3.1966270235833694,6.151000000012573
311830.0317,-2.7519787567135445,0.6347946057207531,-1.6682342706294178,-3.5584991161716877,6.152000000001863
311830.0327,-2.504347215112468,0.762774293743785,-1.6564856531343901,-3.8560094927648336,6.152999999991152
311830.0337,-2.2266079031786967,0.8581044455063326,-1.6565258266474867,-4.1242098944928305,6.15400000003865
311830.0347,-1.9701141588053328,0.8714673954087299,-1.7109151461800522,-4.394575459486407,6.15500000002794
311830.0357,-1.7776220288124274,0.7641072917201616,-1.8535042258870598,-4.690619956403329,6.1560000000172295
311830.0367,-1.6789824228298587,0.5123572670694778,-2.1056159685690616,-5.024394589137377,6.157000000006519
311830.0377,-1.6881545123356752,0.11067806737655123,-2.4734534505442323,-5.394251055495202,6.157999999995809
311830.0387,-1.801837527299722,-0.42711474384481324,-2.9470014716315722,-5.784124599193249,6.158999999985099
311830.0397,-1.9998604775732185,-1.0685818230865052,-3.5005447319860474,-6.164441494021541,6.160000000032596
311830.0407,-2.247297669310124,-1.7653047137384026,-4.094768132010696,-6.4945925565549,6.161000000021886
311830.0417,-2.4981089644547723,-2.4572113968143126,-4.680249995011881,-6.726755892788346,6.162000000011176
311830.0427,-2.6999540533145696,-3.078183515564723,-5.202022214307936,-6.810713748328639,6.163000000000466
311830.0437,-2.799714211719713,-3.5624175544696897,-5.604765817879394,-6.699203734411968,6.1639999999897555
311830.0447,-2.7491844237709357,-3.8509343096276907,-5.838146565781869,-6.353284261996025,6.165000000037253
311830.0457,-2.510380284122627,-3.897611315208867,-5.8617792301574765,-5.747183864432093,6.166000000026543
311830.0467,-2.0599395800412554,-3.6741535376076637,-5.649342764886896,-4.8721454648653735,6.1670000000158325
311830.0477,-1.3921844635634741,-3.1735148083065257,-5.191448435728133,-3.738865769851145,6.168000000005122
311830.0487,-0.5205383089343676,-2.4114268488331234,-4.496981426968988,-2.3782584166921032,6.168999999994412
311830.0497,0.5228507393634947,-1.4258704804195912,-3.592781988803119,-0.8404250076662693,6.169999999983702
311830.0507,1.6892552205501723,-0.27451761372491973,-2.521690729802588,0.8081141711192321,6.171000000031199
311830.0517,2.9170885339029797,0.969635779325742,-1.3391388224882383,2.488714217240145,6.172000000020489
311830.0527,4.136854398943942,2.2240547145504213,-0.1086025468573865,4.116064859903161,6.173000000009779
311830.0537,5.276862456705315,3.4033436733857245,1.103650674045437,5.604344685245579,6.173999999999069
311830.0547,6.269173998535741,4.426210300010042,2.2340311985171204,6.873533610194077,6.1749999999883585
311830.0557,7.055220782862155,5.22208040303884,3.2267988281904554,7.855330757980696,6.176000000035856
311830.0567,7.590572683941997,5.736764888190876,4.038455772325993,8.498160651837143,6.177000000025146
311830.0577,7.848413239755964,5.936670551689891,4.640956659208996,8.770834766680704,6.1780000000144355
311830.0587,7.821407843815857,5.811185776997864,5.02344733377649,8.664559796473169,6.179000000003725
311830.0597,7.521805056506732,5.373045556048377,5.192387637835297,8.19313650059575,6.179999999993015
311830.0607,6.9797820777367825,4.656671088037346,5.1700702710473765,7.3913590112286025,6.180999999982305
311830.0617,6.240214174352959,3.7146690507257296,4.99170285766431,6.311788102497272,6.182000000029802
311830.0627,5.358198337147654,2.6128462112311333,4.7013583690945735,5.0202175370618995,6.183000000019092
311830.0637,4.393779000093085,1.4242300053030144,4.3472066196089045,3.5902664347691537,6.184000000008382
311830.0647,3.4063968725570666,0.22267225109897978,3.9765061934543016,2.0976020223875236,6.184999999997672
311830.0657,2.449603754222148,-0.9233567745762893,3.630855423755817,0.6143196688263773,6.1859999999869615
311830.0667,1.5665546135682504,-1.956205595003679,3.342171127085587,-0.7960208836524705,6.187000000034459
311830.0677,0.7867064553486904,-2.833216481602017,3.1297877376217698,-2.0822794603589267,6.188000000023749
311830.0687,0.12402975484785925,-3.5292761452942414,2.998954858563948,-3.208230661508603,6.1890000000130385
311830.0697,-0.4231151988271983,-4.037545713462491,2.940869433989426,-4.153503974173962,6.190000000002328
311830.0707,-0.8704526087155309,-4.368356307073837,2.9342238026870353,-4.9129585263398665,6.190999999991618
311830.0717,-1.2447974084083284,-4.546438466054597,2.9480981852577117,-5.494636394317732,6.191999999980908
311830.0727,-1.5799218489474316,-4.606816813263526,2.94589081652289,-5.9165754526102585,6.193000000028405
311830.0737,-1.911724820149546,-4.589829684887298,2.8898743904470017,-6.2028693696467645,6.194000000017695
311830.0747,-2.273215812807307,-4.5358144867258074,2.745904112471324,-6.3794282477171,6.195000000006985
311830.0757,-2.689843612578669,-4.4800254971876505,2.487786758550695,-6.469912433409299,6.195999999996275
311830.0767,-3.1756648575481794,-4.4483194552200676,2.1008533258758315,-6.492282734150551,6.1969999999855645
311830.0777,-3.730762940584924,-4.4540589730476166,1.5843568718212742,-6.456336032643209,6.198000000033062
311830.0787,-4.340201763541657,-4.49655337773057,0.9524341801266847,-6.362483922616965,6.199000000022352
311830.0797,-4.974644014213873,-4.561194261508876,0.2335134014937581,-6.20189499435935,6.2000000000116415
311830.0807,-5.592595264238872,-4.621265210235397,-0.5317944043151144,-5.957972791419268,6.201000000000931
311830.0817,-6.144069956810508,-4.641229806984908,-1.2941292683569132,-5.608996373886124,6.201999999990221
311830.0827,-6.575329659278797,-4.581146744154321,-1.9998169479915378,-5.131623605818651,6.203000000037719
311830.0837,-6.834232287177776,-4.401741383239447,-2.595876565110297,-4.504861631663991,6.204000000027008
311830.0847,-6.875664522734015,-4.0695914728414095,-3.0351127532522133,-3.7140542856304863,6.205000000016298
311830.0857,-6.666515080851947,-3.5618682970374094,-3.280790953486311,-2.7544280547387023,6.206000000005588
311830.0867,-6.189685449024926,-2.870115096139383,-3.3104310370969863,-1.6337776889020221,6.206999999994878
311830.0877,-5.446723609194525,-2.0026383001149766,-3.118336923129644,-0.3739558440140599,6.2079999999841675
311830.0887,-4.4587964877721795,-0.985224736552262,-2.716600321144995,0.9890499286732783,6.209000000031665
311830.0897,-3.2658758392260685,0.13993410810327936,-2.1344634375908016,2.40652676530151,6.210000000020955
311830.0907,-1.9241844626653672,1.3170481914499246,-1.4160841129611499,3.8198541954914433,6.2110000000102445
311830.0917,-0.5021182577498381,2.4810258448965765,-0.6169018866138983,5.164504841411728,6.211999999999534
311830.0927,0.9249918640482544,3.5628673533039557,0.20106027593356507,6.374876796687671,6.212999999988824
311830.0937,2.280800363076802,4.495644311352413,0.9745197872479262,7.3895135565284695,6.214000000036322
311830.0947,3.494003957785269,5.2204870622081465,1.6443833073385894,8.156217559673426,6.215000000025611
311830.0957,4.5039739174605256,5.691992613234219,2.1608070671267177,8.636562030432698,6.216000000014901
311830.0967,5.265441611208461,5.882513845603043,2.48739176952858,8.809353543915861,6.217000000004191
311830.0977,5.7518046688447715,5.784893234848717,2.6041182873736606,8.672690389403206,6.217999999993481
311830.0987,5.956752537374278,5.413350951811353,2.5087517741549967,8.244390711555114,6.2189999999827705
311830.0997,5.894070820400897,4.802413959479907,2.2165896833098495,7.56071725558436,6.220000000030268
311830.1007,5.595657954368781,4.003962348450197,1.7585891317235705,6.67348756230898,6.221000000019558
311830.1017,5.107958550787837,3.0826530804496834,1.1780654265497466,5.645813864283814,6.222000000008848
311830.1027,4.487168479948881,2.110141410370334,0.5262911192354935,4.546850463054555,6.222999999998137
311830.1037,3.7936827971141804,1.1586406504754667,-0.14256979200863118,3.446024786443349,6.223999999987427
311830.1047,3.0863276107446427,0.29442955935065723,-0.776695215401416,2.40728174019554,6.225000000034925
311830.1057,2.4169341541237115,-0.4280735661880852,-1.331494615556551,1.4838738180572302,6.226000000024214
311830.1067,1.8257760039621536,-0.9711013642204369,-1.7736798075019222,0.7141810588266742,6.227000000013504
311830.1077,1.338302281820961,-1.3167296382362275,-2.0841243657652946,0.11894967443016462,6.228000000002794
311830.1087,0.9634694414360729,-1.4681600191561432,-2.2592401439751897,-0.2997950448169683,6.228999999992084
311830.1097,0.6938146825865664,-1.448964256195571,-2.310746935685061,-0.5580644279731783,6.2299999999813735
311830.1107,0.5072408149388805,-1.3003572926797566,-2.2638708537157832,-0.6875221468349145,6.231000000028871
311830.1117,0.37031254338805714,-1.076756692971429,-2.1541628751308055,-0.7316337210182929,6.232000000018161
311830.1127,0.24271435679142475,-0.8400523360637937,-2.023265854978666,-0.7407239531113267,6.233000000007451
311830.1137,0.0824052098834555,-0.6531363492023076,-1.914062675634665,-0.7664212319323414,6.23399999999674
311830.1147,-0.14906368133711828,-0.5733166607076754,-1.8656997770009685,-0.8560265805616949,6.23499999998603
311830.1157,-0.4816175579833909,-0.646251029354125,-1.908993014353867,-1.0473525892369069,6.236000000033528
311830.1167,-0.9326244021236626,-0.900990487076048,-2.0626853285611073,-1.3645321426481742,6.237000000022817
311830.1177,-1.5041804989104621,-1.3466162997496312,-2.330941736981115,-1.8152034053683148,6.238000000012107
311830.1187,-2.182005643602171,-1.970802825480323,-2.7023448923370372,-2.3893448371767994,6.239000000001397
311830.1197,-2.9360779024562538,-2.740454612134945,-3.1505059138877773,-3.0598748639324893,6.239999999990687
311830.1207,-3.722964038514628,-3.6043674550646947,-3.636244965607028,-3.7849606013616643,6.241000000038184
311830.1217,-4.489631672656718,-4.497669087124721,-4.111139891529228,-4.51181517369199,6.242000000027474
311830.1227,-5.178379711371884,-5.347624414867932,-4.522104477086136,-5.181619621208346,6.243000000016764
311830.1237,-5.7324092816522425,-6.080259210179246,-4.816554041840614,-5.735097012825831,6.244000000006054
311830.1247,-6.1014896704023105,-6.627177524858341,-4.947655314332517,-6.118203613351238,6.244999999995343
311830.1257,-6.247159317296288,-6.931929351512698,-4.879145899859458,-6.2873908093251165,6.245999999984633
311830.1267,-6.146942289817902,-6.955327943270337,-4.589247324749853,-6.213932971477332,6.247000000032131
311830.1277,-5.797152051504405,-6.679216504913792,-4.0732809051904,-5.886906428119775,6.24800000002142
311830.1287,-5.213987912216918,-6.108331919167178,-3.3447192766863036,-5.314534456869181,6.24900000001071
311830.1297,-4.432792398857885,-5.2700944336063555,-2.4345563303514686,-4.52377006302293,6.25
311830.1307,-3.5055141300309054,-4.212349283801635,-1.3890399754095546,-3.55815710170153,6.25099999998929
311830.1317,-2.4965935287331216,-2.9992800661447996,-0.2659698875095817,-2.474174705841865,6.252000000036787
311830.1327,-1.4776411226342443,-1.7058856620250906,0.8700990964741088,-1.3364141616261156,6.253000000026077
311830.1337,-0.5213954953587873,-0.41154618143718597,1.9533014461360219,-0.21204748579649838,6.254000000015367
311830.1347,0.304481198481985,0.8067139806206832,2.9220438743750243,0.834887503622128,6.255000000004657
311830.1357,0.9431947202180002,1.880634043392007,3.724203468973935,1.7488460425339183,6.255999999993946
311830.1367,1.353659313457689,2.756200748549436,4.321454228420851,2.4872768321519776,6.256999999983236
311830.1377,1.5139383621636384,3.3977072824241126,4.692318528379633,3.0238470731194056,6.258000000030734
311830.1387,1.4229679411294613,3.790027776486222,4.83366213262227,3.350100427829162,6.259000000020023
311830.1397,1.1004080066037185,3.938923174739104,4.760500409263748,3.475409012093966,6.260000000009313
311830.1407,0.5846424925310119,3.8693859861629196,4.504145004567184,3.4252459934167057,6.260999999998603
311830.1417,-0.07087630579114718,3.6222209705770103,4.108878738419131,3.2379674660959736,6.261999999987893
311830.1427,-0.8025886783480395,3.24922771143829,3.627486597735029,2.9604352883351552,6.26300000003539
311830.1437,-1.5426223521375388,2.807482954953362,3.11607888420705,2.64292269500687,6.26400000002468
311830.1447,-2.224874273926174,2.3533028484384766,2.6287083877967685,2.333811153763487,6.26500000001397
311830.1457,-2.7908094147557754,1.9364899911286744,2.2123005850746686,2.0746037652605462,6.26600000000326
311830.1467,-3.194438385460923,1.5954353605857725,1.9023827045478319,1.8957460248955618,6.266999999992549
311830.1477,-3.4060187176859116,1.3535543839621644,1.7200173424061285,1.8136624582209429,6.267999999981839
311830.1487,-3.4141508684630115,1.2173988434882101,1.6702269964740304,1.8292956545136285,6.269000000029337
311830.1497,-3.2260969663159105,1.1766156618118178,1.7420490584580755,1.9282845412587932,6.2700000000186265
311830.1507,-2.866322708192947,1.205736838908251,1.9102007780892523,2.0827560342722498,6.271000000007916
311830.1517,-2.3734338674440103,1.2676003877668092,2.1381760773771523,2.254544381321954,6.271999999997206
311830.1527,-1.7958319996522782,1.318038251278798,2.3824561989092565,2.3995112079627394,6.272999999986496
311830.1537,-1.186534353852164,1.3113400320610298,2.597407635230484,2.4725302677270786,6.274000000033993
311830.1547,-0.5976791682274393,1.205923445425879,2.740374163884238,2.4326348252361014,6.275000000023283
311830.1557,-0.07526226426007399,0.9696213641728701,2.77645157448035,2.247808892265119,6.276000000012573
311830.1567,0.3453779900799746,0.5840332019745169,2.682465572414819,1.8989378025552424,6.277000000001863
311830.1577,0.6428895985397289,0.04748141218281572,2.4497522422459532,1.3825154832733604,6.277999999991152
311830.1587,0.8117337585438539,-0.6237471407895036,2.08545863229094,0.7118272448958624,6.27900000003865
311830.1597,0.862345675839231,-1.3960239796401994,1.6122269287728115,-0.0835239113178635,6.28000000002794
311830.1607,0.8196327350318728,-2.220828511614294,1.066285064054748,-0.9597171608417507,6.2810000000172295
311830.1617,0.7199793373645205,-3.0388033573770508,0.4941238733500724,-1.8622500160865028,6.282000000006519
311830.1627,0.6070759820392502,-3.7850324951063152,-0.051919295760165615,-2.730579653133193,6.282999999995809
311830.1637,0.5270061739979612,-4.395034363965995,-0.518741977082351,-3.503429174212589,6.283999999985099
311830.1647,0.5230971253397624,-4.8108869451449445,-0.8577275812076542,-4.124252279437958,6.285000000032596
311830.1657,0.6310619398577556,-4.986883953903095,-1.0296520679194512,-4.546332822529924,6.286000000021886
311830.1667,0.874930002803521,-4.894162538349421,-1.008764015546652,-4.737029695037046,6.287000000011176
311830.1677,1.2641818191367133,-4.5238393813144055,-0.785634552849336,-4.680759113416033,6.288000000000466
311830.1687,1.7923826186534961,-3.8883344963067046,-0.36849180034978635,-4.3804277088116335,6.2889999999897555
311830.1697,2.437457828494729,-3.0207364304669415,0.21709942862201315,-3.8571789999704937,6.290000000037253
311830.1707,3.163588041407468,-1.9722520059740003,0.9301921264664654,-3.1484783084180106,6.291000000026543
311830.1717,3.924537821397504,-0.8079696216047312,1.7178673352060858,-2.304721103377178,6.2920000000158325
311830.1727,4.6680878056605,0.398670704146846,2.51978101696013,-1.3846915528432924,6.293000000005122
311830.1737,5.341127481310324,1.5721810319545766,3.2734186962152902,-0.450307901524238,6.293999999994412
311830.1747,5.894897896273365,2.6415073232325605,3.9195608648775435,0.4388414764990825,6.294999999983702
311830.1757,6.289856224815042,3.5460753983953808,4.40744215892094,1.2306493910010647,6.296000000031199
311830.1767,6.499669355479526,4.240828280118966,4.699117393847523,1.884839251677783,6.297000000020489
311830.1777,6.5139281153840995,4.69977904761747,4.772624693035617,2.3761035529011427,6.298000000009779
311830.1787,6.339299139384379,4.917746455926842,4.62365258372394,2.695742236298197,6.298999999999069
311830.1797,5.998985430551756,4.910116042181169,4.265562658008711,2.8516594156262296,6.2999999999883585
311830.1807,5.5305341873447915,4.7106601808792385,3.7277780712133266,2.866737965448853,6.301000000035856
311830.1817,4.982194981266413,4.367638003423619,3.052705313739421,2.775770055927293,6.302000000025146
311830.1827,4.408176608910639,3.9385620258236558,2.2914970600559657,2.6212623408553273,6.3030000000144355
311830.1837,3.8632625288597064,3.4841465943745416,1.4990738567013868,2.4485434331724463,6.304000000003725
311830.1847,3.3973116215288783,3.0620313975336027,0.7288913462363344,2.30066791322156,6.304999999993015
311830.1857,3.0501863497151547,2.720893725549035,0.027961053010161725,2.213628953767837,6.305999999982305
311830.1867,2.8476125637460363,2.4955239340312496,-0.5673954381107373,2.212359048508279,6.307000000029802
311830.1877,2.7983877176550975,2.40334354154191,-1.0346538732731694,2.3079185858714504,6.308000000019092
311830.1887,2.893225546551512,2.442703854421785,-1.3667651821035172,2.496153031119159,6.309000000008382
311830.1897,3.1053677604136474,2.593128777143839,-1.5722544763789161,2.757953025125774,6.309999999997672
311830.1907,3.3929223333372818,2.817475518459433,-1.6737475896452996,3.0610922212755907,6.3109999999869615
311830.1917,3.7027201481325607,3.065799740782341,-1.7050859108048957,3.363460869789288,6.312000000034459
311830.1927,3.975333445857151,3.280545528782246,-1.7073281882161628,3.617374447084324,6.313000000023749
311830.1937,4.150785195076768,3.402551512040587,-1.7240460417652659,3.77452964485625,6.3140000000130385
311830.1947,4.174409305194744,3.3772850667220498,-1.7963876527855949,3.7911152733402904,6.315000000002328
311830.1957,4.002304344216518,3.160694391744529,-1.9584050142111393,3.6325694278210863,6.315999999991618
311830.1967,3.6058598201227308,2.7241054654810344,-2.233112320513619,3.277508170401239,6.316999999980908
311830.1977,2.974920671142532,2.0576837183395,-2.629669430908721,2.720431618465324,6.318000000028405
311830.1987,2.1192840385342318,1.1721195754932912,-3.1419721963469494,1.9729327469084652,6.319000000017695
311830.1997,1.0683802669221398,0.09836919502243933,-3.7487918931340434,1.0632806409014461,6.320000000006985
311830.2007,-0.13083785245913507,-1.1145300590412506,-4.415452800269538,0.034408974131164734,6.320999999996275
311830.2017,-1.4176039170097139,-2.4033639482137024,-5.096885146876987,-1.0595034986872296,6.3219999999855645
311830.2027,-2.722300245503219,-3.6959944816185697,-5.741755127063723,-2.157535981234152,6.323000000033062
311830.2037,-3.9722115004051775,-4.91746168021051,-6.297267697539404,-3.1971819491421876,6.324000000022352
311830.2047,-5.0975343093938985,-5.996353586467862,-6.714171787285477,-4.119664910656708,6.3250000000116415
311830.2057,-6.037085991578322,-6.870840433853333,-6.951477781648535,-4.874904670555462,6.326000000000931
311830.2067,-6.743187299890227,-7.493803899370637,-6.980425567475098,-5.425659940432274,6.326999999990221
311830.2077,-7.185276056881038,-7.836582474457546,-6.787315182191769,-5.750454371893576,6.328000000037719
311830.2087,-7.351932578475617,-7.8909902360189035,-6.374923890835903,-5.845012742928989,6.329000000027008
311830.2097,-7.251151679943721,-7.669435225104702,-5.762372284570714,-5.722080295409932,6.330000000016298
311830.2107,-6.908864802161075,-7.203148626939609,-4.983454071548733,-5.409656678190225,6.331000000005588
311830.2117,-6.365882947499311,-6.538718843812461,-4.083594636223242,-4.947830971540093,6.331999999994878
311830.2127,-5.673580444472015,-5.733287464078133,-3.115737370468696,-4.384540570990309,6.3329999999841675
311830.2137,-4.8887566318128535,-4.848891165068098,-2.13556105420633,-3.770680856322531,6.334000000031665
311830.2147,-4.068186129181,-3.9465124170711596,-1.1964959377625457,-3.1550543033763363,6.335000000020955
311830.2157,-3.2633914995770437,-3.080424920024111,-0.34502434361430395,-2.579660941361367,6.3360000000102445
311830.2167,-2.516142828898172,-2.29338494798585,0.38327818801499114,-2.0757955378179958,6.336999999999534
311830.2177,-1.8551102206203205,-1.613130839688217,0.9665799533900827,-1.6613342513124298,6.337999999988824
311830.2187,-1.2939754252112032,-1.0505187271512804,1.3982394020995634,-1.3394729391335995,6.339000000036322
311830.2197,-0.8311598228434371,-0.5994566476880444,1.6867305156150187,-1.0990328132782672,6.340000000025611
311830.2207,-0.45116262228006015,-0.2386179573742138,1.8540684541208625,-0.9162912504869888,6.341000000014901
311830.2217,-0.127341665194352,0.06526354712014605,1.9329057542320498,-0.7581419687293254,6.342000000004191
311830.2227,0.1741743662732492,0.35287249164926815,1.9626013284715635,-0.5862547577415205,6.342999999993481
311830.2237,0.4898650683373076,0.6670425101055686,1.9846662893869222,-0.3618038410211683,6.3439999999827705
311830.2247,0.8539799908834599,1.0472902270116276,2.0380520936704203,-0.05027584258696505,6.345000000030268
311830.2257,1.2939929099795098,1.5247228735546794,2.1547615595927176,0.3741409338747852,6.346000000019558
311830.2267,1.8268261490891553,2.1178511865223206,2.356230436438634,0.9250436423935582,6.347000000008848
311830.2277,2.456241815411115,2.8297473953564234,2.6508496295957893,1.601549737134673,6.347999999998137
311830.2287,3.1716764069561054,3.6468521643932483,3.0328835737898996,2.387526996138227,6.348999999987427
311830.2297,3.948647125793514,4.539567848094861,3.482899938526601,3.2524172344220137,6.350000000034925
311830.2307,4.750697255927545,5.464594877066486,3.9696737359504133,4.1535928067581045,6.351000000024214
311830.2317,5.532690240811328,6.368791442963108,4.453380053465933,5.040030914047537,6.352000000013504
311830.2327,6.245123394123354,7.194181423261306,4.889758813829655,5.856957210032461,6.353000000002794
311830.2337,6.839026363114798,7.883617098230658,5.234835170813369,6.551010488427782,6.353999999992084
311830.2347,7.270947128068635,8.386533446025455,5.449720330016982,7.075424227924906,6.3549999999813735
311830.2357,7.507515738266117,8.664216652986815,5.505005668326404,7.394714107813482,6.356000000028871
311830.2367,7.529114494739082,8.694052467505914,5.3842993309269875,7.488404066112962,6.357000000018161
311830.2377,7.332269170267045,8.472316059668156,5.086535592940398,7.353412929860487,6.358000000007451
311830.2387,6.930500690412238,8.01520481104928,4.626805360157526,7.004850474204433,6.35899999999674
311830.2397,6.353528204035216,7.357985331195334,4.035599784904006,6.475123675604801,6.35999999998603
311830.2407,5.644877709889526,6.5523093900380545,3.3565141003402736,5.811416169990895,6.361000000033528
311830.2417,4.858109252778708,5.661932430429275,2.6426102817890165,5.071760746023026,6.362000000022817
311830.2427,4.0520144320086215,4.75722534853623,1.9517701974352843,4.32006085138695,6.363000000012107
311830.2437,3.285240795215331,3.908989887579793,1.3414724484487157,3.6205193234820867,6.364000000001397
311830.2447,2.6108601427390394,3.182158495430253,0.8634860967838842,3.03199092322608,6.364999999990687
311830.2457,2.071407698500376,2.629973845305497,0.5589869363562224,2.602784059212929,6.366000000038184
311830.2467,1.6948773170051832,2.2891998814176895,0.45456549178560374,2.366395458478487,6.367000000027474
311830.2477,1.4920682717966354,2.1768193293864235,0.5595138965547374,2.3385734861562084,6.368000000016764
311830.2487,1.455550294248556,2.288531445882685,0.8646590150375157,2.5159798618878835,6.369000000006054
311830.2497,1.560357866880883,2.599192050757842,1.342863124025164,2.8765678653898865,6.369999999995343
311830.2507,1.766357454978821,3.065152272426387,1.951155231572676,3.38163245664263,6.370999999984633
311830.2517,2.0220687129288972,3.6282710090874257,2.634300974203174,3.9793298084269675,6.372000000032131
311830.2527,2.269578658772494,4.221216545753324,3.3294820228452733,4.609325839233594,6.37300000002142
311830.2537,2.450080346773635,4.773550634752342,3.971650343116337,5.208128762189461,6.37400000001071
311830.2547,2.509505328055941,5.21801556448983,4.499058774224134,5.714599492380384,6.375
311830.2557,2.4037084356081464,5.496428406093022,4.858453460938299,6.075121803889236,6.37599999998929
311830.2567,2.1027054132563046,5.564628313117186,5.009447294877488,6.247952414994305,6.377000000036787
311830.2577,1.5935547278481814,5.396018340192002,4.927673478508663,6.206355814767181,6.378000000026077
311830.2587,0.8816058695311464,4.983383333596886,4.606436885221177,5.940251209811371,6.379000000015367
311830.2597,-0.010005091922263388,4.338836244587099,4.056726544041025,5.456247345708048,6.380000000004657
311830.2607,-1.0425613517868355,3.491929910156563,3.305611157442882,4.776100506221638,6.380999999993946
311830.2617,-2.1654552155249447,2.486151740087836,2.393195607884653,3.933785993281199,6.381999999983236
311830.2627,-3.320999256682075,1.374177053577584,1.3684546858839708,2.971508578965612,6.383000000030734
311830.2637,-4.449885869932175,0.2123773895744613,0.2843672539519924,1.9350794904567425,6.384000000020023
311830.2647,-5.49675804592188,-0.9448489630608111,-0.8071607380000736,0.8691463988611074,6.385000000009313
311830.2657,-6.415342379217444,-2.0503427604225326,-1.8600789553236243,-0.18722715219293687,6.385999999998603
311830.2667,-7.172637310879109,-3.0685084389160764,-2.838208527437852,-1.2041763760586186,6.386999999987893
311830.2677,-7.751741511887213,-3.978257977047949,-3.7180979900901256,-2.163473281534747,6.38800000003539
311830.2687,-8.15304034290999,-4.774276518464183,-4.490444636779581,-3.0595407121289955,6.38900000002468
311830.2697,-8.39362962846597,-5.466484685834765,-5.159952156622345,-3.8989433538346963,6.39000000001397
311830.2707,-8.505029884820688,-6.077758079522895,-5.743653826382594,-4.698415412605301,6.39100000000326
311830.2717,-8.5294136628133,-6.640144739721956,-6.267886078594527,-5.481637901826106,6.391999999992549
311830.2727,-8.514717181828614,-7.189978346446992,-6.764234560811264,-6.275110858556436,6.392999999981839
311830.2737,-8.509120290511058,-7.762402845589689,-7.264880171346041,-7.103563963038571,6.394000000029337
311830.2747,-8.555444765252041,-8.38589101184845,-7.797835459753513,-7.98540293856534,6.3950000000186265
311830.2757,-8.686033354891263,-9.077348167162935,-8.382575838288885,-8.928693065002244,6.396000000007916
311830.2767,-8.918629314376409,-9.838341546501024,-9.026533694982577,-9.928134375860978,6.396999999997206
311830.2777,-9.253682332817506,-10.652890186370836,-9.722840138023535,-10.963389873876046,6.397999999986496
311830.2787,-9.673370662174623,-11.487099700432024,-10.449576797116338,-11.998997270128953,6.399000000033993
311830.2797,-10.142463968310258,-12.290745394561636,-11.170650793511829,-12.98593898157301,6.400000000023283
311830.2807,-10.610972936816149,-13.000713453893816,-11.83824430375891,-13.864779617416652,6.401000000012573
311830.2817,-11.01835730400197,-13.546022389242866,-12.396631988403684,-14.570121219586857,6.402000000001863
311830.2827,-11.298910741948314,-13.85398407587171,-12.787020546049252,-15.03598984027926,6.402999999991152
311830.2837,-11.387823896658599,-13.856941782842366,-12.952958562889727,-15.20166630198054,6.40400000003865
311830.2847,-11.227357376463683,-13.498953912541726,-12.84580224342928,-15.017419416038914,6.40500000002794
311830.2857,-10.772541519282209,-12.741783958478791,-12.42970987551046,-14.44959729705831,6.4060000000172295
311830.2867,-9.995860939391413,-11.569610794621644,-11.685676476773587,-13.484582413707386,6.407000000006519
311830.2877,-8.890475307584015,-9.991984154597436,-10.61420644044284,-12.13121422875267,6.407999999995809
311830.2887,-7.471664594735184,-8.044707767008582,-9.23634791179182,-10.421420536372262,6.408999999985099
311830.2897,-5.776353920292458,-5.7885221848836,-7.592965965183989,-8.408961884449933,6.410000000032596
311830.2907,-3.8607540633297845,-3.3056627985350513,-5.742297596775064,-6.166367164553128,6.411000000021886
311830.2917,-1.7963311173954521,-0.6945663378196436,-3.755994028849228,-3.780305884334129,6.412000000011176
311830.2927,0.33552445064911934,1.9368276893652043,-1.7139990864093415,-1.3457876884437086,6.413000000000466
311830.2937,2.4496380728335936,4.478602417977991,0.30127743769148063,1.0403116150354532,6.4139999999897555
311830.2947,4.463435817423226,6.826560065323554,2.2109661423952383,3.2858364085745473,6.415000000037253
311830.2957,6.302989526396254,8.889417553509599,3.945382649855349,5.309479805847034,6.416000000026543
311830.2967,7.908175182194782,10.594876693119598,5.44880463168442,7.045928718638448,6.4170000000158325
311830.2977,9.236486552060924,11.894050190412809,6.682959184693436,8.449593587933192,6.418000000005122
311830.2987,10.265178856382771,12.763879095758092,7.6289224322298,9.496624880171689,6.418999999994412
311830.2997,10.991580337371476,13.207365275759722,8.287285195840228,10.185079619870846,6.419999999983702
311830.3007,11.431587201428147,13.251645989835003,8.676603855482167,10.533274059785063,6.421000000031199
311830.3017,11.616532153866483,12.944137152338666,8.830318089898624,10.576526457657437,6.422000000020489
311830.3027,11.588771654758244,12.347148271087237,8.792461350428551,10.362640751813645,6.423000000009779
311830.3037,11.396457103029428,11.53150856541198,8.612601777276268,9.946593718860049,6.423999999999069
311830.3047,11.088028846659414,10.569827480875755,8.340520085302263,9.384954410378858,6.4249999999883585
311830.3057,10.706992220568702,9.53003597706354,8.021150193600747,8.730579208671685,6.426000000035856
311830.3067,10.287499958885832,8.46981569481533,7.690276343389112,8.028087649408638,6.427000000025146
311830.3077,9.851178933379055,7.432425584155126,7.371400423208485,7.310537283259819,6.4280000000144355
311830.3087,9.405509882721574,6.444289598331623,7.074073144464441,6.597589051163667,6.429000000003725
311830.3097,8.943909445497905,5.514529104078134,6.793834418048157,5.8953005397041895,6.429999999993015
311830.3107,8.447490145253873,4.636427447328557,6.513746343773301,5.1975182914738385,6.430999999982305
311830.3117,7.888303134264331,3.7906208953765623,6.20734252354006,4.488678429432195,6.432000000029802
311830.3127,7.233717328323764,2.949638848239324,5.842675597020971,3.747683111560433,6.433000000019092
311830.3137,6.451471962659424,2.08328348070387,5.38703486306421,2.952412650092617,6.434000000008382
311830.3147,5.514869075485554,1.1642577333365665,4.811838358635898,2.084370033336906,6.434999999997672
311830.3157,4.40755496168362,0.1734286386412412,4.097185414719108,1.132942214964206,6.4359999999869615
311830.3167,3.1273770058217782,-0.895847654649635,3.23558827258179,0.09880203779798283,6.437000000034459
311830.3177,1.6888908889525636,-2.0348161258541078,2.2344816121806272,-1.0039379076282815,6.438000000023749
311830.3187,0.12422432539030953,-3.2181610272366146,1.1172289326930462,-2.147081479280411,6.4390000000130385
311830.3197,-1.5178356011909309,-4.4047468580825235,-0.07750714891510979,-3.2893237542875546,6.440000000002328
311830.3207,-3.174489520866795,-5.540223583342209,-1.2980019756103356,-4.3787878203066475,6.440999999991618
311830.3217,-4.773093524594361,-6.5612672912416485,-2.4831252869452936,-5.3569066686256,6.441999999980908
311830.3227,-6.236482029953074,-7.40105932903878,-3.567087622396466,-6.163293483806498,6.443000000028405
311830.3237,-7.488963317569069,-7.99547747368323,-4.484837709288052,-6.741138292016469,6.444000000017695
311830.3247,-8.462434780394526,-8.289394699037024,-5.177604782596189,-7.0426085683077515,6.445000000006985
311830.3257,-9.102047790323182,-8.242462361235567,-5.5980618049451305,-7.0337221374066985,6.445999999996275
311830.3267,-9.370890092188422,-7.833797099843448,-5.714618438816897,-6.698203660926684,6.4469999999855645
311830.3277,-9.253243172861039,-7.06509040869702,-5.514433170197371,-6.039927199351649,6.448000000033062
311830.3287,-8.756104482672878,-5.961807030927168,-5.004854341897299,-5.083678051155037,6.449000000022352
311830.3297,-7.908826883592513,-4.572318788023066,-4.213148294419859,-3.874124701125924,6.4500000000116415
311830.3307,-6.760904509947582,-2.9650166210118485,-3.184534873727188,-2.473060996432932,6.451000000000931
311830.3317,-5.3781082107829095,-1.2236364275691016,-1.978710479917753,-0.95514318674051,6.451999999990221
311830.3327,-3.837328042750703,0.5587950193893962,-0.6651810643226596,0.5975097733108373,6.453000000037719
311830.3337,-2.2205999761323523,2.286855764181488,0.6821617458195107,2.101375240915655,6.454000000027008
311830.3347,-0.6088675293453032,3.869847115638475,1.9907195875791888,3.4777041430040683,6.455000000016298
311830.3357,0.9239505663665607,5.22849468430984,3.1945996168760753,4.6582633103374445,6.456000000005588
311830.3367,2.316050187491033,6.300631767877485,4.239268838683216,5.5901304112787455,6.456999999994878
311830.3377,3.5215387378356042,7.045362031185249,5.08503707391265,6.239118547503603,6.4579999999841675
311830.3387,4.512617831546325,7.445343354727024,5.709072427440396,6.591537297471605,6.459000000031665
311830.3397,5.279989711702206,7.507013249068473,6.105798300386105,6.654154343164782,6.460000000020955
311830.3407,5.831499325443882,7.258770981337229,6.285679718845872,6.452391566485926,6.4610000000102445
311830.3417,6.189195557471959,6.747323635136869,6.272563420821527,6.026955247436931,6.461999999999534
311830.3427,6.385147596122363,6.032574146758021,6.099875392903918,5.4292457467993325,6.462999999988824
311830.3437,6.456470930926363,5.181562476526631,5.806087775781761,4.716003792817546,6.464000000036322
311830.3447,6.4400905654498,4.262053759833641,5.429933750517375,3.9437175275431926,6.465000000025611
311830.3457,6.36778964685531,3.3363917721748426,5.005867780224821,3.163330483378609,6.466000000014901
311830.3467,6.262057982453888,2.4562002754560073,4.56023775569499,2.4157543070839385,6.467000000004191
311830.3477,6.133170276175732,1.6584226201005943,4.108558410332778,1.7286050764769514,6.467999999993481
311830.3487,5.977796799911922,0.9630506941642184,3.654159624029473,1.114456935942923,6.4689999999827705
311830.3497,5.779292196698368,0.37272185001816693,3.1883405095167836,0.5707538712216792,6.470000000030268
311830.3507,5.509636697333765,-0.12582607904055493,2.6920046925706553,0.08135478985828376,6.471000000019558
311830.3517,5.132835125602948,-0.5586374932541108,2.138599422285256,-0.3804750839530501,6.472000000008848
311830.3527,4.609429324894125,-0.9601203073459141,1.4980462590456178,-0.8479562879012045,6.472999999998137
311830.3537,3.901663834223963,-1.367814501998268,0.7412474891013275,-1.356009960095963,6.473999999987427
311830.3547,2.9787742204972907,-1.8169148444586023,-0.1553095838137336,-1.9363002756411114,6.475000000034925
311830.3557,1.8218494341239155,-2.3351355947266823,-1.2053425122764994,-2.6126245962613237,6.476000000024214
311830.3567,0.427755761485839,-2.93846672176297,-2.4094146831290137,-3.397135059527252,6.477000000013504
311830.3577,-1.1883030513564805,-3.6282775751690726,-3.7528033079127905,-4.287790955396988,6.478000000002794
311830.3587,-2.991885564148796,-4.390084482237433,-5.204851278270331,-5.267317244977112,6.478999999992084
311830.3597,-4.930209212273803,-5.194127299949933,-6.719914316591114,-6.303793223089223,6.4799999999813735
311830.3607,-6.9348071775340046,-5.997713646307588,-8.239857338226692,-7.352831540398753,6.481000000028871
311830.3617,-8.925738276635974,-6.749106947104034,-9.69789982690501,-8.361147721529433,6.482000000018161
311830.3627,-10.816991104922499,-7.392573792951137,-11.02347449712457,-9.27117971150415,6.483000000007451
311830.3637,-12.52260627559417,-7.874083484347538,-12.147659968704811,-10.02630970814634,6.48399999999674
311830.3647,-13.962968733475316,-8.147080383894123,-13.008686889002625,-10.576177175976893,6.48499999998603
311830.3657,-15.070702804746817,-8.177735162372242,-13.557004060935371,-10.881558764774303,6.486000000033528
311830.3667,-15.795637747608474,-7.949125887508649,-13.759428087371944,-10.918329231679106,6.487000000022817
311830.3677,-16.10839766219953,-7.463899957663211,-13.601983361487662,-10.680103698859831,6.488000000012107
311830.3687,-16.00229830304741,-6.745113460403423,-13.091160909235894,-10.179287294133463,6.489000000001397
311830.3697,-15.493392077675935,-5.835121453572922,-12.253472850892624,-9.446411182488172,6.489999999990687
311830.3707,-14.618675870284111,-4.792583613562997,-11.13333970808342,-8.527799302446482,6.491000000038184
311830.3717,-13.432647470739674,-3.6878359342660096,-9.78950485150178,-7.481771667558651,6.492000000027474
311830.3727,-12.002548748051229,-2.5970423640884386,-8.290308796362396,-6.373732141865362,6.493000000016764
311830.3737,-10.40275259525737,-1.5956643199168303,-6.708262358845034,-5.270597310943064,6.494000000006054
311830.3747,-8.708824711479837,-0.7518585885104165,-5.11442157224381,-4.235087854395315,6.494999999995343
311830.3757,-6.9918135132054875,-0.12042788970597743,-3.573082552825809,-3.320418360471647,6.495999999984633
311830.3767,-5.31329000011117,0.26209827462046104,-2.1372797729121062,-2.5658843694533764,6.497000000032131
311830.3777,-3.7215776132579865,0.3807776493700971,-0.8454898942729734,-1.993760166549153,6.49800000002142
311830.3787,-2.249488296741133,0.2436384701199795,0.28017656764782967,-1.6077957093606021,6.49900000001071
311830.3797,-0.9137274760865638,-0.11901246110541056,1.234160186022793,-1.3934481741022384,6.5
311830.3807,0.28403726699151555,-0.6573052920256683,2.0260377790537722,-1.3198177303908194,6.50099999998929
311830.3817,1.3546148086830772,-1.306302893178537,2.677687450834955,-1.3430943508757507,6.502000000036787
311830.3827,2.317554621796942,-1.9918644966397347,3.2193508849902144,-1.411178471048882,6.503000000026077
311830.3837,3.1966689268194495,-2.6373347837653,3.6850161372417123,-1.4690270496168278,6.504000000015367
311830.3847,4.015315391889496,-3.1704375790135413,4.107607890413369,-1.4642087764200153,6.505000000004657
311830.3857,4.7919619372537285,-3.5297340676769022,4.514487477521193,-1.3521343485564035,6.505999999993946
311830.3867,5.536521409803847,-3.670047273813422,4.92373046597325,-1.1004615478150697,6.506999999983236
311830.3877,6.247860739273152,-3.5663533817628563,5.341568633252894,-0.6922569487521529,6.508000000030734
311830.3887,6.912765003137524,-3.215786822091634,5.761263714699276,-0.12761842005197482,6.509000000020023
311830.3897,7.506484019078455,-2.6375857483262393,6.163534117359928,0.5763868037123234,6.510000000009313
311830.3907,7.99482291516011,-1.8710002682714126,6.518497266217736,1.3874495075239004,6.510999999998603
311830.3917,8.33757521738412,-0.971378695335167,6.788935019198404,2.2612306006896064,6.511999999987893
311830.3927,8.492953678302397,-0.004818582569624629,6.934553009142098,3.1457336244554184,6.51300000003539
311830.3937,8.422564787904086,0.9580970729533637,6.916800408805917,3.986401917698428,6.51400000002468
311830.3947,8.096408768286055,1.8488750864415737,6.70375490967623,4.731436222165882,6.51500000001397
311830.3957,7.4973745277899635,2.6073709337873714,6.274564941025131,5.336809578334753,6.51600000000326
311830.3967,6.624740097502959,3.1871394556446124,5.622978830262151,5.770488706305841,6.516999999992549
311830.3977,5.496279768798198,3.559378704653134,4.759575268012605,6.015451388769625,6.517999999981839
311830.3987,4.148710835541518,3.71510888079233,3.712433011824717,6.071209682345847,6.519000000029337
311830.3997,2.636372760433399,3.6654027229112147,2.526128307709336,5.953697176231119,6.5200000000186265
311830.4007,1.028204116845943,3.439674791947789,1.2591113969320036,5.693540350304261,6.521000000007916
311830.4017,-0.5967491383768777,3.0822260922568434,-0.020327200376736687,5.332893416158708,6.521999999997206
311830.4027,-2.1549132385246756,2.6474089784503376,-1.239149800988426,4.921157179151486,6.522999999986496
311830.4037,-3.564361511885996,2.1939088841288754,-2.325266124965045,4.510011571572987,6.524000000033993
311830.4047,-4.75102720205482,1.7787213389479144,-3.2133078872381433,4.1482578831643195,6.525000000023283
311830.4057,-5.654385357644279,1.4514271667894787,-3.849948571394602,3.876983886695086,6.526000000012573
311830.4067,-6.232078450026295,1.249333504425062,-4.198271721028628,3.725531415043322,6.527000000001863
311830.4077,-6.463054902751858,1.1939570500480554,-4.240777354577343,3.7086649015417157,6.527999999991152
311830.4087,-6.348926332991607,1.28918795823537,-3.980742257957203,3.8252190354854267,6.52900000003865
311830.4097,-5.913414930725415,1.5213018549949127,-3.4418038056771167,4.058355975490383,6.53000000002794
311830.4107,-5.199941070527258,1.8608005989719953,-2.6658037431918187,4.3774021633559,6.5310000000172295
311830.4117,-4.267575676387688,2.2658782544313705,-1.7090918911745558,4.741077589857821,6.532000000006519
311830.4127,-3.1857351262850404,2.687145566811085,-0.6376341708377219,5.101791948126564,6.532999999995809
311830.4137,-2.0281137060609065,3.0731202368452006,0.478619279271309,5.41057616327306,6.533999999985099
311830.4147,-0.8664184115434451,3.375913962595567,1.571582570852673,5.62215477524086,6.535000000032596
311830.4157,0.23551352267807166,3.556528107813365,2.580558530137766,5.699650782994707,6.536000000021886
311830.4167,1.2266741169945303,3.5892098230343534,3.456933164836601,5.618451171773945,6.537000000011176
311830.4177,2.072472817958137,3.464415491255711,4.167617107971867,5.368844787262473,6.538000000000466
311830.4187,2.7566397174250876,3.190069027404762,4.696934176229146,4.95716621195255,6.5389999999897555
311830.4197,3.281294588123094,2.790974840742527,5.046808474815084,4.405327759915588,6.540000000037253
311830.4207,3.66521058424308,2.3064320445168462,5.235266146856907,3.748781953971859,6.541000000026543
311830.4217,3.9404759104790257,1.7862791958035664,5.293429897010309,3.033113049575481,6.5420000000158325
311830.4227,4.1479106676012565,1.2857592880954838,5.261328127034723,2.3095928976236877,6.543000000005122
311830.4237,4.331714544074494,0.859716900284148,5.182952059420649,1.6301401950775616,6.543999999994412
311830.4247,4.533892627446516,0.5567110891434298,5.101062930063439,1.0421827093370153,6.544999999983702
311830.4257,4.789024526199783,0.4136415268394572,5.052270745395865,0.5839333841535954,6.546000000031199
311830.4267,5.119904631944706,0.45143994570016766,5.062874583205939,0.28055218238181145,6.547000000020489
311830.4277,5.534492505806841,0.6722784225770556,5.14587528596121,0.14157988053032475,6.548000000009779
311830.4287,6.024480836269094,1.0586001128077638,5.299452581094836,0.1599061590508075,6.548999999999069
311830.4297,6.565627118103846,1.574100916387381,5.507051919196539,0.3123843373240936,6.5499999999883585
311830.4307,7.119819940001823,2.1665995162256158,5.739066070254722,0.5620436531412926,6.551000000035856
311830.4317,7.638678661798094,2.7725469704188153,5.9559384369952975,0.8616928802614264,6.552000000025146
311830.4327,8.068333084344403,3.3227638460688182,6.1123745366406865,1.1585716942376327,6.5530000000144355
311830.4337,8.354912261778537,3.748868816938388,6.16223880226806,1.3996019959857058,6.554000000003725
311830.4347,8.450200259995116,3.9897899875715437,6.063646308257703,1.536730610004861,6.554999999993015
311830.4357,8.31689829738734,3.9977362343347327,5.7837396746221525,1.5318433832298104,6.555999999982305
311830.4367,7.932969016552569,3.743052140213514,5.302671981725465,1.3607698988926695,6.557000000029802
311830.4377,7.294626010243694,3.217482348010915,4.616393893947476,1.0159840360628867,6.558000000019092
311830.4387,6.417661588705132,2.4355196169306006,3.737959668647383,0.5077301366104849,6.559000000008382
311830.4397,5.336965448474988,1.433691288069249,2.697210854881142,-0.1365444758709499,6.559999999997672
311830.4407,4.1042608404462975,0.267833875972672,1.5388541509761193,-0.8744070831052999,6.5609999999869615
311830.4417,2.784256146713811,-0.9914036910887853,0.31910570600923627,-1.6521048962202618,6.562000000034459
311830.4427,1.449561868165779,-2.264419459699341,-0.8987870383859752,-2.409336289949136,6.563000000023749
311830.4437,0.1748412121952975,-3.469342369240847,-2.0497265153614035,-3.0846795448129996,6.5640000000130385
311830.4447,-0.9692646052792246,-4.528924508602544,-3.072162308178808,-3.6211673199355854,6.565000000002328
311830.4457,-1.9218745027951756,-5.377006220213435,-3.9131975178443814,-3.971481023146863,6.565999999991618
311830.4467,-2.6367406045258073,-5.963959871538639,-4.532926234665645,-4.102275836763014,6.566999999980908
311830.4477,-3.08581169885404,-6.260616006387798,-4.907599311208015,-3.9972308077552,6.568000000028405
311830.4487,-3.2611688664914604,-6.260320570773229,-5.031329510728071,-3.658540964315932,6.569000000017695
311830.4497,-3.1751713375565873,-5.978949955226074,-4.916188459405624,-3.1067179502211064,6.570000000006985
311830.4507,-2.8588216034591896,-5.452904509219294,-4.590702805933563,-2.378727637927534,6.570999999996275
311830.4517,-2.3585278196239465,-4.735292261229452,-4.096910444303053,-1.5246518624036431,6.5719999999855645
311830.4527,-1.7315921874765197,-3.8906844267499263,-3.4862746325131804,-0.6032014217898594,6.573000000033062
311830.4537,-1.0408717391052587,-2.988956604642971,-2.8148610382611943,0.3234847301305071,6.574000000022352
311830.4547,-0.3491314644511158,-2.0988117181492796,-2.138249803715866,1.1952540082168335,6.5750000000116415
311830.4557,0.28636792695354935,-1.2816050104676298,-1.5066752380169637,1.9590520054650211,6.576000000000931
311830.4567,0.8185360495728979,-0.5860556517227096,-0.9608578834549746,2.573249078682616,6.576999999990221
311830.4577,1.2139416619742378,-0.04433748118797059,-0.5289203715425155,3.010779908547215,6.578000000037719
311830.4587,1.4548154073246498,0.3300977192769453,-0.22466705784828067,3.2608136769645015,6.579000000027008
311830.4597,1.5394092089868252,0.5427835095895723,-0.04736900032333461,3.3288188633215587,6.580000000016298
311830.4607,1.4807209828842964,0.6165966221029906,0.016955834788450898,3.235045497348762,6.581000000005588
311830.4617,1.3037571364109348,0.5884041530120814,-0.0070728361548927495,3.011603389440985,6.581999999994878
311830.4627,1.041650804292398,0.5043614551822123,-0.08785490474800316,2.698452100229345,6.5829999999841675
311830.4637,0.7310665561498514,0.41435211326535265,-0.1911122241591367,2.3387237617645327,6.584000000031665
311830.4647,0.40739128059030305,0.36614236475535766,-0.2843757539117935,1.973863032868854,6.585000000020955
311830.4657,0.10022932980751459,0.39984651792689146,-0.3411801002083762,1.6390833346200402,6.5860000000102445
311830.4667,-0.17031397468224205,0.5432651482664795,-0.3445189728967705,1.3596037015557985,6.586999999999534
311830.4677,-0.3961593142011476,0.8085677426303881,-0.28919100023267363,1.1480496213832292,6.587999999988824
311830.4687,-0.5823133081835367,1.190655027372669,-0.18277877494305933,1.003282180829462,6.589000000036322
311830.4697,-0.7463359654956498,1.6673670018065598,-0.04514373548815838,0.9107744934441736,6.590000000025611
311830.4707,-0.9162555773124405,2.2015174254212155,0.09352832590680561,0.8444971490165399,6.591000000014901
311830.4717,-1.1271331880305981,2.744552445439735,0.19594680282574103,0.7701208613106771,6.592000000004191
311830.4727,-1.4166216301249053,3.241468226503772,0.22188455268608703,0.6492098169632483,6.592999999993481
311830.4737,-1.8199732569887002,3.636495875798916,0.13287738668424687,0.4439768145416639,6.5939999999827705
311830.4747,-2.365014890567591,3.878984090772568,-0.10302297846761611,0.12211134036654597,6.595000000030268
311830.4757,-3.0676214282809138,3.9288884480285993,-0.5069332650196268,-0.3388196984509055,6.596000000019558
311830.4767,-3.928179384378694,3.7613132163563527,-1.0857152363999836,-0.9478604960451816,6.597000000008848
311830.4777,-4.92944196110857,3.3696433819206453,-1.8298181370853532,-1.6984215021541158,6.597999999998137
311830.4787,-6.0360465386711315,2.7669421943758805,-2.7126413129827167,-2.5675560666519495,6.598999999987427
311830.4797,-7.195806307930256,1.9854594446164329,-3.691525760655162,-3.516864876717961,6.600000000034925
311830.4807,-8.342715581559425,1.0742811505444636,-4.71032555235024,-4.49497444641641,6.601000000024214
311830.4817,-9.401439907331548,0.09533409652420081,-5.703355497598497,-5.441380114062792,6.602000000013504
311830.4827,-10.292913992332586,-0.8818792632268336,-6.600375212552776,-6.2913077953060315,6.603000000002794
311830.4837,-10.940557248425288,-1.7863146511265315,-7.332165421411052,-6.981145608278719,6.603999999992084
311830.4847,-11.276549763041583,-2.5516113721338565,-7.836190191326809,-7.453936697691569,6.6049999999813735
311830.4857,-11.24759749764001,-3.121912413235087,-8.061825186158385,-7.664414170143785,6.606000000028871
311830.4867,-10.8196561823132,-3.456721304299573,-7.974668467164265,-7.58309920599186,6.607000000018161
311830.4877,-9.981175041746566,-3.534331551049801,-7.559533522606861,-7.1990703561644045,6.608000000007451
311830.4887,-8.744555498942644,-3.3535037914308305,-6.821846140195677,-6.521137377268331,6.60899999999674
311830.4897,-7.145683548094416,-2.9332370440653714,-5.787315695990176,-5.577304523561411,6.60999999998603
311830.4907,-5.241571846915608,-2.3106666325532315,-4.499912999807454,-4.412571218372534,6.611000000033528
311830.4917,-3.1063216581043624,-1.5373042097038687,-3.0183453319805587,-3.0852765420947357,6.612000000022817
311830.4927,-0.8257687761630799,-0.673996721335275,-1.411359334012135,-1.6623324927205134,6.613000000012107
311830.4937,1.508703336392462,0.2148948015315347,0.2476896214469938,-0.21379594260367085,6.614000000001397
311830.4947,3.8066272519079876,1.067521304236125,1.8864975184854276,1.192709635808444,6.614999999990687
311830.4957,5.984616715850079,1.8301838479036703,3.439180562093528,2.497200239012085,6.616000000038184
311830.4967,7.971693352116551,2.462032281064709,4.850865842819202,3.6516822600933154,6.617000000027474
311830.4977,9.713321935934918,2.9383687271930996,6.0810974284561805,4.623251785887304,6.618000000016764
311830.4987,11.173830781752251,3.2522411064221757,7.105770985807644,5.395670643233587,6.619000000006054
311830.4997,12.337053217430498,3.4141839864830352,7.917456562256926,5.969298569131916,6.619999999995343
311830.5007,13.205199732497016,3.450150222813765,8.524128274578961,6.35942314513647,6.620999999984633
311830.5017,13.796141171776704,3.397858638599549,8.946475691716868,6.593186713725672,6.622000000032131
311830.5027,14.139434601657191,3.3019423645709125,9.214109322137087,6.705446889130117,6.62300000002142
311830.5037,14.271540476359624,3.2084035553069445,9.361078328795545,6.734010976698381,6.62400000001071
311830.5047,14.230751154795529,3.158950937624054,9.421182066466272,6.714744422470885,6.625
311830.5057,14.0523698548709,3.185809903294227,9.423572117923182,6.6770634387231365,6.62599999998929
311830.5067,13.764644142712255,3.3075491800500947,9.389106828902372,6.6402811937416315,6.627000000036787
311830.5077,13.385872724204491,3.526367871451436,9.327839449844534,6.611189409875758,6.628000000026077
311830.5087,12.92297727470587,3.827141618117767,9.237901986733165,6.583131483641719,6.629000000015367
311830.5097,12.371675049042512,4.178351016716073,9.105901603993551,6.536671693346594,6.630000000004657
311830.5107,11.718218641944853,4.5348265088280515,8.908789359321988,6.4418026203368735,6.630999999993946
311830.5117,10.94250341522823,4.842060347708089,8.617007801164148,6.261475604984729,6.631999999983236
311830.5127,10.022197320489347,5.041676123477171,8.198589773895277,5.95610244166668,6.633000000030734
311830.5137,8.937436699716452,5.077525575453029,7.623779035605302,5.488574144301682,6.634000000020023
311830.5147,7.675566310582923,4.90181311981907,6.869684197150202,4.829284711447581,6.635000000009313
311830.5157,6.235388964321372,4.480637732284313,5.924467049341612,3.960640275545413,6.635999999998603
311830.5167,4.6304312868030415,3.7983908932912818,4.790605786493902,2.8805778006321914,6.636999999987893
311830.5177,2.8908234088274813,2.8605537147982063,3.4868592802707172,1.60470853772875,6.63800000003539
311830.5187,1.0635231041020565,1.6945861845084838,2.0486821769591317,0.16683106184356114,6.63900000002468
311830.5197,-0.7892238281507595,0.34878228520979754,0.5269902024542028,-1.3822855901776925,6.64000000001397
311830.5207,-2.593120989442709,-1.110840889383728,-1.0146639002115454,-2.977781455404522,6.64100000000326
311830.5217,-4.266520658171757,-2.605362821273828,-2.5042866266101456,-4.545019094324694,6.641999999992549
311830.5227,-5.726199743436533,-4.049065416392335,-3.866657868913188,-6.0049615520498305,6.642999999981839
311830.5237,-6.893713518838595,-5.35627666972269,-5.02910466173176,-7.28013940358494,6.644000000029337
311830.5247,-7.701761280609436,-6.448330102645905,-5.927315534115896,-8.300670436208872,6.6450000000186265
311830.5257,-8.099984649949894,-7.260003472649807,-6.510665233655334,-9.009785548466649,6.646000000007916
311830.5267,-8.059660936066125,-7.744846550982233,-6.746559011243668,-9.368356614438706,6.646999999997206
311830.5277,-7.576847042321639,-7.878910429519412,-6.623392088279478,-9.358012416714041,6.647999999986496
311830.5287,-6.6736651020967095,-7.662540009668145,-6.151845138537733,-8.982558661167674,6.649000000033993
311830.5297,-5.39758650831082,-7.120072689382698,-5.3643886043656375,-8.267575082677666,6.650000000023283
311830.5307,-3.8187505009509235,-6.29748232923343,-4.3130328338454,-7.258231636796677,6.651000000012573
311830.5317,-2.0255298954776033,-5.258199456598962,-3.0655216007337285,-6.01553049022706,6.652000000001863
311830.5327,-0.11871307467013753,-4.077507888554877,-1.7003081440849235,-4.611325134186127,6.652999999991152
311830.5337,1.7952068294289876,-2.836048263905358,-0.30076189523410357,-3.1225785711347447,6.65400000003865
311830.5347,3.6110690424006564,-1.6130379142032125,1.0508798161096702,-1.625388599832738,6.65500000002794
311830.5357,5.231819617524884,-0.47983662131255383,2.2792837418333676,-0.18932351923845162,6.6560000000172295
311830.5367,6.574466943517068,0.5055526153929185,3.321018474595293,1.1274251929182801,6.657000000006519
311830.5377,7.574746053211492,1.3025554719248464,4.128360456243015,2.281651708763145,6.657999999995809
311830.5387,8.190146583778608,1.8903220281426194,4.671609949930928,3.2472094958766338,6.658999999985099
311830.5397,8.401116704286576,2.2680735381075463,4.939764960988369,4.0154053623409585,6.660000000032596
311830.5407,8.210427667132727,2.453518677945723,4.9395599548028555,4.59373420548493,6.661000000021886
311830.5417,7.640854002151095,2.4795453707315698,4.693032071981536,5.003135766431088,6.662000000011176
311830.5427,6.7314762121563545,2.3895600282458256,4.233915144326095,5.274096205668705,6.663000000000466
311830.5437,5.533031540989057,2.231973716465839,3.6032677985335324,5.442025543918689,6.6639999999897555
311830.5447,4.102812737291777,2.0544119885343166,2.8448061084322678,5.542406475749548,6.665000000037253
311830.5457,2.4996379673510405,1.8982445819562297,2.0004276130978265,5.6062246251959476,6.666000000026543
311830.5467,0.7793854993930515,1.7939912109685203,1.106380816866599,5.65615378299257,6.6670000000158325
311830.5477,-1.0084918837899868,1.7580645355375812,0.19045616803757087,5.7038859101523816,6.668000000005122
311830.5487,-2.8231770758787267,1.7911707325909725,-0.7295408743087817,5.748873246284937,6.668999999994412
311830.5497,-4.633275155506165,1.8785160884214769,-1.6459148891965203,5.77860107555907,6.669999999983702
311830.5507,-6.416188114369694,1.9917819030895092,-2.5598357493246664,5.770349523986755,6.671000000031199
311830.5517,-8.156246195528214,2.092648345477935,-3.4789037043747513,5.694247246865893,6.672000000020489
311830.5527,-9.841900948299612,2.137488847840598,-4.4138321131255145,5.517284596195603,6.673000000009779
311830.5537,-11.462388021102889,2.082736045686317,-5.3746514917044035,5.207852397611764,6.673999999999069
311830.5547,-13.004326248445492,1.8903501883034843,-6.366892261398549,4.740315016941156,6.6749999999883585
311830.5557,-14.448727674778988,1.5328083853669958,-7.388209612645911,4.099118788114325,6.676000000035856
311830.5567,-15.768849851300466,0.9970793230486896,-8.4258714810831,3.2819799855811667,6.677000000025146
311830.5577,-16.929231323029217,0.2871486445976809,-9.455443851536737,2.3017861911276105,6.6780000000144355
311830.5587,-17.886122781286282,-0.575194884671758,-10.440885028388207,1.1869723257705511,6.679000000003725
311830.5597,-18.589372888938318,-1.5514273679239656,-11.33611432225605,-0.01971478184779915,6.679999999993015
311830.5607,-18.985664909560708,-2.5891392602641865,-12.087965411333672,-1.2639867477818336,6.680999999982305
311830.5617,-19.022844669025854,-3.6264120641367863,-12.64028602527316,-2.4840857765781994,6.682000000029802
311830.5627,-18.65494813083809,-4.597310422860941,-12.938818586827207,-3.6157905732176188,6.683000000019092
311830.5637,-17.847441846046166,-5.437960120623921,-12.93640399028037,-4.597888315290127,6.684000000008382
311830.5647,-16.582142008951116,-6.092616553100983,-12.59800240785178,-5.377590590959647,6.684999999997672
311830.5657,-14.86128342486761,-6.519120833496427,-11.905026200047235,-5.915367777687335,6.6859999999869615
311830.5667,-12.710268752817885,-6.6931929074666,-10.858531122411149,-6.188724522277351,6.687000000034459
311830.5677,-10.178735993520537,-6.611118066478724,-9.480908620679413,-6.194534371303837,6.688000000023749
311830.5687,-7.3397285656565305,-6.29053486747365,-7.815855151528769,-5.949685128466172,6.6890000000130385
311830.5697,-4.286923742727753,-5.769214067199456,-5.9265515893170475,-5.489945347552409,6.690000000002328
311830.5707,-1.130055398854893,-5.101912150864572,-3.8921518969900752,-4.867131152826143,6.690999999991618
311830.5717,2.011161396047341,-4.355570492107033,-1.8028394042782643,-4.144814939277204,6.691999999980908
311830.5727,5.014150047949613,-3.6032938113623936,0.2461541151680025,-3.3929576506069608,6.693000000028405
311830.5737,7.76107577071762,-2.917663451585146,2.1610701303775857,-2.681950596245694,6.694000000017695
311830.5747,10.146315539616776,-2.364010037413799,3.8561336388624854,-2.076610947111022,6.695000000006985
311830.5757,12.083177400598263,-1.9942794044036352,5.2594952549859535,-1.6306814036527846,6.695999999996275
311830.5767,13.509308414359191,-1.84207414455466,6.318095456166687,-1.3823383463691725,6.6969999999855645
311830.5777,14.390338971079508,-1.9193454849272018,7.001036003516228,-1.3511184450189553,6.698000000033062
311830.5787,14.72146174443789,-2.2150567185997887,7.301176890509052,-1.5365402782550084,6.699000000022352
311830.5797,14.526822279258793,-2.695954723052086,7.234836638742058,-1.9185378520034806,6.7000000000116415
311830.5807,13.856788520141214,-3.3093879486738293,6.8396442982565935,-2.4596523942335002,6.701000000000931
311830.5817,12.78335074800211,-3.987916674857964,6.170757005920587,-3.10876387846494,6.701999999990221
311830.5827,11.39406422192116,-4.655292816371173,5.295801785484484,-3.8060002621963616,6.703000000037719
311830.5837,9.785069361330448,-5.233258292191339,4.2890108102921385,-4.488354189422946,6.704000000027008
311830.5847,8.053797231661862,-5.648535216386105,3.2250852761714923,-5.095474225956275,6.705000000016298
311830.5857,6.29198482843619,-5.8393651193100675,2.173338330219141,-5.575086454982391,6.706000000005588
311830.5867,4.579583960450437,-5.76099945767609,1.1926310287915312,-5.887543328663018,6.706999999994878
311830.5877,2.980053647359074,-5.389645312826658,0.32753088953347503,-6.009085830813193,6.7079999999841675
311830.5887,1.5373881510292975,-4.724518434251955,-0.3940013129933211,-5.933533368513987,6.709000000031665
311830.5897,0.2750644721342856,-3.7878362054626202,-0.9612420846698387,-5.672270698484026,6.710000000020955
311830.5907,-0.8030893858632867,-2.62277817313821,-1.3796624266847524,-5.25256738509103,6.7110000000102445
311830.5917,-1.7102833485682545,-1.2896326187801121,-1.6683814815997542,-4.714426510687443,6.711999999999534
311830.5927,-2.472748297762693,0.13948411380366163,-1.8564279316901529,-4.106299892806323,6.712999999988824
311830.5937,-3.124773721975644,1.5868192915157322,-1.9782296350504347,-3.480113271305732,6.714000000036322
311830.5947,-3.7033373880301146,2.9754916546581334,-2.06881841991994,-2.886106595946941,6.715000000025611
311830.5957,-4.24288770611759,4.235700292649178,-2.159254564622112,-2.3680058686601284,6.716000000014901
311830.5967,-4.770807562168253,5.3100587220097575,-2.272742976031876,-1.959003144207927,6.717000000004191
311830.5977,-5.304005118129139,6.157573149655578,-2.4218340613993528,-1.6789344779676176,6.717999999993481
311830.5987,-5.846951210664595,6.755924432913269,-2.6069849214292664,-1.5329206537693791,6.7189999999827705
311830.5997,-6.391327382363132,7.1018853978705465,-2.8166126520552734,-1.5115849861998543,6.720000000030268
311830.6007,-6.917278940028041,7.209891816321684,-3.0286156469122143,-1.5928014182286871,6.721000000019558
311830.6017,-7.396100698218822,7.108968004198148,-3.213186382009906,-1.7447705767643917,6.722000000008848
311830.6027,-7.794035775427935,6.838368709398704,-3.3366053731389553,-1.9300868758058094,6.722999999998137
311830.6037,-8.076754483817137,6.4424219668173555,-3.3656040723362772,-2.110359535722622,6.723999999987427
311830.6047,-8.21401207033918,5.965130956189307,-3.2718244792850943,-2.2508944666909256,6.725000000034925
311830.6057,-8.183967392732358,5.445109590481964,-3.0358910950752223,-2.3249378989072964,6.726000000024214
311830.6067,-7.97668097151979,4.91138519470359,-2.650647719013117,-2.3170270479827875,6.727000000013504
311830.6077,-7.596396406636486,4.380506556934423,-2.123193828209749,-2.225083599637673,6.728000000002794
311830.6087,-7.062335169921379,3.8552565006263704,-1.4754747575380782,-2.061013436251513,6.728999999992084
311830.6097,-6.407888564380002,3.3250989435732863,-0.7433248160319047,-1.8497281746238425,6.7299999999813735
311830.6107,-5.678256716566453,2.7683081437517645,0.025981478181299658,-1.6266656582193155,6.731000000028871
311830.6117,-4.926746162845813,2.1555507476036544,0.7774631163171334,-1.4340415003728793,6.732000000018161
311830.6127,-4.210078657362861,1.4545371080194978,1.453111930281631,-1.316196668859587,6.733000000007451
311830.6137,-3.583170057000814,0.6352426267932925,1.997078287243801,-1.3145036251859226,6.73399999999674
311830.6147,-3.0938987525982897,-0.3248656864935749,2.3608665075847073,-1.4623458101739393,6.73499999998603
311830.6157,-2.778391848255234,-1.4361708914072984,2.5080343740887634,-1.7806868415537969,6.736000000033528
311830.6167,-2.6573130055160563,-2.693340058658318,2.4179316655366048,-2.2746961607533307,6.737000000022817
311830.6177,-2.733542684482737,-4.073271612848368,2.088099087784685,-2.931801559395283,6.738000000012107
311830.6187,-2.9915084076148855,-5.534830751012364,1.5350731119371186,-3.7214051506430543,6.739000000001397
311830.6197,-3.398262610162889,-7.020471834638161,0.7934921749179285,-4.596340763183394,6.739999999990687
311830.6207,-3.906234311699742,-8.459658767702093,-0.08643899572462291,-5.495982737905011,6.741000000038184
311830.6217,-4.457415119119086,-9.773812865960611,-1.0429131125745332,-6.3507549991596175,6.742000000027474
311830.6227,-4.988596354009497,-10.882360544228137,-2.0075607371011044,-7.0876507557814685,6.743000000016764
311830.6237,-5.4371667007760305,-11.709335951096648,-2.9111113434619202,-7.636270833951837,6.744000000006054
311830.6247,-5.746919508714945,-12.189928275231063,-3.689157539831426,-7.9348325693153985,6.744999999995343
311830.6257,-5.87331198688454,-12.27635663215615,-4.287492746130874,-7.935597053306055,6.745999999984633
311830.6267,-5.787666034229105,-11.942508318180398,-4.666531032008714,-7.609210989386355,6.747000000032131
311830.6277,-5.479898051536874,-11.186884069728437,-4.80440326617935,-6.947556032574902,6.74800000002142
311830.6287,-4.959503563884021,-10.033546694053364,-4.698448083979706,-5.964834158089924,6.74900000001071
311830.6297,-4.254688579996744,-8.530952534989925,-4.364967525452812,-4.696779441004383,6.75
311830.6307,-3.4097173102372897,-6.748741194498758,-3.837280980918599,-3.1980591955288995,6.75099999998929
311830.6317,-2.480717940634927,-4.772748932363072,-3.162271534801154,-1.5380942411751377,6.752000000036787
311830.6327,-1.5303378792884343,-2.6986769239890114,-2.3957604651649818,0.20432679243998814,6.753000000026077
311830.6337,-0.6217526320324104,-0.6249710895138516,-1.597154897889395,1.9471545689975525,6.754000000015367
311830.6347,0.18740284654605566,1.3544565972353455,-0.8238799388621865,3.6113592586506478,6.755000000004657
311830.6357,0.85060127857351,3.157021618663702,-0.12612369070452983,5.126823667821729,6.755999999993946
311830.6367,1.336955062678059,4.717178477033027,0.45761014029991676,6.437329995821223,6.756999999983236
311830.6377,1.6342764031679513,5.9905566699014265,0.9037284404449313,7.504210490630374,6.758000000030734
311830.6387,1.750367861350421,6.956176780078459,1.2052605992183028,8.308361686511205,6.759000000020023
311830.6397,1.712413506890433,7.616583531089988,1.3719111920716403,8.8504785509495,6.760000000009313
311830.6407,1.5645214369694724,7.9959281477777555,1.4284698218164826,9.149533566232522,6.760999999998603
311830.6417,1.3636443399708575,8.136223382627692,1.411753324537437,9.239690252601873,6.761999999987893
311830.6427,1.174259068500969,8.092162798768815,1.3663964509526032,9.16598512965043,6.76300000003539
311830.6437,1.0623040046211423,7.925025281647505,1.339916506785313,8.979222855552056,6.76400000002468
311830.6447,1.088943031475673,7.696264043984614,1.3775447689213238,8.730595871687017,6.76500000001397
311830.6457,1.3047404830179488,7.461399352811714,1.5173364099964433,8.46655624800346,6.76600000000326
311830.6467,1.7447911161095382,7.264794292334174,1.7860395270464138,8.224432420201705,6.766999999992549
311830.6477,2.42525693398838,7.135797354231579,2.196125935921714,8.029200985837845,6.767999999981839
311830.6487,3.341627598293348,7.0865941788865685,2.7442694809016714,7.891702142528057,6.769000000029337
311830.6497,4.468856342457355,7.111937448688126,3.4114133252774015,7.808438930770817,6.7700000000186265
311830.6507,5.763344735993415,7.190735892260185,4.164410285377627,7.762939964417925,6.771000000007916
311830.6517,7.166574631215858,7.289299091113423,4.959065243301314,7.7285086714287266,6.771999999997206
311830.6527,8.610031042813079,7.365872332077811,5.7442712410280485,7.672044645351365,6.772999999986496
311830.6537,10.020940422210645,7.375970949937608,6.466824469494435,7.558517973817315,6.774000000033993
311830.6547,11.32827617039469,7.277948526873151,7.076438382468084,7.35561553026351,6.775000000023283
311830.6557,12.468464083278874,7.038215099338564,7.5304598483211365,7.0380650816220856,6.776000000012573
311830.6567,13.390256310518778,6.635561690538211,7.797822155689749,6.591179728728598,6.777000000001863
311830.6577,14.058329529864874,6.064141804660659,7.861847509958999,6.013247776121567,6.777999999991152
311830.6587,14.455292609522091,5.334799429007414,7.721627574047567,5.3165132046828125,6.77900000003865
311830.6597,14.581948155778937,4.474602659659199,7.391853054075505,4.526637379148221,6.78000000002794
311830.6607,14.455825291892149,3.5246253685432642,6.901118147307099,3.680688856553494,6.7810000000172295
311830.6617,14.108170769046794,2.536198115316066,6.288877500984562,2.8238595223664307,6.782000000006519
311830.6627,13.579735436366313,1.5660060037659518,5.601367144223439,2.005236627079741,6.782999999995809
311830.6637,12.915808570768268,0.670529843656464,4.886903425829912,1.2730584916724252,6.783999999985099
311830.6647,12.161022402695432,-0.09960398527327882,4.191035203598019,0.6699368640372294,6.785000000032596
311830.6657,11.354466706694694,-0.7047870374442345,3.552038374505501,0.2285355839871642,6.786000000021886
311830.6667,10.52561705407659,-1.1205730051044511,2.9972069912628476,-0.03184738080965957,6.787000000011176
311830.6677,9.691494038665562,-1.3403685898877866,2.5403151754563424,-0.1074351688572886,6.788000000000466
311830.6687,8.85534318135587,-1.3763793333183192,2.1805067716853888,-0.0106293341166528,6.7889999999897555
311830.6697,8.006969028926626,-1.2586906987078843,1.9027268240543478,0.2309176156382167,6.790000000037253
311830.6707,7.124687700608169,-1.0325494313324777,1.679654650078221,0.5767434603029519,6.791000000026543
311830.6717,6.1786965662488065,-0.7540894731422937,1.4749478126733613,0.9773086344781646,6.7920000000158325
311830.6727,5.135514230166965,-0.4849027726628852,1.2474745368177906,1.3786666599667199,6.793000000005122
311830.6737,3.963032911390046,-0.2859727681462596,0.9561121173588832,1.7276234480928974,6.793999999994412
311830.6747,2.6356596144317828,-0.2115554662849456,0.5646305142097809,1.9768840653229243,6.794999999983702
311830.6757,1.139008661312038,-0.3036031471595741,0.04616941699281717,2.089682607379252,6.796000000031199
311830.6767,-0.5263524101115803,-0.5872776436644656,-0.6131453059529929,2.043437629262434,6.797000000020489
311830.6777,-2.3425127273269712,-1.0679984198510344,-1.4118173478539249,1.8320677129595198,6.798000000009779
311830.6787,-4.273463310827361,-1.730325118436142,-2.3320801586920217,1.466730323147213,6.798999999999069
311830.6797,-6.266099574729978,-2.538798977629507,-3.3405894528963884,0.9748995941012333,6.7999999999883585
311830.6807,-8.252932729798633,-3.440679570054121,-4.3906605382689,0.3978602106016346,6.801000000035856
311830.6817,-10.156295395656178,-4.370330989011435,-5.425851915298935,-0.21315073357550088,6.802000000025146
311830.6827,-11.89368060976065,-5.254852666317798,-6.3845646323046354,-0.8017892937253681,6.8030000000144355
311830.6837,-13.383741746648067,-6.020429949762853,-7.205226945864142,-1.311975398790138,6.804000000003725
311830.6847,-14.55241449757494,-6.59881011020501,-7.8315757187830775,-1.6932735966587749,6.804999999993015
311830.6857,-15.338607440587218,-6.933297369237142,-8.217535381893875,-1.9057658319911523,6.805999999982305
311830.6867,-15.69894623151755,-6.983707021016403,-8.331233229555664,-1.9239458892554702,6.807000000029802
311830.6877,-15.611144262230797,-6.729819232943991,-8.15777259605312,-1.7392586835225998,6.808000000019092
311830.6887,-15.07570115548124,-6.173017841537335,-7.700504967140735,-1.3610380178636017,6.809000000008382
311830.6897,-14.115787134315068,-5.335974288165938,-6.980686620843241,-0.8157510779616043,6.809999999997672
311830.6907,-12.775340838433014,-4.260424706478138,-6.0355608218042684,-0.14462173982725804,6.8109999999869615
311830.6917,-11.115574063693527,-3.0032707578942035,-4.915057712799643,0.600138253525296,6.812000000034459
311830.6927,-9.210223079144859,-1.6313943231725592,-3.677436086392848,1.3601263657907234,6.813000000023749
311830.6937,-7.139998513058949,-0.21569708014780994,-2.3842912903410407,2.0761112187720085,6.8140000000130385
311830.6947,-4.986753539956752,1.175053393797202,-1.095411877207357,2.693441622235409,6.815000000002328
311830.6957,-2.8279068975013546,2.479975846972504,0.13602139551155126,3.1669808557700487,6.815999999991618
311830.6967,-0.7316217895111838,3.6508755365620993,1.2674379718244655,3.4650911610055664,6.816999999980908
311830.6977,1.2468421976703632,4.6556405423540745,2.2697070448993295,3.572286451640573,6.818000000028405
311830.6987,3.0673108590773457,5.4799249070456835,3.128538454826352,3.490301500052453,6.819000000017695
311830.6997,4.705268759264086,6.126981720455992,3.84434242518887,3.2374806228489126,6.820000000006985
311830.7007,6.150845742992006,6.615694581978617,4.43058959535428,2.846553084759765,6.820999999996275
311830.7017,7.406397630605869,6.977035831099697,4.910862302407644,2.361020072887568,6.8219999999855645
311830.7027,8.483001876954788,7.249336803117992,5.314918374495227,1.8305138018966423,6.823000000033062
311830.7037,9.396294985921408,7.4728736838834475,5.674186979634237,1.305589867258472,6.824000000022352
311830.7047,10.162140291549578,7.68434061890962,6.017172631574149,0.8324695569782142,6.8250000000116415
311830.7057,10.792626251030768,7.911792818793951,6.365252674399878,0.44825402047372837,6.826000000000931
311830.7067,11.292855557406277,8.170595327301179,6.72931447513994,0.1770864324468505,6.826999999990221
311830.7077,11.658898198728723,8.460812429426452,7.107594910408709,0.027645986982675938,6.828000000037719
311830.7087,11.877155817030514,8.766328204116316,7.484964675480316,-0.007772354961748161,6.829000000027008
311830.7097,11.925232972187043,9.055814629119515,7.833755194578021,0.04750662930641715,6.830000000016298
311830.7107,11.77424843536825,9.285477033814063,8.116070638871879,0.15692174651099017,6.831000000005588
311830.7117,11.392362788983778,9.403325960087859,8.287377000400845,0.27445273330022285,6.831999999994878
311830.7127,10.749163262587222,9.354567500325311,8.301029143620477,0.3494294111734468,6.8329999999841675
311830.7137,9.820446682280567,9.087586526808245,8.113298211526496,0.33190786961376584,6.834000000031665
311830.7147,8.592887000992182,8.559930684747526,7.688405512624271,0.1780911740430094,6.835000000020955
311830.7157,7.068070965856841,7.743694385365513,7.0030607664714735,-0.14473512998090998,6.8360000000102445
311830.7167,5.265434835845061,6.629752435895508,6.050043375299335,-0.6542384159868492,6.836999999999534
311830.7177,3.223732271321339,5.230397720668808,4.840451469673715,-1.350439910832738,6.837999999988824
311830.7187,1.0007993915265185,3.580086496575122,3.4043666717749357,-2.2147464656623037,6.839000000036322
311830.7197,-1.3284555294862406,1.7341740069133573,1.789831017263154,-3.2107233593811872,6.840000000025611
311830.7207,-3.675738852537334,-0.2342851027670462,0.06019197188887584,-4.286552428156733,6.841000000014901
311830.7217,-5.944471373286631,-2.2394112932640207,-1.7099734300101055,-5.378959131851571,6.842000000004191
311830.7227,-8.035896023302069,-4.18862757091923,-3.440008609940786,-6.418252200897879,6.842999999993481
311830.7237,-9.855683686824609,-5.989495973223023,-5.04895176487663,-7.334013724666544,6.8439999999827705
311830.7247,-11.32047007497025,-7.556649052344344,-6.4614239828246784,-8.060916082870023,6.845000000030268
311830.7257,-12.363752598273622,-8.818190737091683,-7.613108410240943,-8.544130811608264,6.846000000019558
311830.7267,-12.940626159533814,-9.720989143460894,-8.45533504489431,-8.743834292910304,6.847000000008848
311830.7277,-13.030936227313633,-10.234387210117683,-8.958368983211484,-8.638402067505922,6.847999999998137
311830.7287,-12.640567124057883,-10.35200545997285,-9.113121076667236,-8.226009051039668,6.848999999987427
311830.7297,-11.800749957485923,-10.091490361622814,-8.931147227790731,-7.524504732377888,6.850000000034925
311830.7307,-10.565452217904351,-9.492254347930253,-8.442961756751327,-6.569595791519058,6.851000000024214
311830.7317,-9.007082864864156,-8.611440934360813,-7.694846049403731,-5.4115276726791235,6.852000000013504
311830.7327,-7.210896409739125,-7.518512500639303,-6.744471087693038,-4.110596142046317,6.853000000002794
311830.7337,-5.2685928909164845,-6.288983390977288,-5.655758324656599,-2.7319263746129696,6.853999999992084
311830.7347,-3.2716770782204825,-4.99789511791048,-4.493467665428611,-1.3400205387952882,6.8549999999813735
311830.7357,-1.305153618978594,-3.7136466767305003,-3.318018094744644,0.00641069342946205,6.856000000028871
311830.7367,0.5579058393021378,-2.4927499987336397,-2.181014439612039,1.2588528685306468,6.857000000018161
311830.7377,2.2604780267835185,-1.3759828663840394,-1.1218763263420277,2.3822306864660425,6.858000000007451
311830.7387,3.7640717504859147,-0.38626897511792246,-0.1658504526845863,3.356710884728637,6.85899999999674
311830.7397,5.0494250103304354,0.47155859992994303,0.6764536480549757,4.177932513476362,6.85999999998603
311830.7407,6.1154322990549606,1.209141381648944,1.408017120496323,4.8556892274607275,6.861000000033528
311830.7417,6.976486270679746,1.8513401609595268,2.0430171744102705,5.411241339938696,6.862000000022817
311830.7427,7.658564981278232,2.431713424356246,2.603378894367362,5.873569356824142,6.863000000012107
311830.7437,8.194508457036088,2.987224237097509,3.1146691633358277,6.274982394758775,6.864000000001397
311830.7447,8.61899579764082,3.552741919545733,3.601788877542791,6.646554374308825,6.864999999990687
311830.7457,8.963750211242745,4.155919638850051,4.0849336637951135,7.013872461503901,6.866000000038184
311830.7467,9.253463183615766,4.812985721257546,4.576259714182504,7.393544959735579,6.867000000027474
311830.7477,9.502844432511958,5.525889554185049,5.077613673558873,7.790833629604642,6.868000000016764
311830.7487,9.715080141041746,6.281102155404527,5.579571667405945,8.198656593649387,6.869000000006054
311830.7497,9.881830808794433,7.0502009177878024,6.061894037761518,8.598064549489953,6.869999999995343
311830.7507,9.984737120258329,7.792184695916521,6.495353101268256,8.96013939034538,6.870999999984633
311830.7517,9.998243826137005,8.457287538995592,6.844746258214917,9.249115946774749,6.872000000032131
311830.7527,9.89341358262728,8.99190469848903,7.072780647669998,9.426399328978848,6.87300000002142
311830.7537,9.64229875915661,9.344128463297386,7.144420983336136,9.455055178991756,6.87400000001071
311830.7547,9.22237976177167,9.469325505728762,7.031238818738541,9.304297672138855,6.875
311830.7557,8.62056935877997,9.335178410349672,6.715294805381924,8.953495735942717,6.87599999998929
311830.7567,7.836324762422435,8.925662945556184,6.192126421396604,8.39526230284299,6.877000000036787
311830.7577,6.883498642378519,8.243534744713871,5.472498330490748,7.637280252794966,6.878000000026077
311830.7587,5.790687961466016,7.311044442962451,4.582692788696803,6.702643364488895,6.879000000015367
311830.7597,4.599992848419811,6.168774723020385,3.563261589824245,5.628638816872992,6.880000000004657
311830.7607,3.3642613993909363,4.872679010044982,2.466314752588816,4.464054911481625,6.880999999993946
311830.7617,2.1430539956391255,3.489581349003212,1.3515692986498482,3.265248115559953,6.881999999983236
311830.7627,0.9976966390499173,2.091552503874482,0.2815093148372383,2.0913322380528205,6.883000000030734
311830.7637,-0.01410677014073554,0.7496930700693034,-0.6838967799207674,0.9989465982345657,6.884000000020023
311830.7647,-0.8435786199589561,-0.4720812243164084,-1.4924238556605405,0.0371098383012377,6.885000000009313
311830.7657,-1.455560522796196,-1.522650448715405,-2.10426090014005,-0.7573337126555605,6.885999999998603
311830.7667,-1.8321164538007513,-2.3681485774987534,-2.495668584860342,-1.3632179261269695,6.886999999987893
311830.7677,-1.9746645999082792,-2.9948263539422397,-2.6612572618977772,-1.777147014205816,6.88800000003539
311830.7687,-1.9043922420395365,-3.410027097314509,-2.614645753973137,-2.0139456428613243,6.88900000002468
311830.7697,-1.6608695869301286,-3.6411637504578316,-2.3874124162130834,-2.105392387581893,6.89000000001397
311830.7707,-1.2989502676998452,-3.7327776779073827,-2.026411012348186,-2.0973264788606443,6.89100000000326
311830.7717,-0.884211593980054,-3.7419453978337716,-1.5896794294486873,-2.0453753465275044,6.891999999992549
311830.7727,-0.48733044705398165,-3.732460499664865,-1.1413041026251798,-2.009685676003308,6.892999999981839
311830.7737,-0.17789699252786523,-3.7683387357832276,-0.7457041312845833,-2.049140299836071,6.894000000029337
311830.7747,-0.01822761629695918,-3.90726282655068,-0.46185656597797703,-2.2155974277838695,6.8950000000186265
311830.7757,-0.057744688299546126,-4.19459306296706,-0.3379925476806479,-2.5486919972857134,6.896000000007916
311830.7767,-0.32844304070828184,-4.658519214454105,-0.4072519591703732,-3.071690739871095,6.896999999997206
311830.7777,-0.8418657361949441,-5.306823254234468,-0.6846959176494292,-3.7887973162750233,6.897999999986496
311830.7787,-1.587873917457501,-6.1255710745752525,-1.1659501861377974,-4.684170534860651,6.899000000033993
311830.7797,-2.5353303119763755,-7.079869148675947,-1.8276004552466318,-5.722759886183091,6.900000000023283
311830.7807,-3.6346390209237573,-8.116626472178359,-2.6292969867128893,-6.852893522575362,6.901000000012573
311830.7817,-4.82191240181235,-9.16907185851615,-3.5173669410349455,-8.010390515456914,6.902000000001863
311830.7827,-6.0243855353991185,-10.162610031260158,-4.429593032914894,-9.123827314139902,6.902999999991152
311830.7837,-7.166584262877711,-11.02147293843607,-5.300710274108386,-10.12048133196538,6.90400000003865
311830.7847,-8.17668496205511,-11.675547471267743,-6.068108599408426,-10.93241266134983,6.90500000002794
311830.7857,-8.992489483942746,-12.066744469885501,-6.677214101477318,-11.502133891884524,6.9060000000172295
311830.7867,-9.566478274469544,-12.15431802377532,-7.08605667553794,-11.787358801364139,6.907000000006519
311830.7877,-9.869494719059867,-11.918644285564048,-7.268613512785255,-11.764409255879722,6.907999999995809
311830.7887,-9.892745394907971,-11.363115577310968,-7.2166380210619865,-11.429987360236389,6.908999999985099
311830.7897,-9.647961440018992,-10.513984294400887,-6.9398306435856565,-10.801174376026283,6.910000000032596
311830.7907,-9.165740149670603,-9.41818474799881,-6.464367399203425,-9.913684270728849,6.911000000021886
311830.7917,-8.492256450140221,-8.139350980586746,-5.829958336591037,-8.818561989819163,6.912000000011176
311830.7927,-7.684684718762802,-6.752416500021513,-5.085746384564108,-7.577659130719562,6.913000000000466
311830.7937,-6.805788127199075,-5.337311745368636,-4.285464009725937,-6.258329083253405,6.9139999999897555
311830.7947,-5.918204247965639,-3.9723545972672323,-3.4823304805503854,-4.927849600396907,6.915000000037253
311830.7957,-5.0789754724669045,-2.7279509779286646,-2.724190288007866,-3.6480971516921192,6.916000000026543
311830.7967,-4.334839288127037,-1.6611847890333449,-2.04936196081314,-2.4709630994720424,6.9170000000158325
311830.7977,-3.7187102960089105,-0.8117831445097273,-1.4835895103820806,-1.4349204689538757,6.918000000005122
311830.7987,-3.2476614926624885,-0.1998034945616648,-1.0383738772774687,-0.5630301549781512,6.918999999994412
311830.7997,-2.9225592582852227,0.17478231045785902,-0.7108205415693184,0.13747115128324386,6.919999999983702
311830.8007,-2.729339920781918,0.3306187322393006,-0.48498596732661586,0.674017650730582,6.921000000031199
311830.8017,-2.6417522030106637,0.3018073415924655,-0.33455500467417665,1.066167068692307,6.922000000020489
311830.8027,-2.625245455146797,0.133415431940908,-0.22654866696210826,1.3419666740105736,6.923000000009779
311830.8037,-2.6415725305826405,-0.1238644081279033,-0.1256599329328576,1.533644031235642,6.923999999999069
311830.8047,-2.6536093480723393,-0.419344352396586,0.0012455953132539666,1.6730954260042605,6.9249999999883585
311830.8057,-2.629877053242522,-0.7076817239490417,0.18094128003010176,1.7876583068271654,6.926000000035856
311830.8067,-2.5482886653606247,-0.9533885378410417,0.4304061458678568,1.8966182097694957,6.927000000025146
311830.8077,-2.398726407733539,-1.1340610629885448,0.7545106448459213,2.0088192778824916,6.9280000000144355
311830.8087,-2.1841800056661578,-1.2420167810828993,1.145069795534283,2.1216289657267566,6.929000000003725
311830.8097,-1.9203275739175243,-1.2841932968923393,1.5813711889751885,2.221363823675737,6.929999999993015
311830.8107,-1.6336040727207015,-1.2803447711800342,2.032133448943625,2.2851288709904307,6.930999999982305
311830.8117,-1.3579612516225377,-1.2597481455840462,2.4587029204022297,2.283873530235469,6.932000000029802
311830.8127,-1.1306615143268994,-1.2567861110003014,2.819167422976563,2.186337463107899,6.933000000019092
311830.8137,-0.9875522307364119,-1.305890952734954,3.072968773438493,1.9634629974453819,6.934000000008382
311830.8147,-0.9583261040534409,-1.4364013446772432,3.1855402439356775,1.5927969726816567,6.934999999997672
311830.8157,-1.0622811389166806,-1.667896019159523,3.132486868252066,1.0623993161816674,6.9359999999869615
311830.8167,-1.3050494916800004,-2.0065227408457456,2.9028665563786964,0.3738192556884748,6.937000000034459
311830.8177,-1.676672144064496,-2.442742590414517,2.50121457619708,-0.45621134718556156,6.938000000023749
311830.8187,-2.151264845525367,-2.950767904080978,1.9480749512884188,-1.3955930921402255,6.9390000000130385
311830.8197,-2.688362959368706,-3.4898013090491355,1.2789479367019887,-2.3982590028742066,6.940000000002328
311830.8207,-3.235864231925934,-4.007000060735262,0.5417187406812104,-3.407077218344342,6.940999999991618
311830.8217,-3.734325740267019,-4.441912506804487,-0.2072162389902994,-4.358021905005308,6.941999999980908
311830.8227,-4.122230533289716,-4.73197963469086,-0.9077780733209514,-5.185246855427855,6.943000000028405
311830.8237,-4.341734858878195,-4.818579704004629,-1.5015427139952846,-5.826599653013803,6.944000000017695
311830.8247,-4.344348995361878,-4.653029550044403,-1.9370850794521681,-6.2290619127741795,6.945000000006985
311830.8257,-4.095999687135873,-4.2019489748277055,-2.1748201310453186,-6.3535984352782355,6.945999999996275
311830.8267,-3.580970993681758,-3.451445832257197,-2.1908730179709845,-6.178945772161349,6.9469999999855645
311830.8277,-2.8043187164327925,-2.4096843633119924,-1.9795977329808465,-5.703964412858162,6.948000000033062
311830.8287,-1.7924923280588478,-1.1075481608377247,-1.5544884683197437,-4.948309760716293,6.949000000022352
311830.8297,-0.5920643627496229,0.40271237923181724,-0.9473781110395547,-3.9513327954250874,6.9500000000116415
311830.8307,0.7333553271656099,2.0507673171945413,-0.20597966362512793,-2.7692868715323744,6.951000000000931
311830.8317,2.107771244190876,3.7531634045992432,0.6100167182872042,-1.4710765128601901,6.951999999990221
311830.8327,3.4486211006947425,5.419522627628463,1.4339410794851863,-0.13292189461786594,6.953000000037719
311830.8337,4.67325035794621,6.959435190195255,2.1977810413673398,1.1675844396222594,6.954000000027008
311830.8347,5.705466039976996,8.289429535243642,2.837943544675363,2.357494250824521,6.955000000016298
311830.8357,6.4815828084821066,9.339391103657654,3.3006131221387314,3.3740522048929886,6.956000000005588
311830.8367,6.955419227659123,10.057850561159647,3.5462170587444746,4.1692793996423125,6.956999999994878
311830.8377,7.10179851164222,10.415666664957737,3.5525927478784625,4.713186636388929,6.9579999999841675
311830.8387,6.918246720581322,10.407778877964978,3.3165760921805387,4.995342636326588,6.959000000031665
311830.8397,6.424749127269773,10.052885905458105,2.853880000690379,5.024678794890475,6.960000000020955
311830.8407,5.661606245779488,9.391101101331966,2.197294365533078,4.827579376270118,6.9610000000102445
311830.8417,4.685607442291155,8.479825371020862,1.3933976387197489,4.444468103688374,6.961999999999534
311830.8427,3.5648951819042525,7.388244446388183,0.4981098947589214,3.925243226165526,6.962999999988824
311830.8437,2.3730119008590114,6.190984134761202,-0.4284754697783359,3.3240196943481135,6.964000000036322
311830.8447,1.1826928343368075,4.961532086309127,-1.3274798338502518,2.693698773467508,6.965000000025611
311830.8457,0.05998509894265633,3.766050549925538,-2.146330275323422,2.080896346140813,6.966000000014901
311830.8467,-0.9407655666442212,2.658160014858518,-2.8430713133392262,1.5217203464893945,6.967000000004191
311830.8477,-1.7806098200910074,1.6751729834900044,-3.38949722602124,1.038799301383251,6.967999999993481
311830.8487,-2.4380546672243684,0.8361102888966079,-3.7728251078979116,0.6398365659603674,6.9689999999827705
311830.8497,-2.9093350536365206,0.14165377569444798,-3.9957759486318665,0.31781105873779014,6.970000000030268
311830.8507,-3.2069210605029586,-0.4240036675821119,-4.075090295560309,0.052780231241096966,6.971000000019558
311830.8517,-3.356458283917676,-0.8896378750749642,-4.038660780858045,-0.18491914856282518,6.972000000008848
311830.8527,-3.392491957206925,-1.2921950952044141,-3.921600588595985,-0.4304163431459578,6.972999999998137
311830.8537,-3.353442768590846,-1.6712333405215019,-3.761671322548943,-0.7194472643206669,6.973999999987427
311830.8547,-3.276372682232835,-2.0631950218979243,-3.594555431568421,-1.0834000492810962,6.975000000034925
311830.8557,-3.192095563672857,-2.496117400863517,-3.4494712935900513,-1.5447852179216475,6.976000000024214
311830.8567,-3.121148510181752,-2.9853418408262713,-3.345592008813634,-2.113608383198847,6.977000000013504
311830.8577,-3.0710494088605684,-3.530681295033193,-3.2896456096704227,-2.7850343179653696,6.978000000002794
311830.8587,-3.0351333713627797,-4.115357921484659,-3.274953046814282,-3.5386032382172687,6.978999999992084
311830.8597,-2.9930984901470405,-4.706843686345381,-3.282013014203199,-4.339105995311167,6.9799999999813735
311830.8607,-2.9132158867188744,-5.259543947302833,-3.2805840734204503,-5.139059610654852,6.981000000028871
311830.8617,-2.7559876526457785,-5.719076321423671,-3.233060407897528,-5.882564465359028,6.982000000018161
311830.8627,-2.4788860018376466,-6.027733179385798,-3.098803242267386,-6.5101852097708,6.983000000007451
311830.8637,-2.041692676935593,-6.130592104721577,-2.838988922856659,-6.964392781403972,6.98399999999674
311830.8647,-1.4118907714924995,-5.981666945986096,-2.421477027404361,-7.195045131518067,6.98499999998603
311830.8657,-0.5695483789037634,-5.549479889493252,-1.8251935368854526,-7.164375286235708,6.986000000033528
311830.8667,0.48882371967368177,-4.821483682638902,-1.0435660826512527,-6.85099816340393,6.987000000022817
311830.8677,1.7478637953241014,-3.806868170681605,-0.08663663668623256,-6.2525380265452215,6.988000000012107
311830.8687,3.172687056024053,-2.537436582916125,1.018396779885598,-5.386607822311718,6.989000000001397
311830.8697,4.710070469118146,-1.0664198957857254,2.2283060015912888,-4.290027364032773,6.989999999990687
311830.8707,6.291436340145574,0.5347056127414573,3.4865602976954833,-3.0163342748580217,6.991000000038184
311830.8717,7.837401850800124,2.1811409141657436,4.727432236873388,-1.6318035910122344,6.992000000027474
311830.8727,9.26350849711994,3.7810023887276847,5.881121548222815,-0.21033325177757495,6.993000000016764
311830.8737,10.486628381851235,5.2423233846789605,6.879433784433264,1.1723402951038884,6.994000000006054
311830.8747,11.431474993355291,6.4801917297110885,7.661491831161035,2.444569764178147,6.994999999995343
311830.8757,12.036631201300638,7.423380264267877,8.17894954382151,3.544329547323754,6.995999999984633
311830.8767,12.259548180545355,8.019873217543813,8.400219020975449,4.423854372832084,6.997000000032131
311830.8777,12.080061878161887,8.240793761805863,8.313312274289519,5.0529726712935625,6.99800000002142
311830.8787,11.502109474709616,8.082387387804214,7.927025789673832,5.420849364359364,6.99900000001071
311830.8797,10.553493927880659,7.56589735196805,7.270350417259235,5.536005433329611,7.0
311830.8807,9.28372414105709,6.7353647654132915,6.390154365917239,5.424645811699039,7.00099999998929
311830.8817,7.760134302134601,5.653577960683319,5.347347903748756,5.127486868717803,7.002000000036787
311830.8827,6.062641622576029,4.396565097758738,4.211879226943692,4.695414501099378,7.003000000026077
311830.8837,4.277622252302499,3.04715434973453,3.05701835980095,4.184410139276834,7.004000000015367
311830.8847,2.4914592155466955,1.688205089284537,1.9534496573991202,3.650244652829129,7.005000000004657
311830.8857,0.7843370440107135,0.3961339766030416,0.9637075203009031,3.143453380659558,7.005999999993946
311830.8867,-0.7751761715030933,-0.7646798307062191,0.13745314129538344,2.705068372241404,7.006999999983236
311830.8877,-2.1343035396619094,-1.746121647615926,-0.4919937467901996,2.3635004249362166,7.008000000030734
311830.8887,-3.258662376949173,-2.5188533269775006,-0.9095767580728175,2.1328422082261023,7.009000000020023
311830.8897,-4.133123582341563,-3.072936830409308,-1.1187363418035314,2.012716941855108,7.010000000009313
311830.8907,-4.760926056443128,-3.416583829030493,-1.139974326885549,1.9896394795455696,7.010999999998603
311830.8917,-5.161212464256508,-3.5732299801685135,-1.0079269432498366,2.0397039957038237,7.011999999987893
311830.8927,-5.365300911223416,-3.577294526373144,-0.7672629170146051,2.1322799876197323,7.01300000003539
311830.8937,-5.412121638512069,-3.4691098739396122,-0.4678302586640939,2.234299150592967,7.01400000002468
311830.8947,-5.343317695371583,-3.289579779188833,-0.15954006286147204,2.314659670363401,7.01500000001397
311830.8957,-5.1985272605578565,-3.075141647252027,0.11250797706133432,2.3482671002871105,7.01600000000326
311830.8967,-5.011331523605526,-2.853566857869813,0.31218681181320385,2.3192728824735114,7.016999999992549
311830.8977,-4.806269690182945,-2.6410374139173287,0.41539763264322777,2.223158440297231,7.017999999981839
311830.8987,-4.597200458540808,-2.4407973658787716,0.4117443968329942,2.067435820566523,7.019000000029337
311830.8997,-4.387139886491337,-2.243507598907754,0.3046949125734524,1.8708826710348359,7.0200000000186265
311830.9007,-4.1695442691577975,-2.02924986729871,0.11025094985293987,1.6613850742151552,7.021000000007916
311830.9017,-3.9308499630824048,-1.770948900837419,-0.14569894468667938,1.4726106604443114,7.021999999997206
311830.9027,-3.6539460121100618,-1.4388279223161724,-0.43103766601346344,1.3398613639652803,7.022999999986496
311830.9037,-3.322153854126361,-1.0053986161662736,-0.7116817034783821,1.2955471779431793,7.024000000033993
311830.9047,-2.923231736354617,-0.4504232084413261,-0.9559809980732539,1.3647697600415503,7.025000000023283
311830.9057,-2.4529156397385643,0.23471945872708927,-1.1387786559280313,1.5615025940387446,7.026000000012573
311830.9067,-1.9175542910132604,1.0437791945383168,-1.2446896562876888,1.885802411595941,7.027000000001863
311830.9077,-1.3354887979036267,1.9538999525014946,-1.2702395495506218,2.322389483657711,7.027999999991152
311830.9087,-0.7369583715172223,2.9256645701297668,-1.2246226764294204,2.8408014915584365,7.02900000003865
311830.9097,-0.16246941520957112,3.904999146864733,-1.1289828070774544,3.397169900824297,7.03000000002794
311830.9107,0.3402697131356004,4.826827648085139,-1.0142729668974366,3.9375043719258556,7.0310000000172295
311830.9117,0.720588431358448,5.620185163624641,-0.9179001789242556,4.4022159085149495,7.032000000006519
311830.9127,0.9298743885384035,6.214341927351848,-0.8794899560128908,4.7314786024117215,7.032999999995809
311830.9137,0.926884409191889,6.545375494778202,-0.9362015947222949,4.870936179003863,7.033999999985099
311830.9147,0.6828069405195327,6.562567173594456,-1.1180788548019691,4.777212716070523,7.035000000032596
311830.9157,0.18554159191218877,6.2339975486413115,-1.4439258506236237,4.422692023897204,7.036000000021886
311830.9167,-0.5572803786304287,5.550775552433673,-1.9181540924886917,3.7990873125068925,7.037000000011176
311830.9177,-1.5169037611169607,4.529450888028529,-2.528957610087393,2.919426936325726,7.038000000000466
311830.9187,-2.6439084341813195,3.2123201389008087,-3.2480474505984716,1.8182235924473773,7.0389999999897555
311830.9197,-3.870571709551245,1.665527577161296,-4.032026697069131,0.549760059360565,7.040000000037253
311830.9207,-5.1150058340625035,-0.024935523556532432,-4.825327085815556,-0.8154013095896764,7.041000000026543
311830.9217,-6.286770844339174,-1.7590336508161104,-5.564473935798409,-2.1954121821395356,7.0420000000158325
311830.9227,-7.2935164495794975,-3.4298227453842647,-6.1833125659373795,-3.503219910666566,7.043000000005122
311830.9237,-8.048099637837774,-4.931322137081068,-6.6187298223514635,-4.6532180884708225,7.043999999994412
311830.9247,-8.47556795845294,-6.166453003708515,-6.816348659444732,-5.5678904445878015,7.044999999983702
311830.9257,-8.519397865114426,-7.054362236577428,-6.735667577969329,-6.18386942502245,7.046000000031199
311830.9267,-8.146433689296918,-7.536502099241582,-6.354160991395783,-6.456881409200376,7.047000000020489
311830.9277,-7.350080893707172,-7.580945722665879,-5.6699472593415505,-6.365150094141659,7.048000000009779
311830.9287,-6.15145738267085,-7.1845759936775595,-4.702759685583227,-5.910968749647287,7.048999999999069
311830.9297,-4.598384919831977,-6.372975907148391,-3.493110043528637,-5.120317636872255,7.0499999999883585
311830.9307,-2.7622924983203307,-5.198053980704574,-2.0996994813909677,-4.040579219336482,7.051000000035856
311830.9317,-0.7332870732457292,-3.7336394952435823,-0.5952922146919016,-2.7365742188610183,7.052000000025146
311830.9327,1.3861927686721998,-2.069460221772332,0.9385920711435717,-1.2852900335595068,7.0530000000144355
311830.9337,3.4886027972438494,-0.30405331743394765,2.41770408170427,0.23021434641726193,7.054000000003725
311830.9347,5.4687891479424025,1.4627544958032614,3.761282460870606,1.7271764153811056,7.054999999993015
311830.9357,7.231128596163305,3.1371361293916475,4.897922380814098,3.1292065001253104,7.055999999982305
311830.9367,8.695728481828999,4.637698131446086,5.7705911006212505,4.37154649871702,7.057000000029802
311830.9377,9.803195757830618,5.9005295109937945,6.340369893661417,5.405072810706955,7.058000000019092
311830.9387,10.517622334122912,6.8824780967988834,6.588623880940532,6.198732906274304,7.059000000008382
311830.9397,10.827601759501148,7.562443678545767,6.517450167727015,6.740259932189578,7.059999999997672
311830.9407,10.745274104325953,7.940670124953326,6.148415797350661,7.035176802739305,7.0609999999869615
311830.9417,10.303574259763606,8.036209171247375,5.519754832854784,7.10426411518051,7.062000000034459
311830.9427,9.552016826855628,7.8828981656586,4.682333189356282,6.97980923145527,7.063000000023749
311830.9437,8.55147353824547,7.524326519026948,3.694797392162589,6.701063305052456,7.0640000000130385
311830.9447,7.368475497005041,7.008348456434864,2.618389130959334,6.309398604044838,7.065000000002328
311830.9457,6.0695958134826995,6.381725452230752,1.5119253744600245,5.843674251828551,7.065999999991618
311830.9467,4.716437089358877,5.685448655344545,0.42741267586155607,5.336283461503116,7.066999999980908
311830.9477,3.3616665863271846,4.95120372699359,-0.5933122717705689,4.810273462356818,7.068000000028405
311830.9487,2.0464186796022283,4.199307264094125,-1.5206377428681865,4.277809178239611,7.069000000017695
311830.9497,0.7992321917088112,3.438279254083952,-2.3377893598689807,3.740105615403574,7.070000000006985
311830.9507,-0.36347500002425726,2.666036729586984,-3.04001263096356,3.1887966544760404,7.070999999996275
311830.9517,-1.4355533567137537,1.872518247318383,-3.6324861573929144,2.6085553611507364,7.0719999999855645
311830.9527,-2.4181922458502974,1.0433948226281007,-4.127255218827658,1.9806483537637543,7.073000000033062
311830.9537,-3.316322854738641,0.1644060934397068,-4.539573319541307,1.2870074816436055,7.074000000022352
311830.9547,-4.134826070471101,-0.7742074280139939,-4.884096109545567,0.5143460239721376,7.0750000000116415
311830.9557,-4.875030738318868,-1.7737172687724503,-5.171382291514926,-0.34216055635952575,7.076000000000931
311830.9567,-5.531948852234255,-2.8238613961948715,-5.405118774175634,-1.2760668197240541,7.076999999990221
311830.9577,-6.092607941336422,-3.901138960424374,-5.58040629345603,-2.268072149605132,7.078000000037719
311830.9587,-6.535716189269051,-4.968704028838717,-5.683325240168304,-3.285883184824681,7.079000000027008
311830.9597,-6.832745529105858,-5.977948152334185,-5.691861327384226,-4.285600023435385,7.080000000016298
311830.9607,-6.95035755624631,-6.87168123918779,-5.578121227671496,-5.2145439854248155,7.081000000005588
311830.9617,-6.853943107166524,-7.588646583658761,-5.311624633090444,-6.01529276372504,7.081999999994878
311830.9627,-6.511914678815489,-8.068956710233143,-4.863336049415177,-6.630558503153603,7.0829999999841675
311830.9637,-5.900295241798519,-8.259927310755648,-4.210009762809315,-7.008448914842349,7.084000000031665
311830.9647,-5.0070975971255605,-8.121728446352513,-3.3383742919157893,-7.107600757962686,7.085000000020955
311830.9657,-3.835990817282104,-7.632271791128286,-2.2486835293774927,-6.901674330917049,7.0860000000102445
311830.9667,-2.408804907298561,-6.790810734482934,-0.9572111943648287,-6.382747522259842,7.086999999999534
311830.9677,-0.766526798267089,-5.619841548819327,0.5026411651814464,-5.563244004331178,7.087999999988824
311830.9687,1.0314194561012986,-4.165048149388267,2.0808233302247414,-4.4761632760420875,7.089000000036322
311830.9697,2.9096513203271472,-2.4932154720144957,3.7127513151547338,-3.1735377545155092,7.090000000025611
311830.9707,4.780935864111915,-0.6882295273436148,5.322946174956405,-1.723208808759345,7.091000000014901
311830.9717,6.551634087300341,1.1545330538120606,6.829931851239899,-0.20417338544417116,7.092000000004191
311830.9727,8.12804933243137,2.934964818083148,8.151996720147991,1.2991098279009068,7.092999999993481
311830.9737,9.423147524042284,4.555559175201295,9.213328637100195,2.702964316127337,7.0939999999827705
311830.9747,10.363065970002197,5.928673931212348,9.949983701095434,3.930743701553486,7.095000000030268
311830.9757,10.892831132263588,6.983084216057089,10.315150042280031,4.918533428425723,7.096000000019558
311830.9767,10.98076442349891,7.669240762358234,10.283220151642121,5.619803423156216,7.097000000008848
311830.9777,10.621163694568185,7.962763476696169,9.852284157699406,6.008604019874677,7.097999999998137
311830.9787,9.834996776951257,7.865859155525765,9.044793018248122,6.081030880172224,7.098999999987427
311830.9797,8.668518452867685,7.406541013314217,7.906302166540742,5.854843737375115,7.100000000034925
311830.9807,7.18990716787528,6.635728467090311,6.502377598536052,5.367293348206222,7.101000000024214
311830.9817,5.484195275518747,5.622499231467698,4.913911568193863,4.671374837422702,7.102000000013504
311830.9827,3.64691985557644,4.447933761205661,3.2312383689901005,3.830868054508651,7.103000000002794
311830.9837,1.7770356759788806,3.1981184297422267,1.5475485615034514,2.9146331000215575,7.103999999992084
311830.9847,-0.030303178006700893,1.9569465516371887,-0.047837754009794654,1.9906916972500655,7.1049999999813735
311830.9857,-1.690477263169307,0.7993686089898312,-1.4757673066324692,1.1206368311133483,7.106000000028871
311830.9867,-3.1350829649266214,-0.21430618550021746,-2.6725901461044264,0.3548732206046519,7.107000000018161
311830.9877,-4.316092032539412,-1.0425606586250105,-3.594097031453227,-0.2708961077668527,7.108000000007451
311830.9887,-5.20816272110373,-1.6649284870000822,-4.217748672134187,-0.7376478902623146,7.10899999999674
311830.9897,-5.808947105237971,-2.0822002584555643,-4.5430454534012545,-1.043344370209115,7.10999999998603
311830.9907,-6.137423378711731,-2.3146132049728285,-4.5900564795703325,-1.201593375450087,7.111000000033528
311830.9917,-6.2304617315213475,-2.39825291506097,-4.396293385301967,-1.2388483994353205,7.112000000022817
311830.9927,-6.137990769351731,-2.3800634478085296,-4.0122616944788305,-1.190473315059779,7.113000000012107
311830.9937,-5.9172535831061905,-2.311990525095107,-3.4961367637283383,-1.0961018484976792,7.114000000001397
311830.9947,-5.626717183848679,-2.244858703663471,-2.9080819841615866,-0.9947838991267269,7.114999999990687
311830.9957,-5.320219385550722,-2.222600545516601,-2.304747621559019,-0.9204234358319606,7.116000000038184
311830.9967,-5.041901869027194,-2.277412498622221,-1.7344579752014293,-0.8979751109411682,7.117000000027474
311830.9977,-4.822390975289063,-2.4263130335931082,-1.233515907184213,-0.940782927239398,7.118000000016764
311830.9987,-4.6765575978730825,-2.669433538987951,-0.8239353137951494,-1.0493228183789405,7.119000000006054
311830.9997,-4.603027304712918,-2.9901959755050136,-0.5127656507190996,-1.211464089940338,7.119999999995343
311831.0007,-4.585437277688294,-3.357340763180337,-0.29301268385268286,-1.4042070254272057,7.120999999984633
311831.0017,-4.595264854572531,-3.7285825712979057,-0.14600192230983344,-1.5967013234256646,7.122000000032131
311831.0027,-4.595900062062021,-4.055508820120622,-0.04489107480227891,-1.7542176101650377,7.12300000002142
311831.0037,-4.547516214935158,-4.289211705766207,0.04107109930301094,-1.8426452539793383,7.12400000001071
311831.0047,-4.412219685877215,-4.386071488881704,0.14200959759832715,-1.833033959351895,7.125
311831.0057,-4.158939085515954,-4.31309368165705,0.28310132498886054,-1.7056897057764344,7.12599999998929
311831.0067,-3.7675469552655114,-4.052246958532398,0.48092660490408456,-1.453378240472925,7.127000000036787
311831.0077,-3.2317900124084873,-3.60334761264194,0.7408784769091192,-1.0832773341955373,7.128000000026077
311831.0087,-2.5607284466486004,-2.9851803205967893,1.055900576624335,-0.6174436599820715,7.129000000015367
311831.0097,-1.7785381619470069,-2.234719607922056,1.4066843385167642,-0.09170910261046716,7.130000000004657
311831.0107,-0.9226968140697638,-1.4045044862482066,1.7633039514268776,0.446920228710181,7.130999999993946
311831.0117,-0.040738378295942776,-0.5584017335815189,2.0881182478220115,0.9441367778957286,7.131999999983236
311831.0127,0.8140944610220595,0.233846783324911,2.339637463364268,1.3431197584335586,7.133000000030734
