TimeStamp,ECR,FCR,ECU,FCU,time_index
311879.8797,131.41423877876662,268.9301950341067,133.51690143038624,385.170434769191,56.0
311879.8807,165.69398780733385,302.48470960399334,162.0322583526622,424.7052341935335,56.00099999998929
311879.8817,195.73250826777377,329.0505386171674,186.37022454703686,454.99086823212576,56.00200000003679
311879.8827,220.76811854378744,347.92828086235926,205.95054982606382,475.25419738269824,56.00300000002608
311879.8837,240.1718081332847,358.6317702306323,220.32384837503042,484.9865160691994,56.00400000001537
311879.8847,253.4597745533154,360.89594311428255,229.17800758861208,483.9485858136435,56.00500000000466
311879.8857,260.30239244936644,354.6783189185899,232.34108941472178,472.1687881382851,56.005999999993946
311879.8867,260.529785854948,340.1545848751301,229.78109555706365,449.9352288389991,56.006999999983236
311879.8877,254.1342110181861,317.70892096296603,221.60300330984228,417.78268963132723,56.008000000030734
311879.8887,241.26945103326085,287.91978163233904,208.04346645808738,376.47530242875195,56.00900000002002
311879.8897,222.24738248591564,251.5418713556012,189.46352313924274,326.98572958545464,56.01000000000931
311879.8907,197.53181037502398,209.48501962492594,166.33957141218795,270.47149076617654,56.0109999999986
311879.8917,167.7295953739446,162.79059118080974,139.252777787434,208.24890846885242,56.01199999998789
311879.8927,133.57903276862623,112.60597519073276,108.87698951863187,141.76497613846544,56.01300000003539
311879.8937,95.9354001633595,60.15760008783896,75.96514292119846,72.56731081956784,56.01400000002468
311879.8947,55.75358391485284,6.722835345945042,41.33411025400085,2.272258405308768,56.01500000001397
311879.8957,14.06773111147606,-46.398918336785115,5.847916419507189,-67.46880998425645,56.01600000000326
311879.8967,-28.032041140242697,-97.91567297863709,-29.60071060036488,-135.00492825541818,56.01699999999255
311879.8977,-69.4257155401398,-146.57253686139376,-64.11041424382003,-198.72249256563984,56.01799999998184
311879.8987,-108.99188786194948,-191.1812852763251,-96.79274933635901,-257.0833628812075,56.01900000002934
311879.8997,-145.63818726251375,-230.64937310576238,-126.79487781149308,-308.66349399455214,56.02000000001863
311879.9007,-178.33285368680325,-264.00782675416394,-153.3229407527146,-352.1912228698997,56.021000000007916
311879.9017,-206.1365149674836,-290.4373267870827,-175.66545389036227,-386.5840831943518,56.021999999997206
311879.9027,-228.23302537592068,-309.29167549492996,-193.21591425005008,-410.98279521975394,56.022999999986496
311879.9037,-243.95809364769644,-320.1177547607995,-205.49367849535008,-424.7809201565987,56.02400000003399
311879.9047,-252.82436056341325,-322.67103769933476,-212.16209595206706,-427.6486011243455,56.02500000002328
311879.9057,-254.54159908523275,-316.92573848675494,-213.04286606798354,-419.5488584464126,56.02600000001257
311879.9067,-249.03081359705732,-303.07877993870767,-208.12565168876736,-400.74507861087255,56.02700000000186
311879.9077,-236.4312120098416,-281.54693273885044,-197.57212094888473,-371.798635410503,56.02799999999115
311879.9087,-217.09931070391082,-252.95673131947555,-181.7138100233836,-333.5559985911587,56.02900000003865
311879.9097,-191.59979474120502,-218.1270887778944,-161.04348742921977,-287.1251977393476,56.03000000002794
311879.9107,-160.68817404230728,-178.04489867497526,-136.20004178215973,-233.84208426531433,56.03100000001723
311879.9117,-125.28572331055548,-133.83430029873958,-107.9472863334545,-175.22743088132236,56.03200000000652
311879.9127,-86.44763784736132,-86.72066652023109,-77.14744789879946,-112.93647962360697,56.03299999999581
311879.9137,-45.32574549486801,-37.99071819213932,-44.7304551215552,-48.70304907745681,56.0339999999851
311879.9147,-3.1274542046904727,11.04955445270954,-11.660431776477637,15.719304445271531,56.035000000032596
311879.9157,38.92714334668022,59.11730134542327,21.09899146367912,78.61634396851454,56.036000000021886
311879.9167,79.6479637466588,104.99362409764889,52.61882931641844,138.36964120906205,56.037000000011176
311879.9177,117.91538971083756,147.56091906413627,82.03665280462607,193.50783876865856,56.038000000000466
311879.9187,152.71659631330772,185.83506592271527,108.58468432590219,242.75033112700436,56.038999999989755
311879.9197,183.17612001363125,218.99107567425622,131.612744797653,285.0414739941742,56.04000000003725
311879.9207,208.57941637769937,246.3812070776434,150.60505736344714,319.5740192207643,56.04100000002654
311879.9217,228.3886024525579,267.5450221000218,165.19031722517425,345.8011396759465,56.04200000001583
311879.9227,242.25007313439588,282.21134431850885,175.14487897302251,363.4371043824993,56.04300000000512
311879.9237,249.99417989293357,290.29257175045103,180.38935625564994,372.4473358742042,56.04399999999441
311879.9247,251.62762706960086,291.87224001814417,180.97933858470293,373.0291789612092,56.0449999999837
311879.9257,247.31964093060327,287.18709930113414,177.09127436206538,365.5851894933485,56.0460000000312
311879.9267,237.38327103863895,276.60523185330584,169.00482160451944,350.6910804326443,56.04700000002049
311879.9277,222.25337202266363,260.60187738071824,157.08311022149266,329.0606208219509,56.04800000000978
311879.9287,202.46287619987015,239.7346430262437,141.7523836110792,301.50976582094233,56.04899999999907
311879.9297,178.6189041808403,214.61965579589665,123.48239451427484,268.9221122463913,56.04999999998836
311879.9307,151.38008247456182,185.90998135265065,102.76873208538578,232.21744679677622,56.051000000035856
311879.9317,121.43616439916315,154.27730696269575,80.1179741866254,192.32471721467175,56.052000000025146
311879.9327,89.49071079791082,120.39749809960004,56.0362178400378,150.16025165858974,56.053000000014435
311879.9337,56.24721237642447,84.94022251080557,31.021172587849204,106.61152399856675,56.054000000003725
311879.9347,22.398659907220193,48.56242869592821,5.557638653679579,62.526257850784866,56.054999999993015
311879.9357,-11.379775157408371,11.905102402614972,-19.88413468426627,18.706220989525423,56.055999999982305
311879.9367,-44.43557024782646,-24.407564964102786,-44.84797809453218,-24.095282156392802,56.0570000000298
311879.9377,-76.14201218724456,-59.76765508484063,-68.89016465063068,-65.1734354381737,56.05800000001909
311879.9387,-105.90061234419265,-93.58278958554982,-91.57763244389714,-103.87075946811994,56.05900000000838
311879.9397,-133.14370036592288,-125.27629228528096,-112.48707191258156,-139.57604776465607,56.05999999999767
311879.9407,-157.33802160686224,-154.28921022350104,-131.20576135722126,-171.72449139072154,56.06099999998696
311879.9417,-177.98997746277382,-180.08491745929177,-147.33482601286272,-199.79982937556596,56.06200000003446
311879.9427,-194.65289393552573,-202.15671325993586,-160.49531992767712,-223.33902694384142,56.06300000002375
311879.9437,-206.93640632613563,-220.038469393887,-170.33721017884017,-241.93960989441064,56.06400000001304
311879.9447,-214.51773467555537,-233.31801177478536,-176.55100753529518,-255.26940655446157,56.06500000000233
311879.9457,-217.15432411471906,-241.6525725134539,-178.88146571924838,-263.0781027125304,56.06599999999162
311879.9467,-214.69706400586162,-244.78535056368324,-177.14249106264762,-265.20973016227447,56.06699999998091
311879.9477,-207.10310352384425,-242.56199927530878,-171.23219045845673,-261.61501018481636,56.068000000028405
311879.9487,-194.4471675929513,-234.94573737791615,-161.14685758624796,-252.36237568714333,56.069000000017695
311879.9497,-176.93025736609744,-222.02976795771838,-146.99266792365185,-237.64650681544427,56.070000000006985
311879.9507,-154.88469724923974,-204.04579019068984,-128.99392629366002,-217.79333201014651,56.070999999996275
311879.9517,-128.77466102398512,-181.36759358060164,-107.4968821578001,-193.26065764715057,56.071999999985565
311879.9527,-99.19156006885538,-154.5090176987288,-82.96838457128123,-164.63387439970896,56.07300000003306
311879.9537,-66.84398720729727,-124.11591767328879,-55.98897024762809,-132.616520746047,56.07400000002235
311879.9547,-32.54225523411675,-90.95216709364335,-27.24033845645342,-98.01583335330403,56.07500000001164
311879.9557,2.8220784194821764,-55.88012288384116,2.5124638678691,-61.7237492362519,56.07600000000093
311879.9567,38.30097870941482,-19.836338539528352,32.443474321586194,-24.69411661123108,56.07699999999022
311879.9577,72.91798693590769,16.196386416703014,61.69189117562788,12.082903823050628,56.07800000003772
311879.9587,105.69834431628739,51.21931525050565,89.39059038342474,47.60812468231192,56.07900000002701
311879.9597,135.69984071940797,84.2490171576126,114.69573786490851,80.90113364613545,56.0800000000163
311879.9607,162.04301005955335,114.34810769777448,136.8161041745366,111.02748228369718,56.08100000000559
311879.9617,183.93935231477462,140.65413820885462,155.040735968651,137.12425599334554,56.08199999999488
311879.9627,200.7164046396727,162.4054638580644,168.76377189348136,158.42320481717059,56.08299999998417
311879.9637,211.8386952826462,178.96316708210335,177.5053939962557,174.27084000953676,56.084000000031665
311879.9647,216.9238735585395,189.82840389872194,180.92815882437966,184.14513939608264,56.085000000020955
311879.9657,215.7535935210277,194.65484672376306,178.84823149566657,187.668729341787,56.086000000010245
311879.9667,208.27901407666576,193.2561907878204,171.24132722605842,184.61859891820117,56.086999999999534
311879.9677,194.62104151676866,185.60894673669264,158.24342596491942,174.9325342844066,56.087999999988824
311879.9687,175.0656628582452,171.85093944839093,140.14654860106705,158.7125272854481,56.08900000003632
311879.9697,150.0548862361698,152.27605944416348,117.39005464685874,136.22540917479753,56.09000000002561
311879.9707,120.17391038636778,127.32586353612845,90.54803453354299,107.90089427795435,56.0910000000149
311879.9717,86.13518816007692,97.57859892282552,60.31342421312749,74.32710356076649,56.09200000000419
311879.9727,48.76003460777395,63.73614101657347,27.479471233865887,36.24349532746419,56.09299999999348
311879.9737,8.9583696153827,26.60920758450633,-7.080859499813958,-5.469015044606865,56.09399999998277
311879.9747,-32.292906245798584,-12.898937377877406,-42.43702107640671,-49.80108535112689,56.09500000003027
311879.9757,-73.97250822668937,-53.810222730819895,-77.62412246527876,-95.6315367266016,56.09600000001956
311879.9767,-115.0380406234808,-95.09100389834862,-111.66690604214975,-141.74791333865832,56.09700000000885
311879.9777,-154.44972758937922,-135.6729137080015,-143.60415763697293,-186.871335409546,56.09799999999814
311879.9787,-191.19442324799164,-174.47546003899996,-172.51326638154094,-229.6857928871804,56.09899999998743
311879.9797,-224.3097195615214,-210.43043526379373,-197.534637929734,-268.8717649577374,56.100000000034925
311879.9807,-252.90792066056105,-242.50806624833677,-217.89561185844371,-303.14371815020155,56.101000000024214
311879.9817,-276.19956018611987,-269.7446350953272,-232.9334473423863,-331.2906577610646,56.102000000013504
311879.9827,-293.5160139022749,-291.2710572598682,-242.11683138238968,-352.2185158863557,56.103000000002794
311879.9837,-304.3306189299329,-306.34163925127893,-245.06524654449822,-364.99279127929907,56.103999999992084
311879.9847,-308.2775726522983,-314.3619814480313,-241.56542907565617,-368.87954958846336,56.10499999998137
311879.9857,-305.16776959832043,-314.9147728836291,-231.5840732643221,-363.38268290398383,56.10600000002887
311879.9867,-295.0006638842086,-307.78207316618403,-215.27591275003093,-348.27524463090924,56.10700000001816
311879.9877,-277.9712358513366,-292.9626166203295,-192.98634953806143,-323.622740160343,56.10800000000745
311879.9887,-254.47120745837077,-270.6827229976206,-165.24791680275226,-289.7964748907414,56.10899999999674
311879.9897,-225.0837985685337,-241.39956644739038,-132.77005540922187,-247.47543542988495,56.10999999998603
311879.9907,-190.57154501306871,-205.79583846011974,-96.42195203095072,-197.6356909467858,56.11100000003353
311879.9917,-151.85700099986659,-164.76522930061168,-57.20851660976898,-141.52692136065423,56.11200000002282
311879.9927,-109.99650744092449,-119.38862430766997,-16.239949418833174,-80.63636914557188,56.11300000001211
311879.9937,-66.14760198404707,-70.90143629209672,25.304261839639857,-16.641226763593732,56.1140000000014
311879.9947,-21.531048909470307,-20.65303699733964,66.21569535481649,48.64883662890964,56.11499999999069
311879.9957,22.611152340726285,29.94023014674625,105.30014136408336,113.35668596729217,56.116000000038184
311879.9967,65.06009281258056,79.44651634728379,141.4217153226089,175.607442116009,56.117000000027474
311879.9977,104.6646787871473,126.47211390475621,173.5459386215359,233.59973827551468,56.118000000016764
311879.9987,140.38467691456017,169.71475263262622,200.77972694775758,285.6751639934443,56.119000000006054
311879.9997,171.32997858552616,208.01393416831206,222.40628971917795,330.38257290505277,56.11999999999534
311880.0007,196.794089526496,240.39577014368984,237.91313262876096,366.53414764999576,56.12099999998463
311880.0017,216.2800861635628,266.11002719732033,247.01166125387235,393.2505143428552,56.12200000003213
311880.0027,229.51763339233585,284.65746523035,249.64729012034502,409.9927547036408,56.12300000002142
311880.0037,236.47010904072897,295.8060618958473,245.99944414846453,416.57984147224914,56.12400000001071
311880.0047,237.33140088995196,299.59531392998736,236.4713679559421,413.1907795023222,56.125
311880.0057,232.51249941980774,296.3284559772027,221.6701995791731,400.351524008797,56.12599999998929
311880.0067,222.6185672010224,286.5530978230058,202.3782844498613,378.9075207630231,56.12700000003679
311880.0077,208.4176874684842,271.03140867899833,179.51717017074554,349.9834246177745,56.12800000002608
311880.0087,190.80294563796232,250.701532090168,154.10610384587815,314.932161644753,56.12900000001537
311880.0097,170.74984895963172,226.63236211431263,127.21712821337711,275.275972888773,56.13000000000466
311880.0107,149.27131857967765,199.97412317804995,99.9290244726255,232.6423901233998,56.130999999993946
311880.0117,127.37258080630346,171.90735428755505,73.28237032545117,188.69823239950057,56.131999999983236
311880.0127,106.00823537865509,143.59289534021727,48.23787148514139,145.08467402621238,56.133000000030734
311880.0137,86.04359250968224,116.12531226059208,25.639891985310104,103.35622823075481,56.13400000002002
311880.0147,68.22206098259106,90.4918922289625,6.186768761121206,64.92613456668711,56.13500000000931
311880.0157,53.13995829986207,67.53891361677786,-9.590928645366226,31.020159464124173,56.1359999999986
311880.0167,41.22962913102848,47.946378614793225,-21.343514502584302,2.6402524637960845,56.13699999998789
311880.0177,32.75123315790979,32.2118270408258,-28.906509484051654,-19.461115170264165,56.13800000003539
311880.0187,27.793033511989016,20.643267898493438,-32.29650259363794,-34.795726059112205,56.13900000002468
311880.0197,26.279518137967116,13.360711922418812,-31.69935088777502,-43.14389264999569,56.14000000001397
311880.0207,27.986252101038517,10.30530221231113,-27.451913306147325,-44.54913716756036,56.14100000000326
311880.0217,32.56001792239236,11.254654550896738,-20.018820022611955,-39.30459241845719,56.14199999999255
311880.0227,39.542575564397644,15.842759815589416,-9.965972025680117,-27.932724663350026,56.14299999998184
311880.0237,48.396277377654016,23.58268398680261,2.0674642380566213,-11.16012086638272,56.14400000002934
311880.0247,58.52981038351177,33.89033151917804,15.396858086903805,10.110922918685059,56.14500000001863
311880.0257,69.32250306780954,46.10770860431122,29.318177963115218,34.83241933469117,56.146000000007916
311880.0267,80.14591126865342,59.52441626280848,43.13106307947506,61.84098441168592,56.146999999997206
311880.0277,90.38176414731602,73.39649148011651,56.15801111238333,89.88743380418701,56.147999999986496
311880.0287,99.43577621127278,86.96216207685549,67.75920397256498,117.665113156548,56.14900000003399
311880.0297,106.74727981353965,99.45454681028312,77.34292732984365,143.8368158674202,56.15000000002328
311880.0307,111.79506721627544,110.11177341528895,84.37195742923006,167.06053210989018,56.15100000001257
311880.0317,114.10021545895799,118.18536233227717,88.36665635541902,186.01459251881158,56.15200000000186
311880.0327,113.22696750625276,122.94799591610241,88.90580314098332,199.42298299403188,56.15299999999115
311880.0337,108.78293202843562,123.70193309670478,85.62636763956338,206.08168679299897,56.15400000003865
311880.0347,100.4199225697186,119.78931952796627,78.22348957399842,204.88684111336804,56.15500000002794
311880.0357,87.83667585375667,110.60547758369493,66.45184901100508,194.86527563750658,56.15600000001723
311880.0367,70.78447099493563,95.61594714515587,50.12940986079746,175.20764218969765,56.15700000000652
311880.0377,49.076330569355505,74.37760856246987,29.14419899875921,145.3038738471412,56.15799999999581
311880.0387,22.600046090119505,46.563687421828725,3.4643747263514415,104.78016707989892,56.1589999999851
311880.0397,-8.665230809778327,11.991860810848245,-26.848627264266238,53.53611005486388,56.160000000032596
311880.0407,-44.62961243603975,-29.34589261499466,-61.62456495352573,-8.219961506416842,56.161000000021886
311880.0417,-85.07159284471275,-77.25357783798523,-100.56762966235026,-79.93975648207602,56.162000000011176
311880.0427,-129.6173648469918,-131.3038966113665,-143.2399946849091,-160.71066312978823,56.163000000000466
311880.0437,-177.72235554424634,-190.81594128975428,-189.04749488390468,-249.24105675246943,56.163999999989755
311880.0447,-228.65716536799158,-254.8404932672743,-237.22940190935407,-343.85802911140826,56.16500000003725
311880.0457,-281.5000880720528,-322.1554101235578,-286.85424145929215,-442.51997165126687,56.16600000002654
311880.0467,-335.13819626915995,-391.2732287317555,-336.82340993543863,-542.8458917386973,56.16700000001583
311880.0477,-388.2786009920687,-460.4625486825351,-385.8839912857576,-642.1625703458959,56.16800000000512
311880.0487,-439.47095112264304,-527.784019340291,-432.65166758350546,-737.5697176818148,56.16899999999441
311880.0497,-487.1415600828636,-591.1408780807284,-475.64398850036156,-826.0222038892439,56.1699999999837
311880.0507,-529.6387758402261,-648.3430329885998,-513.3235557935785,-904.4273027468313,56.1710000000312
311880.0517,-565.2883984195374,-697.1827158288185,-544.1499381029276,-969.7537647482666,56.17200000002049
311880.0527,-592.4571549844374,-735.5188202764267,-566.6384126245883,-1019.1485139149855,56.17300000000978
311880.0537,-609.6215261198591,-761.3662554791667,-579.4229886609676,-1050.0559207916162,56.17399999999907
311880.0547,-615.4386354135208,-772.986049495511,-581.3206557849903,-1060.3340152195792,56.17499999998836
311880.0557,-608.8155177608671,-768.9715835868772,-571.3934615491362,-1048.3617259091766,56.176000000035856
311880.0567,-588.9729085658618,-748.3262639620326,-549.0048946768122,-1013.1313095513898,56.177000000025146
311880.0577,-555.49976983758,-710.5281606782253,-513.8671499005534,-954.3205766688776,56.178000000014435
311880.0587,-508.39509629552435,-655.5776611265461,-466.0761842032629,-872.34032469438,56.179000000003725
311880.0597,-448.0941124273776,-584.0249731127951,-406.13202788773935,-768.3535138421964,56.179999999993015
311880.0607,-375.47674875866073,-496.9753243631944,-334.9425570691815,-644.2641054807285,56.180999999982305
311880.0617,-291.857224145657,-396.0708776225604,-253.80982056161605,-502.6750412702352,56.1820000000298
311880.0627,-198.95459860821435,-283.4496360133777,-164.39898470854044,-346.8164736173681,56.18300000001909
311880.0637,-98.84522672401269,-161.68286681469235,-68.69094708859753,-180.44695493696668,56.18400000000838
311880.0647,6.100940079118186,-33.6937370805575,31.07939625385415,-7.731746072810717,56.18499999999767
311880.0657,113.29735525195653,97.33914859239565,132.49643293770498,166.8963863054877,56.18599999998696
311880.0667,220.02762011868288,228.08885658035993,233.04523615889855,338.8876288699428,56.18700000003446
311880.0677,323.5379217426253,355.1929504299689,330.1972489007456,503.7300796105008,56.18800000002375
311880.0687,421.13089768246743,475.36693911618084,421.49625574327365,657.1023517475572,56.18900000001304
311880.0697,510.2567085637122,585.5133956840324,504.6407464089957,795.0172788876414,56.19000000000233
311880.0707,588.5974050979572,682.822225977403,577.5591141976251,913.950852578982,56.19099999999162
311880.0717,654.1412045338242,764.8582406435646,638.4746763491744,1010.951504429905,56.19199999998091
311880.0727,705.2439915655805,829.633036825382,685.958201103538,1083.7260480252583,56.193000000028405
311880.0737,740.6761680008128,875.6591557958654,718.966416311737,1130.6999254067332,56.194000000017695
311880.0747,759.6538263334717,901.9854725196118,736.8657911699212,1151.0507596755576,56.195000000006985
311880.0757,761.8540485156079,908.2137195944367,739.4416624530886,1144.715505396076,56.195999999996275
311880.0767,747.4148739774428,894.4968881743891,726.8934641218846,1112.3726311309968,56.196999999985565
311880.0777,716.9210942992111,861.5209344823712,699.8173719287913,1055.4017021255356,56.19800000003306
311880.0787,671.377486091676,810.4717231293055,659.178066416782,975.8234175955505,56.19900000002235
311880.0797,612.1713766727443,742.9894482138744,606.2715397890405,876.2235826220275,56.20000000001164
311880.0807,541.0265547019627,661.1128995818466,542.6809328293627,759.6646692643614,56.20100000000093
311880.0817,459.9505112163673,567.2159103990454,470.22731036376894,629.5885754834484,56.20199999999022
311880.0827,371.1768585867641,463.9381710733324,390.9171016902332,489.7139695041315,56.20300000003772
311880.0837,277.10456619893614,354.11236814281415,306.8876864265836,343.9312663447252,56.20400000002701
311880.0847,180.2354148295829,240.689350974184,220.35233831678622,196.19788019632492,56.2050000000163
311880.0857,83.1108466555491,126.66278601592002,133.54548845931856,50.43598546850418,56.20600000000559
311880.0867,-11.750792626064804,14.994561550644262,48.66906667495508,-89.56535395215381,56.20699999999488
311880.0877,-101.91573675945247,-91.45792268112676,-32.15945346080104,-220.24213094961374,56.20799999998417
311880.0887,-185.09416143230692,-190.01149853517637,-106.95673479363879,-338.34007695529874,56.209000000031665
311880.0897,-259.1965452037256,-278.2229033169365,-173.92038952560534,-440.99086774404753,56.210000000020955
311880.0907,-322.38605513077755,-353.94920946477714,-231.47224979602314,-525.7786963975072,56.211000000010245
311880.0917,-373.12585944946966,-415.401735721819,-278.29730029190864,-590.7960635886133,56.211999999999534
311880.0927,-410.2201466947638,-461.1920731459693,-313.3773484734131,-634.6876289166883,56.212999999988824
311880.0937,-432.84754324686344,-490.36880902421416,-336.01840282344534,-656.6809845968694,56.21400000003632
311880.0947,-440.58560204851744,-502.4435555811976,-345.8706783982889,-656.6032898730351,56.21500000002561
311880.0957,-433.42511046701924,-497.4050133452185,-342.9401771078972,-634.88286979792,56.2160000000149
311880.0967,-411.77315148459064,-475.7200357812404,-327.59091452045936,-592.5351534507679,56.21700000000419
311880.0977,-376.4441538426331,-438.32101431100295,-300.5370919461658,-531.132708709529,56.21799999999348
311880.0987,-328.63857437144566,-386.5793596722873,-262.82483684474704,-452.75961326848415,56.21899999998277
311880.0997,-269.90934760693864,-322.26539257039286,-215.8035394995659,-359.9509607007176,56.22000000003027
311880.1007,-202.11678119613836,-247.4955390657276,-161.0872727143829,-255.61890044548056,56.22100000001956
311880.1017,-127.37313025609934,-164.6683123255673,-100.50725998564883,-142.96720823739318,56.22200000000885
311880.1027,-47.97860618773606,-76.39110758584154,-36.05681831575874,-25.396932068727832,56.22299999999814
311880.1037,33.64897682802192,14.599701490890862,30.169393169383383,93.59388651773818,56.22399999998743
311880.1047,115.0483778156081,105.52253614092935,96.03967196736416,210.5130933847774,56.225000000034925
311880.1057,193.79018908278007,193.63523326603755,159.45077113315605,321.9764196981699,56.226000000024214
311880.1067,267.5503962207259,276.3174597582621,218.39218194178264,424.80512268239534,56.227000000013504
311880.1077,334.17956210731325,351.1479970749886,271.0068496771633,516.1159804079354,56.228000000002794
311880.1087,391.7652093855929,415.97425267200504,315.64616524382654,593.4006969792863,56.228999999992084
311880.1097,438.6853451051968,468.9717596403645,350.917377810808,654.5922534495238,56.22999999998137
311880.1107,473.6515274093495,508.6919222274661,375.72195898798856,698.1163173484987,56.23100000002887
311880.1117,495.74038059648905,534.096814627168,389.2838855703715,722.926459588233,56.23200000001816
311880.1127,504.4129838985085,544.5804042698803,391.1672624938714,728.5225803647984,56.23300000000745
311880.1137,499.52205599524956,539.9761124182766,381.28314890518953,714.952576968938,56.23399999999674
311880.1147,481.30730264935374,520.5511137934724,359.8858514136538,682.7978635855643,56.23499999998603
311880.1157,450.37966808698457,486.9881911657992,327.55928977059057,633.1438518606232,56.23600000003353
311880.1167,407.6955203972371,440.35628782490403,285.19430960820165,567.5369062558693,56.23700000002282
311880.1177,354.522005202928,382.0711376820965,233.95801100033913,487.92959439921066,56.23800000001211
311880.1187,292.39492652295695,313.8475051640012,175.25628467221048,396.6162625983209,56.2390000000014
311880.1197,223.07057207538492,237.64464752826666,110.69081006730059,296.1610899343934,56.23999999999069
311880.1207,148.47290946581307,155.60663763320915,42.01178573354624,189.3208248611952,56.241000000038184
311880.1217,70.6375585409521,69.99917406210669,-28.932350967441735,78.9644019990065,56.242000000027474
311880.1227,-8.34608862596971,-16.85552459359473,-100.24698506039941,-32.008410470344195,56.243000000016764
311880.1237,-86.39326077879865,-102.64417926648491,-170.0439639775816,-140.74725732072596,56.244000000006054
311880.1247,-161.4813954650146,-185.12673194489196,-236.49363338548642,-244.52835411142058,56.24499999999534
311880.1257,-231.70561127005627,-262.19793983559487,-297.87509258765084,-340.8266794822614,56.24599999998463
311880.1267,-295.33075059542807,-331.9447905600401,-352.62348985600545,-427.3814433084346,56.24700000003213
311880.1277,-350.83867521434087,-392.69826866509936,-399.3731719229173,-502.2532067008337,56.24800000002142
311880.1287,-396.96950563627814,-443.0780428889772,-436.9955049288574,-563.8711878398228,56.24900000001071
311880.1297,-432.7555335289243,-482.0287157359054,-464.6302110165334,-611.0694778327367,56.25
311880.1307,-457.5466209709813,-508.8463978815392,-481.70913087880785,-643.1111219798667,56.25099999998929
311880.1317,-471.0260459022557,-523.1945534797354,-487.9714418192431,-659.6993010101075,56.25200000003679
311880.1327,-473.21597010295784,-525.1083178369909,-483.4695435652781,-660.9751775115991,56.25300000002608
311880.1337,-464.4719982904964,-514.9868190631072,-468.56507501878576,-647.5023535745751,56.25400000001537
311880.1347,-445.466660682998,-493.57343541404134,-443.91484238653345,-620.2383094325917,56.25500000000466
311880.1357,-417.16207460989466,-461.92437709380096,-410.4468133200301,-580.4936463417848,56.255999999993946
311880.1367,-380.7725034817536,-421.3664743084868,-369.3267461124583,-529.880420936071,56.256999999983236
311880.1377,-337.71800693532396,-373.44555461712713,-321.91645454744787,-470.25130881668844,56.258000000030734
311880.1387,-289.5708327238357,-319.86726954416093,-269.7251298147433,-403.63174487550515,56.25900000002002
311880.1397,-237.99660522406032,-262.4326482898906,-214.35552066735838,-332.1475283848604,56.26000000000931
311880.1407,-184.69268443926208,-202.97098141920193,-157.44708159386317,-257.9506252005757,56.2609999999986
311880.1417,-131.32627430868425,-143.27284005454533,-100.61840925502243,-183.14602463016115,56.26199999998789
311880.1427,-79.4749282956247,-85.02609409037257,-45.41137875615547,-109.7224984321938,56.26300000003539
311880.1437,-30.572021530940166,-29.757693935095745,6.760649229656279,-39.48995670130654,56.26400000002468
311880.1447,14.140468552481034,21.216276411050767,54.65835467985359,25.974197032847748,56.26500000001397
311880.1457,53.649896028207166,66.83016987587138,97.25382396775917,85.36772774175574,56.26600000000326
311880.1467,87.20009763630861,106.29639075077884,133.75827199911944,137.69378534242858,56.26699999999255
311880.1477,114.30682735587372,139.12008801110477,163.63913011574084,182.27780535590875,56.26799999998184
311880.1487,134.76114817681304,165.1006258977142,186.6260502947458,218.7708496880886,56.26900000002934
311880.1497,148.62106542427,184.32019824359415,202.70592949386605,247.13976451453274,56.27000000001863
311880.1507,156.19225839741688,197.1205821672572,212.1075870860009,267.6451105917641,56.271000000007916
311880.1517,157.99926480617935,204.0695774838599,215.27720011912817,280.80832415140844,56.271999999997206
311880.1527,154.74886665049908,205.9191186144555,212.84598868010303,287.369968640315,56.272999999986496
311880.1537,147.28769785261764,203.5573540158507,205.59192814147133,288.24122308966787,56.27400000003399
311880.1547,136.55623528180146,197.95715367120573,194.39743699120996,284.450916041982,56.27500000002328
311880.1557,123.54134898736359,190.12352893661338,180.20504808282746,277.0904586042912,56.27600000001257
311880.1567,109.2294874674214,181.04234248691844,163.97302574956885,267.2589684136093,56.27700000000186
311880.1577,94.5623802615224,171.63246921610036,146.63275633445784,256.01072617439524,56.27799999999115
311880.1587,80.39687848500782,162.7032675413539,129.0495348901909,244.3068893373911,56.27900000003865
311880.1597,67.47025125649888,154.9188632839922,111.98811778330276,232.97312532761677,56.28000000002794
311880.1607,56.371938176916785,148.77036363053836,96.08413106266752,222.66453937347623,56.28100000001723
311880.1617,47.52244717609961,144.55673225787942,81.82213670353698,213.83897534258674,56.28200000000652
311880.1627,41.15979961873485,142.3746892965729,69.5208782887088,206.7394728154638,56.28299999999581
311880.1637,37.33367045571152,142.11766600694384,59.325964661709,201.38637526806113,56.2839999999851
311880.1647,35.90715369023369,143.48355186621015,51.21001001804873,197.57930319444577,56.285000000032596
311880.1657,36.56589989246125,145.990723017757,44.98003284063465,194.9089292517118,56.286000000021886
311880.1667,38.834215862625015,149.00163238625393,40.291721714009526,192.7782152672059,56.287000000011176
311880.1677,42.09757709754656,151.7530663247209,36.6699990168885,190.43248865621916,56.288000000000466
311880.1687,45.63087113795783,153.39202184245232,33.535148874700496,186.99744601431937,56.288999999989755
311880.1697,48.63155520755104,153.01602389475727,30.233619470912295,181.52387558994764,56.29000000003725
311880.1707,50.2567689206619,149.71657750603802,26.072459801169266,173.03759390100532,56.29100000002654
311880.1717,49.6632907211562,142.62433166051179,20.356207997990207,160.59280587346393,56.29200000001583
311880.1727,46.04906872125171,130.95442229120928,12.42491653405897,143.32683824076182,56.29300000000512
311880.1737,38.69490158880442,114.0503664003946,1.6918862867250548,120.5139820522203,56.29399999999441
311880.1747,27.004706697434077,91.42480887033952,-12.320403190175467,91.61603381330666,56.2949999999837
311880.1757,10.542708175398674,62.79539193771251,-29.947723598969304,56.3270682129417,56.2960000000312
311880.1767,-10.934173946519664,28.114040752194363,-51.356434322683064,14.610028923646597,56.29700000002049
311880.1777,-37.450431332816784,-12.411946784581612,-76.52219524052404,-33.27709626966243,56.29800000000978
311880.1787,-68.79415928422506,-58.30843737844564,-105.21637300711359,-86.7674340826878,56.29899999999907
311880.1797,-104.50870887836544,-108.8337826701745,-137.00122225003403,-144.9851834031861,56.29999999998836
311880.1807,-143.89485660245117,-162.9897039315716,-171.2346036932827,-206.76025636070278,56.301000000035856
311880.1817,-186.02412667877869,-219.5440545610782,-207.0846034480171,-270.65779771461087,56.302000000025146
311880.1827,-229.76338869373805,-277.0652267820336,-243.55395448012342,-335.0220103804815,56.303000000014435
311880.1837,-273.8102730828047,-333.9673671869011,-279.5136529748749,-398.03291098004047,56.304000000003725
311880.1847,-316.73833181880525,-388.5649426914773,-313.74463642758826,-457.77384752262526,56.304999999993015
311880.1857,-357.05026116815696,-439.13459479584327,-344.9858799928938,-512.3068858879427,56.305999999982305
311880.1867,-393.2369423066342,-483.9816810462007,-371.9868097560848,-559.7525681909167,56.3070000000298
311880.1877,-423.8395898670884,-521.508474359404,-393.56156379687457,-598.3701166765259,56.30800000001909
311880.1887,-447.51197121084675,-550.2807161137655,-408.64238932836946,-626.6339457689531,56.30900000000838
311880.1897,-463.0795062895644,-569.0891324764445,-416.32937585869934,-643.302383759908,56.30999999999767
311880.1907,-469.5921040882033,-577.0026481457649,-415.9338097772292,-647.4748089718214,56.31099999998696
311880.1917,-466.36784694031684,-573.4103749011733,-407.01270215813065,-638.6339678718455,56.31200000003446
311880.1927,-453.0250918612194,-558.050003801492,-389.3924817142607,-616.671038209381,56.31300000002375
311880.1937,-429.5011944046323,-531.020961059495,-363.1804365333898,-581.891981961352,56.31400000001304
311880.1947,-396.0568349858282,-492.7815530701402,-328.7631951098811,-535.0048360561743,56.31500000000233
311880.1957,-353.26578611028134,-444.130266397765,-286.79231103857654,-477.08873577137604,56.31599999999162
311880.1967,-301.9908382374026,-386.1723351580542,-238.1578002760362,-409.54657185431404,56.31699999998091
311880.1977,-243.34743509708053,-320.27356932354314,-183.9512155601452,-334.0441638957249,56.318000000028405
311880.1987,-178.6572915567154,-248.00418448555575,-125.42047204823524,-252.43961364489422,56.319000000017695
311880.1997,-109.3948224757476,-171.07592773751185,-63.91911172897227,-166.70702251336579,56.320000000006985
311880.2007,-37.12955709121037,-91.27611227923416,-0.8529743705919342,-78.85897832997028,56.320999999996275
311880.2017,36.53217405196949,-10.402231471171158,62.37269149694528,9.127876738324044,56.321999999985565
311880.2027,110.00311801893692,69.79938015507811,124.4027957513549,95.38028023124846,56.32300000003306
311880.2037,181.7657297518238,147.68781531622486,183.976123698657,178.1855283139371,56.32400000002235
311880.2047,250.41527317757433,221.77241188818186,239.96119741859678,256.03600831418527,56.32500000001164
311880.2057,314.693783642547,290.74652670548943,291.38292158808906,327.6596909405268,56.32600000000093
311880.2067,373.51403016761213,353.509532756624,337.43936687028014,392.0362335358968,56.32699999999022
311880.2077,425.97337671806207,409.17717088868267,377.50876446588717,448.3993541854845,56.32800000003772
311880.2087,471.3581523986077,457.0811831714011,411.1474552871541,496.2270295438162,56.32900000002701
311880.2097,509.13974575674575,496.7598218704725,438.08010482664247,535.2217811815026,56.3300000000163
311880.2107,538.9640946197827,527.9413174653837,458.18391949049965,565.2837985319704,56.33100000000559
311880.2117,560.6365217131231,550.5226705751558,471.46885535961627,586.4798751491536,56.33199999999488
311880.2127,574.1039562836157,564.5461946409855,478.055885209673,599.0111058438484,56.33299999998417
311880.2137,579.4364887357535,570.1760869161818,478.15528928081477,603.1820243026181,56.334000000031665
311880.2147,576.8099501729636,567.6769708548654,472.04667952295745,599.3733923118434,56.335000000020955
311880.2157,566.4908258803135,557.3958743462617,460.0620877809458,588.0202360421029,56.336000000010245
311880.2167,548.8243444551264,539.7485369436986,442.57298624206487,569.5960249167968,56.336999999999534
311880.2177,524.2260805283763,515.2103323541467,419.98160874628155,544.6031709105447,56.337999999988824
311880.2187,493.1769171638213,484.3115073227387,392.7164500824922,513.5693548298606,56.33900000003632
311880.2197,456.2207785144731,447.63592724691534,361.2313795898113,477.04861754538166,56.34000000002561
311880.2207,413.96420110876556,405.82212584343364,326.0074509127422,435.6257323636049,56.3410000000149
311880.2217,367.07658996875006,359.56521193379405,287.55624793740986,389.9221284978009,56.34200000000419
311880.2227,316.28991843887036,309.6181072355529,246.423493077855,340.6015767096866,56.34299999999348
311880.2237,262.39668035654375,256.790675813467,203.19166182439346,288.3739713590492,56.34399999998277
311880.2247,206.24508005840178,201.94554446044054,158.48048904091513,233.99582726513165,56.34500000003027
311880.2257,148.7307288471139,145.98977641015142,112.9444998622051,178.26652066300136,56.34600000001956
311880.2267,90.78447634712444,89.86201061849032,67.26702475101703,122.01979709627845,56.34700000000885
311880.2277,33.356406044614566,34.515170651017705,22.15053193026423,66.1105956841175,56.34799999999814
311880.2287,-22.603572225634657,-19.104666631106863,-21.696504495059358,11.39774804400942,56.34899999998743
311880.2297,-76.16773198711977,-70.08221812881698,-63.57562143573655,-41.27644626900371,56.350000000034925
311880.2307,-126.45404262536664,-117.55839127135795,-102.81638520084225,-91.10842779390853,56.351000000024214
311880.2317,-172.64988373775148,-160.75554732210315,-138.7953071861902,-137.35582534426342,56.352000000013504
311880.2327,-214.03457404403315,-199.00097527115,-170.954434467589,-179.35854877424043,56.353000000002794
311880.2337,-249.99936386131333,-231.74699822992736,-198.81838623202705,-216.55703134484162,56.353999999992084
311880.2347,-280.0636949472782,-258.5863549337352,-222.00871053439377,-248.50636740217817,56.35499999998137
311880.2357,-303.8867895721018,-279.26184129054417,-240.2546380039528,-274.88544608420824,56.35600000002887
311880.2367,-321.2739670360844,-293.66962839699465,-253.39958905345188,-295.50061472807755,56.35700000001816
311880.2377,-332.1774682529502,-301.8561534028182,-261.403120973408,-310.28387322539334,56.35800000000745
311880.2387,-336.6919610727435,-304.00896311716707,-264.3383488037418,-319.28605669701886,56.35899999999674
311880.2397,-335.04526379507513,-300.4423324802035,-262.38520573547237,-322.66586421701714,56.35999999998603
311880.2407,-327.5851280544856,-291.578840555247,-255.82019391102338,-320.67589764920797,56.36100000003353
311880.2417,-314.7631377256786,-277.92833340693517,-245.0034891068176,-313.6470584465931,56.36200000002282
311880.2427,-297.1168897467698,-260.0658153134882,-230.36438501433773,-301.97269540186926,56.36300000001211
311880.2437,-275.25161886194314,-238.6097796087871,-212.3860863665636,-286.0938005801038,56.3640000000014
311880.2447,-249.82231591869933,-214.2023242127554,-191.59078689583527,-266.4863256812101,56.36499999999069
311880.2457,-221.5171841773239,-187.49211370064458,-168.52580978359376,-243.65136116092248,56.366000000038184
311880.2467,-191.0430049713627,-159.12087962265824,-143.7513649904603,-218.10852000960114,56.367000000027474
311880.2477,-159.11267437682795,-129.71373162489775,-117.83021588556382,-190.39243829463408,56.368000000016764
311880.2487,-126.43486085714217,-99.87312577174293,-91.31927646998668,-161.05188928983006,56.369000000006054
311880.2497,-93.70545426980163,-70.17594541102413,-64.76290994722635,-130.65064966321842,56.36999999999534
311880.2507,-61.600259335671325,-41.172832094613675,-38.68749632336662,-99.76899174536061,56.37099999998463
311880.2517,-30.76825489751446,-13.388690110309316,-13.596702488880819,-69.00453343856377,56.37200000003213
311880.2527,-1.8247079921027405,12.676801546525308,10.033163367379359,-38.97117345583127,56.37300000002142
311880.2537,24.656497680672075,36.54979314788051,31.758295176896304,-10.294977879888359,56.37400000001071
311880.2547,48.151793322785956,57.78493668761123,51.173493077767766,16.393845293217947,56.375
311880.2557,68.19834710773686,75.97079708804672,67.91950123576537,40.4733662738913,56.37599999998929
311880.2567,84.40591099767724,90.73830603807866,81.69161249725808,61.34677319942025,56.37700000003679
311880.2577,96.46970949993829,101.77214717713314,92.24930836158661,78.46316242282217,56.37800000002608
311880.2587,104.18368383230779,108.8245376342333,99.42644194235169,91.34132510905835,56.37900000001537
311880.2597,107.453148177972,111.73048017109097,103.14124316334582,99.59514470500531,56.38000000000466
311880.2607,106.30573472909123,110.42324139017747,103.40525548339676,102.95888439153995,56.380999999993946
311880.2617,100.8994243309485,104.94859772336038,100.33022304314376,101.31043818651548,56.381999999983236
311880.2627,91.5264941714338,95.4763063232357,94.13195030355028,94.69056777942109,56.383000000030734
311880.2637,78.61236715102233,82.30731541991624,85.13025852144054,83.31626053019023,56.38400000002002
311880.2647,62.70861232634567,65.87542849774799,73.74436105785621,67.58661946647516,56.38500000000931
311880.2657,44.47970443796907,46.74246625772679,60.48325963350745,48.0801166341814,56.3859999999986
311880.2667,24.6835758479762,25.586405208694785,45.93110502546735,25.542576966159707,56.38699999998789
311880.2677,4.146451762881625,3.182477207746116,30.727840506169887,0.865870508421168,56.38800000003539
311880.2687,-16.267089454644253,-19.622251553797383,15.545822455659758,-24.94207133494489,56.38900000002468
311880.2697,-35.68748458324358,-41.939786251321856,1.0634565286075184,-50.79468586272015,56.39000000001397
311880.2707,-53.27531514382575,-62.87610239631541,-12.06283222953553,-75.56988529490357,56.39100000000326
311880.2717,-68.25632421720503,-81.56819327913067,-23.226787748143774,-98.15664612554848,56.39199999999255
311880.2727,-79.95437509899918,-97.22120173495222,-31.899083157278955,-117.50261767744112,56.39299999998184
311880.2737,-87.82048011541595,-109.14350697784361,-37.65110690491368,-132.6601884941972,56.39400000002934
311880.2747,-91.45624319190846,-116.77773297253047,-40.174387886009725,-142.82853194422083,56.39500000001863
311880.2757,-90.63040034757485,-119.72589359283053,-39.294538063344184,-147.38940664012455,56.396000000007916
311880.2767,-85.28758054355214,-117.76727023773054,-34.97894071733631,-145.93488987774091,56.396999999997206
311880.2777,-75.54890884570344,-110.86809667645755,-27.33781677303856,-138.28573804401222,56.397999999986496
311880.2787,-61.70459304492395,-99.18266238838025,-16.618726241343847,-124.49965298125097,56.39900000003399
311880.2797,-44.19913090372329,-83.04599398771671,-3.194970989924419,-104.86933941709167,56.40000000002328
311880.2807,-23.610208182414393,-62.9587890459232,12.451274663119214,-79.9108178090363,56.40100000001257
311880.2817,-0.6226943132440581,-39.56571677152453,29.749995740233807,-50.34296604435323,56.40200000000186
311880.2827,24.000640574655733,-13.628532842409893,48.06723474840242,-17.059667672008384,56.40299999999115
311880.2837,49.449978695924756,14.00434042442952,66.73048136909728,18.903779553192017,56.40400000003865
311880.2847,74.8992160210185,42.43005129859328,85.05420765381047,56.408203284885566,56.40500000002794
311880.2857,99.53513708357956,70.72372346931417,102.36432917495014,94.25025035755685,56.40600000001723
311880.2867,122.58377266850158,97.96956336599898,118.02057848812099,131.20255826040994,56.40700000000652
311880.2877,143.333042354081,123.28948035949085,131.43603798515005,166.0529402538732,56.40799999999581
311880.2887,161.15115017072802,145.86836332930812,142.0933665853706,197.64139543839886,56.4089999999851
311880.2897,175.50056639184683,164.97551116036738,149.5575399097583,224.89405849415766,56.410000000032596
311880.2907,185.94775857564505,179.98205362678704,153.48517997930264,246.853501048013,56.411000000021886
311880.2917,192.16910250273773,190.37449060798357,153.6307560870955,262.7050576592794,56.412000000011176
311880.2927,193.95358820944654,195.7646963649381,149.85007783044907,271.79905122603884,56.413000000000466
311880.2937,191.20302659679888,195.8968654856046,142.10156652038367,273.6689211502193,56.413999999989755
311880.2947,183.9304565656539,190.6519122172468,130.4457824924712,268.0453087584827,56.41500000003725
311880.2957,172.25735931231003,180.04977990147114,115.04361103840493,254.86613405458868,56.41600000002654
311880.2967,156.4101218519954,164.24998651897744,96.15338315193144,234.28262057842323,56.41700000001583
311880.2977,136.71597930108578,143.55054839615735,74.12704840391343,206.66111275278342,56.41800000000512
311880.2987,113.59843264263999,118.38521502511809,49.405348387732765,172.58040902231517,56.41899999999441
311880.2997,87.57191505465626,89.31874451896796,22.511783455904776,132.82423248793535,56.4199999999837
311880.3007,59.235293736545444,57.039781832076194,-5.954955393076801,88.36840546846564,56.4210000000312
311880.3017,29.263670061846675,22.350797319126407,-35.330485442393034,40.362308064178926,56.42200000002049
311880.3027,-1.602102827986425,-13.845478066392314,-64.896559861884,-9.895700945851937,56.42300000000978
311880.3037,-32.56871883308566,-50.563610720667874,-93.89555153659542,-60.98903288342707,56.42399999999907
311880.3047,-62.80692890287091,-86.75733420674285,-121.54777918156854,-111.41964194860371,56.42499999998836
311880.3057,-91.47143412372142,-121.34578988773923,-147.07165764643176,-159.65032442333796,56.426000000035856
311880.3067,-117.72404399077443,-153.2438671901343,-169.70640287464633,-204.15164424697585,56.427000000025146
311880.3077,-140.75964983901778,-181.39599864999877,-188.73674441386274,-243.45216356810334,56.428000000014435
311880.3087,-159.83421892697686,-204.81238077694283,-203.51881989482797,-276.19025399981297,56.429000000003725
311880.3097,-174.29369075820472,-222.60623363232065,-213.50617369158587,-301.16541957894987,56.429999999993015
311880.3107,-183.6023868588443,-234.03041639192296,-218.27458282313873,-317.3868142480894,56.430999999982305
311880.3117,-187.3693584225371,-238.51151627866122,-217.54431096340434,-324.1165183626777,56.4320000000298
311880.3127,-185.37101721297122,-235.67945080863637,-211.19836487870697,-320.9051749782084,56.43300000001909
311880.3137,-177.56843986552414,-225.390685708709,-199.29540815784313,-307.6177906327279,56.43400000000838
311880.3147,-164.1179101856153,-207.74337924632442,-182.07617747376233,-284.4478765683259,56.43499999999767
311880.3157,-145.37356310042566,-183.08311181570585,-159.96254009150763,-251.91862998925887,56.43599999998696
311880.3167,-121.8814014281,-151.99832888722017,-133.54871182547993,-210.87050230888508,56.43700000003446
311880.3177,-94.36444637050725,-115.30518615201119,-103.58459768660938,-162.43523165981657,56.43800000002375
311880.3187,-63.69932028779478,-74.02209928625986,-70.95169202886866,-107.99718058664729,56.43900000001304
311880.3197,-30.88510619105492,-29.334922831512728,-36.632446038714036,-49.143562294173066,56.44000000000233
311880.3207,2.994159242275103,17.44573324068942,-1.6744417580756032,12.394194690069094,56.44099999999162
311880.3217,36.8115636943565,64.93303926703594,32.84893061289239,74.80515337883993,56.44199999998091
311880.3227,69.44184318807264,111.71594405362573,65.87934067758107,136.26648422228715,56.443000000028405
311880.3237,99.80603346751745,156.41201722040333,96.41384917787269,195.01065193843849,56.444000000017695
311880.3247,126.91388972288922,197.71845898438596,123.54262654203305,249.38887051513368,56.445000000006985
311880.3257,149.9018329965145,234.4587171973595,146.48212567391286,297.92776793365084,56.445999999996275
311880.3267,168.06444950218483,265.6224347234482,164.60204720538113,339.3766376033776,56.446999999985565
311880.3277,180.87796839997816,290.3968790225218,177.4448152175904,372.7432479161783,56.44800000003306
311880.3287,188.0146450800833,308.1885478482386,184.736742050911,397.31689102662125,56.44900000002235
311880.3297,189.34754378844534,318.6342596786551,186.39056846570094,412.6781253341395,56.45000000001164
311880.3307,184.9458038408312,321.60167930675846,182.49958302394344,418.69544790502636,56.45100000000093
311880.3317,175.06104477034873,317.1798511574213,173.32401483973524,415.5098687137499,56.45199999999022
311880.3327,160.1060767385895,305.66087122405935,159.27082228416214,403.50899864659516,56.45300000003772
311880.3337,140.62749803228587,287.5142850889881,140.8683378562723,383.29276707006534,56.45400000002701
311880.3347,117.27405429253206,263.35612555312537,118.73745507063455,355.63322358877014,56.4550000000163
311880.3357,90.76278738800501,233.91468153717943,93.56114504208038,321.43103726870504,56.45600000000559
311880.3367,61.845010103068496,199.9951151549856,66.05406673063429,281.6712843485703,56.45699999999488
311880.3377,31.2740122358271,162.4449236419916,36.93389372348849,237.380925426837,56.45799999998417
311880.3387,-0.2238487843352442,122.12199585833798,6.895739044674596,189.5900405558417,56.459000000031665
311880.3397,-31.973368160333013,79.866667222539,-23.409258028053934,139.29845028473605,56.460000000020955
311880.3407,-63.369132521193634,36.4787662612137,-53.39048386789927,87.4488431648406,56.461000000010245
311880.3417,-93.88812526257993,-7.299792519136175,-82.52922276970773,34.90699847087815,56.461999999999534
311880.3427,-123.09627925693255,-50.796744567686794,-110.38489806865373,-17.55082177185112,56.462999999988824
311880.3437,-150.64935041702927,-93.41580366180867,-136.59655634704825,-69.24369860992738,56.46400000003632
311880.3447,-176.28881135194052,-134.63816725722117,-160.88023208964538,-119.58586625729875,56.46500000002561
311880.3457,-199.83370431245308,-174.02001875565958,-183.02301606447432,-168.0815512250084,56.4660000000149
311880.3467,-221.1695369389427,-211.1869878911046,-202.87475266828807,-214.3160541204261,56.46700000000419
311880.3477,-240.2353524270795,-245.82657822171382,-220.33831059787127,-257.94434880495254,56.46799999999348
311880.3487,-257.01006561903796,-277.6795340586845,-235.35931578726345,-298.6784374551647,56.46899999998277
311880.3497,-271.49904328677223,-306.5310137922618,-247.91611975322942,-336.27458436820604,56.47000000003027
311880.3507,-283.72174054980127,-332.2022826989238,-258.01061857509626,-370.52137826675363,56.47100000001956
311880.3517,-293.7010085417314,-354.54345814123934,-265.6603579952887,-401.22936641849697,56.47200000000885
311880.3527,-301.45448369117156,-373.4276553200116,-270.89217876588566,-428.22278733537155,56.47299999999814
311880.3537,-306.98827655231895,-388.74671138070414,-273.73749148086017,-451.33372231417223,56.47399999998743
311880.3547,-310.2930139427342,-400.4085241358323,-274.22913598892325,-470.39880489923644,56.475000000034925
311880.3557,-311.3421624554726,-408.33593760597586,-272.3996862228703,-485.25848076265805,56.476000000024214
311880.3567,-310.09247803440275,-412.4670423970511,-268.28101019638723,-495.758701396342,56.477000000013504
311880.3577,-306.4863826889452,-412.7567309634177,-261.9048843412301,-501.75486027660605,56.478000000002794
311880.3587,-300.4560574501449,-409.1793472771815,-253.30448323486002,-503.11773176663513,56.478999999992084
311880.3597,-291.92904809302166,-401.7322849765983,-242.51660787700325,-499.74113971070886,56.47999999998137
311880.3607,-280.83519261186353,-390.44040375882884,-229.58456336747088,-491.5510520670081,56.48100000002887
311880.3617,-267.11468275972624,-375.3611373117427,-214.56163516003795,-478.5157587843891,56.48200000001816
311880.3627,-250.72705448371528,-356.5901469706108,-197.5151289780575,-460.656734505232,56.48300000000745
311880.3637,-231.66085668972303,-334.267327758683,-178.53092391522776,-438.059712653725,56.48399999999674
311880.3647,-209.94367336237812,-308.58289772408943,-157.71843773436635,-410.88540622053955,56.48499999998603
311880.3657,-185.6520762317827,-279.78320417856855,-135.21582092957414,-379.37921252960444,56.48600000003353
311880.3667,-158.9209758698919,-248.17577425629554,-111.19509124622147,-343.87914940173425,56.48700000002282
311880.3677,-129.95173534709843,-214.13303947209383,-85.86680813845675,-304.82120708663086,56.48800000001211
311880.3687,-99.01833234392232,-178.09409446224882,-59.48378591124837,-262.74128401612415,56.4890000000014
311880.3697,-66.47082302599078,-140.5638283551922,-32.34327511334969,-218.27292295897888,56.48999999999069
311880.3707,-32.73539135267002,-102.10880952868317,-4.787022567438183,-172.14019079664695,56.491000000038184
311880.3717,1.6896275674181556,-63.34942116001143,22.80133476816536,-125.14525558072134,56.492000000027474
311880.3727,36.242178229402754,-24.947938114745472,50.00197099432875,-78.15050496031178,56.493000000016764
311880.3737,70.30954177841043,12.407501866302418,76.36791074381543,-32.055406348816554,56.494000000006054
311880.3747,103.245877818168,48.0227646650295,101.43740514336825,12.23129260662739,56.49499999999534
311880.3757,134.3937614078415,81.22081313459981,124.74935697831638,53.823016496856575,56.49599999998463
311880.3767,163.10887300811595,111.36707673482469,145.86120737123704,91.88907950844037,56.49700000003213
311880.3777,188.78667484817353,137.8958439187187,164.36841065746654,125.68896327090052,56.49800000002142
311880.3787,210.88964405972735,160.33619038379996,179.92438380854875,154.60523448119963,56.49900000001071
311880.3797,228.97345996188585,178.33582095733775,192.25964964400094,178.17309336864292,56.5
311880.3807,242.71048205838278,191.68118618007523,201.19882127392165,196.10460163796668,56.50099999998929
311880.3817,251.90891907214365,200.31234698169612,206.67411236485435,208.3058469667267,56.50200000003679
311880.3827,256.52627910081924,204.33130094205268,208.73420738956187,214.88565190633358,56.50300000002608
311880.3837,256.67599675722573,204.00283839477538,207.54758071653617,216.1549065108327,56.50400000001537
311880.3847,252.62653442535117,199.74744212533503,203.39969572752898,212.61616330462292,56.50500000000466
311880.3857,244.79272228486244,192.1262480102221,196.68391906880638,204.94373912698433,56.505999999993946
311880.3867,233.71960028417766,181.8186072434766,187.88641852241872,193.9551752410468,56.506999999983236
311880.3877,220.059516679742,169.5932930902516,177.5657406837441,180.57546869275058,56.508000000030734
311880.3887,204.54368450451764,156.27483694662828,166.32815173831708,165.79596161723305,56.50900000002002
311880.3897,187.94976543572542,142.70682505209035,154.80013957663223,150.63012544768782,56.51000000000931
311880.3907,171.06731242277087,129.7142111578722,143.5996927216773,136.06867803230878,56.5109999999986
311880.3917,154.66303895321167,118.06678405610329,133.30807355609645,123.03650935518996,56.51199999998789
311880.3927,139.44788451145084,108.44586521373388,124.44378187336964,112.35376408121468,56.51300000003539
311880.3937,126.04771330568971,101.41610509790553,117.44026126497769,104.70314679367426,56.51400000002468
311880.3947,114.97922722231075,97.40391203773193,112.62864603538516,100.6050998235216,56.51500000001397
311880.3957,106.63231356781634,96.68360891024251,110.22649924304365,100.40198436554228,56.51600000000326
311880.3967,101.2596101061194,99.37190228417799,110.33307886527754,104.25181029618635,56.51699999999255
311880.3977,98.97358610851555,105.43070270937238,112.9312195259377,112.13144999325347,56.51799999998184
311880.3987,99.75094352402608,114.6777928389521,117.89546483137488,123.84867899103799,56.51900000002934
311880.3997,103.44367242901617,126.80434090463864,125.00566350166218,139.06185234810343,56.52000000001863
311880.4007,109.79568319369801,141.39783651874228,133.96488243404295,157.30558666422016,56.521000000007916
311880.4017,118.46361358543388,157.96871396543722,144.42021853784757,178.02050342072994,56.521999999997206
311880.4027,129.0401951528273,175.97874727604335,155.98492923208565,200.58492044818826,56.522999999986496
311880.4037,141.07847431997888,194.86926400204806,168.2602614762208,224.3463650213033,56.52400000003399
311880.4047,154.11522479326726,214.08733245213102,180.8554444676052,248.65092304275956,56.52500000002328
311880.4057,167.6920541413027,233.10832080807546,193.40451522343702,272.86872106622883,56.52600000001257
311880.4067,181.37298373823853,251.45358580882615,205.57895301510487,296.41423765438816,56.52700000000186
311880.4077,194.757643576706,268.70249401903084,217.09548311790212,318.7606245725586,56.52799999999115
311880.4087,207.4896403782946,284.4984732828096,227.7188406460325,339.44774651933545,56.52900000003865
311880.4097,219.2600928128876,298.54929470559824,237.25972492498383,358.0841767464124,56.53000000002794
311880.4107,229.80674369903278,310.6222544554763,245.5685860749974,374.34387126828915,56.53100000001723
311880.4117,238.90941981807651,320.53532072691644,252.52623244538322,387.9586465045998,56.53200000000652
311880.4127,246.38288469323226,328.1456017015844,258.0324999329468,398.7078717366757,56.53299999999581
311880.4137,252.0682958856802,333.33665215495785,261.9943602545632,406.4069368735869,56.5339999999851
311880.4147,255.82452409427813,336.00615817461755,264.3148539678099,410.8960585738322,56.535000000032596
311880.4157,257.52051637984874,336.0554228679092,264.8841165396514,412.0308481771855,56.536000000021886
311880.4167,257.0297015902148,333.3818352534959,263.57353515190584,409.67580063661865,56.537000000011176
311880.4177,254.22716428424187,327.87516527253985,260.23375395471504,403.7015033558616,56.538000000000466
311880.4187,248.9899837643114,319.4181240783514,254.69686800796808,393.98594434239044,56.538999999989755
311880.4197,241.20078145515393,307.89119953264515,246.78274777193064,380.4198614977943,56.54000000003725
311880.4207,230.75417795946848,293.18136224067086,236.30905415465065,362.91566040740065,56.54100000002654
311880.4217,217.56556308471463,275.1938746341615,223.10417322187917,341.4190738913205,56.54200000001583
311880.4227,201.58135443773514,253.86615522378472,207.022047771726,315.9224725788082,56.54300000000512
311880.4237,182.78978095045204,229.1824736802043,187.95772921510414,286.4785815544297,56.54399999999441
311880.4247,161.2311853388296,201.1881905512573,165.86242639689326,253.21332195201694,56.5449999999837
311880.4257,137.00689242467718,170.00230761911374,140.75688636978168,216.3365749277089,56.5460000000312
311880.4267,110.28582766227733,135.8272500304327,112.74209419088317,176.14984488196825,56.54700000002049
311880.4277,81.30827373811377,98.95503941136393,82.00650509155543,133.05005675051416,56.54800000000978
311880.4287,50.38639910257298,59.76931178554648,48.829297882656824,87.52903043922024,56.54899999999907
311880.4297,17.901454469796274,18.742955270717072,13.57943545405935,40.16850306117084,56.54999999998836
311880.4307,-15.702214486301736,-23.568540249711674,-23.28939096421365,-8.36911408263262,56.551000000035856
311880.4317,-49.92597131021442,-66.53764408172874,-61.24759747099716,-57.353779243864835,56.552000000025146
311880.4327,-84.2279763390725,-109.47864885326256,-99.70177840600293,-106.0039829843313,56.553000000014435
311880.4337,-118.03592200283597,-151.664071691971,-138.00932430522636,-153.505205818532,56.554000000003725
311880.4347,-150.76074714719334,-192.34274706428107,-175.49482625615806,-199.02978484600928,56.554999999993015
311880.4357,-181.81069500090106,-230.7587655654682,-211.46750325991653,-241.75731976705666,56.555999999982305
311880.4367,-210.605169235585,-266.1704829082268,-245.23894775969387,-280.8948325740614,56.5570000000298
311880.4377,-236.58797322259727,-297.86894805886493,-276.14059015886596,-315.6960299110536,56.55800000001909
311880.4387,-259.2396694178077,-325.1952584037201,-303.54041771031,-345.4791815093567,56.55900000000838
311880.4397,-278.0889473883913,-347.5565199353453,-326.8586265129359,-369.64329937356456,56.55999999999767
311880.4407,-292.7230196039708,-364.44024880541906,-345.5820178382724,-387.6824585242981,56.56099999998696
311880.4417,-302.7971560792365,-375.4271770641618,-359.27705464483404,-399.1982225206817,56.56200000003446
311880.4427,-308.04350974701197,-380.2025049785988,-367.601558551653,-403.91021261586195,56.56300000002375
311880.4437,-308.27936820458467,-378.5656668394649,-370.31504538757457,-401.66488212821275,56.56400000001304
311880.4447,-303.4148958383851,-370.43864627708325,-367.28766909588336,-392.44252888555474,56.56500000000233
311880.4457,-293.4603123670585,-355.8727982826859,-358.5076762984497,-376.36250712054255,56.56599999999162
311880.4467,-278.53230517769146,-335.05402275621253,-344.0871800485946,-353.68650073516034,56.56699999998091
311880.4477,-258.85931396587813,-308.30600801643135,-324.26595830437424,-324.8196113455212,56.568000000028405
311880.4487,-234.785180214162,-276.09114462716616,-299.41288967669175,-290.30891766030413,56.569000000017695
311880.4497,-206.77054397649545,-239.0086224548269,-270.02457510778305,-250.8390973987787,56.570000000006985
311880.4507,-175.39131652119207,-197.78918667182054,-236.72067583402637,-207.22468567244155,56.570999999996275
311880.4517,-141.33357462194968,-153.28605583433708,-200.23553717505507,-160.39858572919593,56.571999999985565
311880.4527,-105.38431851065083,-106.46160447194194,-161.40577005667217,-111.39655361123165,56.57300000003306
311880.4537,-68.41771022815416,-58.36958294779516,-121.15362631213445,-61.33754464482665,56.57400000002235
311880.4547,-31.376653262561653,-10.132879496195113,-80.46622111245671,-11.400026642684765,56.57500000001164
311880.4557,4.750129023369851,37.08289338215226,-40.37091124100564,37.205384013350276,56.57600000000093
311880.4567,38.955032954150695,82.09940619015501,-1.9074111276183803,83.2663424074693,56.57699999999022
311880.4577,70.24172157323467,123.75833533635179,33.90250380213192,125.60137506762348,56.57800000003772
311880.4587,97.65736882072888,160.95565862536967,66.08661911964904,163.0935615500493,56.57900000002701
311880.4597,120.32564604618474,192.6761719659121,93.75395627776314,194.72403139278825,56.5800000000163
311880.4607,137.47893078296323,218.02674571980975,116.12511465020683,219.6039136816429,56.58100000000559
311880.4617,148.488149381211,236.26680217013393,132.5598671202296,237.00336274360706,56.58199999999488
311880.4627,152.88870351415414,246.83455925144693,142.58065988172856,246.37635717634632,56.58299999998417
311880.4637,150.4010766928386,249.36774877443676,145.89082267668837,247.38012794821324,56.584000000031665
311880.4647,140.94496268113514,243.71777020373293,142.38653411679581,239.88830503616217,56.585000000020955
311880.4657,124.64608664133043,229.95656622679314,132.16189266884896,223.9971651350886,56.586000000010245
311880.4667,101.83527848376822,208.37588028529052,115.50679628328848,200.0246945697336,56.586999999999534
311880.4677,73.03977771771953,179.47895115237233,92.89770751661001,168.50252768872463,56.587999999988824
311880.4687,38.96716895662866,143.96508599016153,64.98174945864722,130.16115660640767,56.58900000003632
311880.4697,0.4827360188836264,102.7079024033277,32.55491430539514,85.90910912202905,56.59000000002561
311880.4707,-41.41864806579559,56.72831649331261,-3.464552886352572,36.807037128546604,56.5910000000149
311880.4717,-85.64473098949138,7.163558166279801,-42.06632708589829,-15.962167914624311,56.59200000000419
311880.4727,-131.04067835939816,-44.76639520661945,-82.18034689862452,-71.12602194933056,56.59299999999348
311880.4737,-176.42490233251584,-97.79356377284326,-122.70991844640977,-127.35663524132835,56.59399999998277
311880.4747,-220.6244258331718,-150.63656643715578,-162.56423502744636,-183.3052805869575,56.59500000003027
311880.4757,-262.5084382007069,-202.03391527284498,-200.6891140513214,-237.63631051354955,56.59600000001956
311880.4767,-301.0189223374135,-250.77505719867835,-236.09496154808684,-289.05956117181006,56.59700000000885
311880.4777,-335.19750508481735,-295.728466428026,-267.8812239333061,-336.3605716201166,56.59799999999814
311880.4787,-364.2079733825078,-335.866345155441,-295.2568516741808,-378.4281355686846,56.59899999998743
311880.4797,-387.3541803477589,-370.2857217440345,-317.556554875782,-414.2788665035059,56.600000000034925
311880.4807,-404.0933122879784,-398.2259226000086,-334.25285391728363,-443.07857904890983,56.601000000024214
311880.4817,-414.044680065133,-419.082519863301,-344.9641013715624,-464.1603588192027,56.602000000013504
311880.4827,-416.99432424293303,-432.41791440542056,-349.45876363588934,-477.0392074936859,56.603000000002794
311880.4837,-412.89578015275976,-437.96870422808416,-347.65629907114527,-481.42311583725103,56.603999999992084
311880.4847,-401.86734261957633,-435.64992322394824,-339.62495926932746,-477.22034942247467,56.60499999998137
311880.4857,-384.1861148977335,-425.55613325928203,-325.57678402863627,-464.5426507986329,56.60600000002887
311880.4867,-360.27904275274693,-407.95923800090503,-305.8599770982612,-443.7039923742755,56.60700000001816
311880.4877,-330.7110462490014,-383.30278652412267,-280.94876041882196,-415.2144812525695,56.60800000000745
311880.4887,-296.1702924158896,-352.1924740731794,-251.43073149976922,-379.76904242468805,56.60899999999674
311880.4897,-257.4506222035235,-315.3825474449185,-217.99171129353434,-338.23060539476364,56.60999999998603
311880.4907,-215.43116971683287,-273.7578969434975,-181.3980828433766,-291.6076978050396,56.61100000003353
311880.4917,-171.05329735471807,-228.31176985382427,-142.47669132463673,-241.0266038011312,56.61200000002282
311880.4927,-125.29511483693264,-180.1192656673034,-102.09250278792403,-187.69855988372467,56.61300000001211
311880.4937,-79.1440418196211,-130.30705457784256,-61.12439243738989,-132.8828124168239,56.6140000000014
311880.4947,-33.568093664456775,-80.0200732427494,-20.439636598123084,-77.84671713228747,56.61499999999069
311880.4957,10.513207033944642,-30.386264696530155,19.13210711045929,-23.824386221710906,56.616000000038184
311880.4967,52.257192264748646,17.519290868544978,56.82435543322614,28.024352902831925,56.617000000027474
311880.4977,90.92443702758585,62.709293581054816,91.95776873229728,76.65276346552129,56.618000000016764
311880.4987,125.9018585772162,104.31650844447302,123.9613340420317,121.16181007748739,56.619000000006054
311880.4997,156.72123650774017,141.62173001061157,152.38957139984808,160.82871683730536,56.61999999999534
311880.5007,183.07199402324173,174.07585983763443,176.93467943473073,195.12785812993684,56.62099999998463
311880.5017,204.8073153816515,201.3147740736837,197.43274120862887,223.74274090646136,56.62200000003213
311880.5027,221.94300299947946,223.1660164209816,213.86340634798358,246.56831891434254,56.62300000002142
311880.5037,234.64887994316211,239.64680039800803,226.34283273524917,263.70343663017707,56.62400000001071
311880.5047,243.23299125427036,250.95331287177922,235.11008457015743,275.4337932162222,56.625
311880.5057,248.11931673481763,257.4418406821275,240.50761167296264,282.2064001625798,56.62599999998929
311880.5067,249.82014162465185,259.60275320432953,242.9568425848209,284.5970355040657,56.62700000003679
311880.5077,248.90460371011085,258.0288257633929,242.93027647513932,283.27263125308104,56.62800000002608
311880.5087,245.9652133425317,253.37974578267563,240.921724559878,278.95083472782886,56.62900000001537
311880.5097,241.58430108087873,246.344876457657,237.41650549539648,272.35913465102396,56.63000000000466
311880.5107,236.30237010930557,237.60644238998668,232.86342475061065,264.19592735079317,56.630999999993946
311880.5117,230.59021224909242,227.80524030868347,227.65025962188474,255.0957185123644,56.631999999983236
311880.5127,224.82639412694382,217.51077032889367,222.08423510886243,245.60032632194358,56.633000000030734
311880.5137,219.28135212352606,207.19734569871682,216.37862823004406,236.13749912239203,56.63400000002002
311880.5147,214.10887927488128,197.22729879649503,210.6462062441019,227.00782120742738,56.63500000000931
311880.5157,209.3452799963432,187.84189367351465,204.89972188501278,218.38019709058847,56.6359999999986
311880.5167,204.91594935448973,179.1600213091911,199.05919481453415,210.2956234235335,56.63699999998789
311880.5177,200.64864343613831,171.18423525056872,192.96524273064932,202.67842365886113,56.63800000003539
311880.5187,196.2922841536073,163.81322272714075,186.39732504134463,195.3536737104146,56.63900000002468
311880.5197,191.539817457561,156.85943443970146,179.0954579056456,188.06921922968138,56.64000000001397
311880.5207,186.05344143871704,150.07034129811305,170.7837742929155,180.52049783139572,56.64100000000326
311880.5217,179.4904525046557,143.15166400928265,161.19424848732444,172.3763413033115,56.64199999999255
311880.5227,171.52802442170895,135.79093525608795,150.08898165255727,163.304039108114,56.64299999998184
311880.5237,161.88542575450262,127.67989587826628,137.27964281210063,152.99217847638184,56.64400000002934
311880.5247,150.3424750574246,118.53447652127338,122.6429568574453,141.17011054306386,56.64500000001863
311880.5257,136.75340077738798,108.1114461468849,106.13149884089412,127.62329073621967,56.646000000007916
311880.5267,121.05567945751314,96.22118384987802,87.77945740925404,112.20416483604417,56.646999999997206
311880.5277,103.27383449499945,82.73641299823474,67.7034332900209,94.83867885866424,56.647999999986496
311880.5287,83.51855256529443,67.5970899798393,46.09870605849839,75.52884333281384,56.64900000003399
311880.5297,61.98178442528724,50.81193123800425,23.231703294391743,54.35204937620324,56.65000000002328
311880.5307,38.92871685875762,32.45726656821149,-0.5703828118713388,31.457993446409034,56.65100000001257
311880.5317,14.687617967132232,12.674008199347378,-24.93177962106946,7.064109328045037,56.65200000000186
311880.5327,-10.361435809132825,-8.336480679925419,-49.441068727344216,-18.549668371075914,56.65299999999115
311880.5337,-35.79803965980333,-30.316941009589666,-73.6639243446435,-45.04616151705523,56.65400000003865
311880.5347,-61.1724206755979,-52.95871021566387,-97.15489802520588,-72.03583357245934,56.65500000002794
311880.5357,-86.01539983053691,-75.90591433133288,-119.4677440906226,-99.08121030139465,56.65600000001723
311880.5367,-109.84715894894966,-98.75939778491711,-140.16406509041477,-125.70105349879586,56.65700000000652
311880.5377,-132.18489893170258,-121.08069615577331,-158.8203430023867,-151.37478552731554,56.65799999999581
311880.5387,-152.54972728159493,-142.3965825303596,-175.0336784637087,-175.5478776147311,56.6589999999851
311880.5397,-170.47330445775384,-162.20487119954538,-188.42675913707927,-197.6390350464995,56.660000000032596
311880.5407,-185.5048868694824,-179.982220104684,-198.65269738020098,-217.05001680439761,56.661000000021886
311880.5417,-197.21941477757684,-195.19462179634323,-205.40040268249908,-233.1788063497903,56.662000000011176
311880.5427,-205.2272011790912,-207.31110878368227,-208.40108113601715,-245.43660714250817,56.663000000000466
311880.5437,-209.18558846411213,-215.82093163132575,-207.43628758543582,-253.26878678171568,56.663999999989755
311880.5447,-208.81266885255488,-220.25411671363622,-202.3477105643803,-256.17946464234916,56.66500000003725
311880.5457,-203.90283676169935,-220.20490452319513,-193.04856845220178,-253.75896639296786,56.66600000002654
311880.5467,-194.34358751713077,-215.35714550357275,-179.53616663274033,-245.71289819640845,56.66700000001583
311880.5477,-180.13263250849334,-205.51032940449272,-161.9048428597373,-231.89116996152518,56.66800000000512
311880.5487,-161.39410234566373,-190.60458767598018,-140.35824562864752,-212.31496579836147,56.66899999999441
311880.5497,-138.39239092391986,-170.74277490225097,-115.21968024155699,-187.19946062343647,56.6699999999837
311880.5507,-111.54208336536391,-146.20763654895268,-86.93914664635925,-156.97004541107918,56.6710000000312
311880.5517,-81.4124303071247,-117.47212838781917,-56.09570175089811,-122.26996846515486,56.67200000002049
311880.5527,-48.72499049822011,-85.20117769931318,-23.39391694433637,-83.95763052275274,56.67300000000978
311880.5537,-14.343362168411966,-50.24356392456932,10.346531627898427,-43.09227637405263,56.67399999999907
311880.5547,20.74565175810517,-13.613129069537662,44.208718750157914,-0.9074787883362843,56.67499999998836
311880.5557,55.45957307164963,23.540825025066777,77.20387240414536,41.227427850331345,56.676000000035856
311880.5567,88.65600657276873,59.97337645521489,108.30388265507482,81.8569872025797,56.677000000025146
311880.5577,119.17554118766824,94.39274300734533,136.4799130638474,119.49853704092813,56.678000000014435
311880.5587,145.89010750067794,125.51593652867778,160.7455660231341,152.70784517714813,56.679000000003725
311880.5597,167.75457214613422,152.12866585132338,180.2025726316229,180.14826808097874,56.679999999993015
311880.5607,183.8589281331296,173.14636008068516,194.0866022344558,200.65976600565833,56.680999999982305
311880.5617,193.478169047418,187.67288337827773,201.81055219555475,213.32385324326543,56.6820000000298
311880.5627,196.11684325359738,195.05342434810936,203.00261142291183,217.520549225888,56.68300000001909
311880.5637,191.54538875224878,194.91818454216164,197.53650669201446,212.97363781489167,56.68400000000838
311880.5647,179.8256534425803,187.21386200621683,185.5516407153322,199.78103298567308,56.68499999999767
311880.5657,161.32349778478047,172.22051101545034,167.46130306041317,178.42776630174365,56.68599999998696
311880.5667,136.707031539662,150.55212600452117,143.94775378872023,149.78001574055335,56.68700000003446
311880.5677,106.92981488007567,123.14019996462827,115.94370749580808,115.05963325313546,56.68800000002375
311880.5687,73.19920798431097,91.2004881697959,84.60053538852104,75.79973609545222,56.68900000001304
311880.5697,36.930926731845965,56.184203098064835,51.24430239682242,33.7830345034427,56.69000000000233
311880.5707,-0.3083028778271201,19.715809754631405,17.321510513598984,-9.034395551283257,56.69099999999162
311880.5717,-36.86735903396568,-16.479581094101665,-15.66292361972105,-50.61028853433945,56.69199999998091
311880.5727,-71.08338041387434,-50.655567000754004,-46.21241523144115,-88.91000919775225,56.693000000028405
311880.5737,-101.35683025600851,-81.12645872041024,-72.90680589940199,-122.00225604842258,56.694000000017695
311880.5747,-126.22514142151923,-106.34764293068864,-94.46829789421108,-148.1517086286726,56.695000000006985
311880.5757,-144.4311513625582,-124.99007154426744,-109.82180003739717,-165.90378672562215,56.695999999996275
311880.5767,-154.982797474668,-136.00496148080256,-118.14654256208345,-174.1570790390755,56.696999999985565
311880.5777,-157.2010128017611,-138.67533528769258,-118.91629055284548,-172.2196452624804,56.69800000003306
311880.5787,-150.75340751408916,-132.65177354944726,-111.92611148322854,-159.84625801125753,56.69900000002235
311880.5797,-135.67209950286252,-117.97063473489204,-97.30438978506048,-137.25467510926603,56.70000000001164
311880.5807,-112.35491622586424,-95.05396847682825,-75.509581239972,-105.12015438491333,56.70100000000093
311880.5817,-81.5500738767104,-64.69134151531418,-47.3120103870033,-64.54857330397097,56.70199999999022
311880.5827,-44.32529345586005,-28.00474937089577,-13.761784285970352,-17.029625320311023,56.70300000003772
311880.5837,-2.0230850907490954,13.601356070280369,23.855420089986836,35.62743075373201,56.70400000002701
311880.5847,43.795421391989784,58.50218084134364,64.07237770168756,91.37214835784623,56.7050000000163
311880.5857,91.41523271669563,104.923572170822,105.30142096570424,148.0014380278945,56.70600000000559
311880.5867,139.0376572016258,151.01827084530402,145.8996617978992,203.253912463873,56.70699999999488
311880.5877,184.8525742325668,194.94371687632795,184.23529149415552,254.90550280076002,56.70799999998417
311880.5887,227.10955662830847,234.93778127990936,218.75201007019422,300.8618974939121,56.709000000031665
311880.5897,264.1848097320783,269.38907063189623,248.0288708931712,339.2436610659832,56.710000000020955
311880.5907,294.6412437284987,296.898880983437,270.8331792749067,368.4603921847074,56.711000000010245
311880.5917,317.27945451855044,316.33242757862433,286.16452525600624,387.27094103109823,56.711999999999534
311880.5927,331.17791938573185,326.85760678800574,293.28852930089425,394.8274806126813,56.712999999988824
311880.5937,335.72128228819406,327.9702163315332,291.7594038456833,390.70206871899495,56.71400000003632
311880.5947,330.6161775760292,319.5052308695854,281.430954994616,374.89519985746864,56.71500000002561
311880.5957,315.8945917006968,301.6343682449399,262.45614258208644,347.82668560244593,56.7160000000149
311880.5967,291.905266431996,274.85075858542405,235.27576361683575,310.3099778089772,56.71700000000419
311880.5977,259.2940861339372,239.94202215893867,200.5972092930599,263.51172867620363,56.71799999999348
311880.5987,218.97475331640888,197.95345712728664,159.36455982974667,208.8989384261497,56.71899999998277
311880.5997,172.0913338735105,150.1433265920742,112.72151953138544,148.17645685961298,56.72000000003027
311880.6007,119.9744438473199,97.93241306149488,61.968855767031144,83.21786867582391,56.72100000001956
311880.6017,64.09295501558698,42.85008051602712,8.518092399476267,15.9929014500327,56.72200000000885
311880.6027,6.003122200788437,-13.520943102586568,-46.15677457197605,-51.505545736257055,56.72299999999814
311880.6037,-52.70301142116522,-69.5989660768995,-100.56781707063446,-117.33183427572334,56.72399999998743
311880.6047,-110.44818410308247,-123.8550098629782,-153.26034927685205,-179.65285995220265,56.725000000034925
311880.6057,-165.7178749277134,-174.86010761796612,-202.85726175071846,-236.80594845644865,56.726000000024214
311880.6067,-217.1042694794492,-221.3268631719072,-248.09922497552063,-287.34762248036725,56.727000000013504
311880.6077,-263.3450795799563,-262.1442299035073,-287.8796840116308,-330.0920039980565,56.728000000002794
311880.6087,-303.3563134491462,-296.4047996109797,-321.2737967525226,-364.13814276187526,56.728999999992084
311880.6097,-336.258347456356,-323.4242165356459,-347.56070882676386,-388.8860745054439,56.72999999998137
311880.6107,-361.3949012113606,-342.75263710389345,-366.238799833674,-404.04188352552825,56.73100000002887
311880.6117,-378.34475475358875,-354.1784297071882,-377.0337701747711,-409.61245188414375,56.73200000001816
311880.6127,-386.92626216468716,-357.7245415983259,-379.8996577952667,-405.8909045068374,56.73300000000745
311880.6137,-387.1949040906977,-353.6381455415247,-375.01307321139734,-393.4339955355055,56.73399999999674
311880.6147,-379.43427873950304,-342.37431450989413,-362.76111412283825,-373.0328231971929,56.73499999998603
311880.6157,-364.1410558215857,-324.57455944059586,-343.7235642294804,-345.67831229338975,56.73600000003353
311880.6167,-342.00451223257795,-301.0411073780505,-318.65009312551916,-312.5228762134601,56.73700000002282
311880.6177,-313.8813362049243,-272.70780297238275,-288.43325606126217,-274.8395809588264,56.73800000001211
311880.6187,-280.7664344705104,-240.60849538966707,-254.078146835935,-233.98000298524371,56.7390000000014
311880.6197,-243.76051230217456,-205.8437367198386,-216.66958884103855,-191.33182363196107,56.73999999999069
311880.6207,-204.03522703701438,-169.54657845837158,-177.33776423469737,-148.27705787790285,56.741000000038184
311880.6217,-162.79674874433863,-132.8482197047986,-137.22318558531384,-106.15169343915103,56.742000000027474
311880.6227,-121.24860173876812,-96.84424168338414,-97.44191344743868,-66.20743169984642,56.743000000016764
311880.6237,-80.55470892502318,-62.56216141308601,-59.05192066977267,-29.576181360204988,56.744000000006054
311880.6247,-41.80361462781934,-30.93105150693212,-23.021500394225644,2.7620425128494146,56.74499999999534
311880.6257,-5.974913384090012,-2.753996974757229,9.799393067961871,30.007126908496907,56.74599999998463
311880.6267,26.091048987263388,21.315817022863005,38.70399910663898,51.56203961478931,56.74700000003213
311880.6277,53.71912380729725,40.79458403611838,63.148966721564605,67.05039780944136,56.74800000002142
311880.6287,76.41990921842945,55.38214069897811,82.76916259260638,76.32763412129246,56.74900000001071
311880.6297,93.90393868310876,64.97030118235578,97.38640750746448,79.4850110017597,56.75
311880.6307,106.08869787520133,69.64466783884465,107.01162956004048,76.8458517813421,56.75099999998929
311880.6317,113.09788262893137,69.67950795126615,111.84012571509977,68.95356014210475,56.75200000003679
311880.6327,115.25260238459603,65.52553214914813,112.2398756880232,56.55129032112246,56.75300000002608
311880.6337,113.05458357524992,57.79070946043104,108.7331453141645,40.5534982485301,56.75400000001537
311880.6347,107.1618172661569,47.21459137387437,101.97193584525112,22.010027913395863,56.75500000000466
311880.6357,98.35750000701516,34.6369703601299,92.70816043658299,2.0638368488778913,56.755999999993946
311880.6367,87.51350663946039,20.962040080039046,81.75973513855882,-18.096097659460405,56.756999999983236
311880.6377,75.54997737389125,7.119526115665828,69.97403322244568,-37.28476445254554,56.758000000030734
311880.6387,63.39286900519642,-5.975510236384133,58.19034429982785,-54.37177453697052,56.75900000002002
311880.6397,51.931486624784824,-17.462350264562787,47.20308330985767,-68.33029432855807,56.76000000000931
311880.6407,41.9780600945712,-26.571899052978715,37.727495593699196,-78.28183903211804,56.7609999999986
311880.6417,34.23135091884431,-32.65977173043626,30.36949791684873,-83.53464267388239,56.76199999998789
311880.6427,29.246072571317583,-35.233581637872526,25.60108563676719,-83.61360950517756,56.76300000003539
311880.6437,27.409593800658502,-33.97312350633207,23.742436454339877,-78.28027745329437,56.76400000002468
311880.6447,28.926992090392634,-28.74252181913084,24.951472319219402,-67.54175893096506,56.76500000001397
311880.6457,33.81506236986184,-19.593845376817452,29.221229764737952,-51.64822919607282,56.76600000000326
311880.6467,41.90539739623161,-6.762142813917918,36.38496494667966,-31.079163589046082,56.76699999999255
311880.6477,52.85617492940743,9.347701164985926,46.12851279364738,-6.519137103774402,56.76799999998184
311880.6487,66.17184457051805,28.181482083408294,58.00905710098521,21.175449412525786,56.76900000002934
311880.6497,81.22953056992445,49.062413328606546,71.47917220571512,51.01689814490466,56.77000000001863
311880.6507,97.31067564734288,71.22266979255313,85.91478239769316,81.93184887970736,56.771000000007916
311880.6517,113.63625641268771,93.83814847188796,100.64556017117965,112.80967647788114,56.771999999997206
311880.6527,129.40380662235629,116.06477607465712,114.98624893838878,142.55125621342447,56.772999999986496
311880.6537,143.82448610938246,137.07470106961173,128.26744330668834,170.11578357356873,56.77400000003399
311880.6547,156.15852069609505,156.09079335955514,139.86447858953503,194.56353470263682,56.77500000002328
311880.6557,165.7474976031621,172.41802537448325,149.2232555970654,215.09274905493643,56.77600000001257
311880.6567,172.04221565692868,185.4705087726534,155.88204021802775,231.06918141877384,56.77700000000186
311880.6577,174.62504363139328,194.7931961675693,159.48851351357482,242.0472799155778,56.77799999999115
311880.6587,173.22601824639753,200.07751390610488,159.81159244653463,247.7823749378169,56.77900000003865
311880.6597,167.73220270682077,201.17045871465052,156.74778213052002,248.23368938485171,56.78000000002794
311880.6607,158.19011667517532,198.07695930171525,150.3220488403103,243.55838506243305,56.78100000001723
311880.6617,144.80133095155142,190.95556726739522,140.68341315474098,234.09723001657744,56.78200000000652
311880.6627,127.91158835537212,180.1077950162928,128.09565109698528,220.35279708842577,56.78299999999581
311880.6637,107.99406085687056,165.96165765755634,112.92365624292411,202.96137857535942,56.7839999999851
311880.6647,85.62757670262022,149.05019688964143,95.61615655803405,182.66002143257518,56.785000000032596
311880.6657,61.47084467319643,129.98596263390064,76.68559532650274,160.2502493235737,56.786000000021886
311880.6667,36.233859679449594,109.43259654648004,56.686074560471795,136.56014015199125,56.787000000011176
311880.6677,10.647788041070358,88.07479310497773,36.19031949604706,112.40646884785734,56.788000000000466
311880.6687,-14.56530486234408,66.5880004235409,15.766651139564367,88.55860357462417,56.788999999989755
311880.6697,-38.72151379208855,45.60925578350493,-4.043053237586488,65.70575786732803,56.79000000003725
311880.6707,-61.20162229270197,25.710522389934212,-22.743477692462562,44.42905100666679,56.79100000002654
311880.6717,-81.4739010533295,7.375798455096678,-39.90321664077924,25.1796152867336,56.79200000001583
311880.6727,-99.11215778607075,-9.016894904452531,-55.168637998706046,8.263715403422518,56.79300000000512
311880.6737,-113.80826103624439,-23.207772062888004,-68.2737123505757,-6.164480917499081,56.79399999999441
311880.6747,-125.37865051451132,-35.06120370407755,-79.04546371043601,-18.102209504705574,56.7949999999837
311880.6757,-133.76467186070118,-44.565053485024315,-87.40492633077304,-27.689615469467476,56.7960000000312
311880.6767,-139.02691544124824,-51.823549043960504,-93.36373345797739,-35.193979837617675,56.79700000002049
311880.6777,-141.3340748491583,-57.04417596719855,-97.01670250555335,-40.98757242783671,56.79800000000978
311880.6787,-140.94714769323298,-60.51943309921155,-98.53099983310909,-45.52037959200596,56.79899999999907
311880.6797,-138.2000560917973,-62.60459118338571,-98.13265026309548,-49.289234895864475,56.79999999998836
311880.6807,-133.47794696670408,-63.69283045020446,-96.09128658694077,-52.80507579643983,56.801000000035856
311880.6817,-127.19452779305861,-64.18927710468239,-92.70410120411945,-56.56014423717348,56.802000000025146
311880.6827,-119.7697938301787,-64.48550103491876,-88.27995945430669,-60.99693510831235,56.803000000014435
311880.6837,-111.60940804231578,-64.93597301771744,-83.12456206331069,-66.48057312246625,56.804000000003725
311880.6847,-103.08681330949479,-65.83781375073946,-77.52740885425584,-73.27607378593838,56.804999999993015
311880.6857,-94.52890430713191,-67.41491246836489,-71.75112999143619,-81.53163377798984,56.805999999982305
311880.6867,-86.2057860489284,-69.80717056651702,-66.02353196558097,-91.26872277146562,56.8070000000298
311880.6877,-78.32482402294382,-73.06526202111772,-60.53247387331509,-102.37933962060227,56.80800000001909
311880.6887,-71.02887491021987,-77.15092686316935,-55.423466804083326,-114.6303799014047,56.80900000000838
311880.6897,-64.3983033468419,-81.94245608377136,-50.79969543704684,-127.67466722418081,56.80999999999767
311880.6907,-58.456161229161566,-87.24471286242294,-46.72401280430532,-141.06785247682367,56.81099999998696
311880.6917,-53.175747615539585,-92.80278756834295,-43.22236782287414,-154.29010287776882,56.81200000003446
311880.6927,-48.48968778868538,-98.3182173096458,-40.28809548693688,-166.77129958887465,56.81300000002375
311880.6937,-44.299670049947615,-103.4666218310937,-37.88652973876246,-177.91834488737692,56.81400000001304
311880.6947,-40.486051453850486,-107.91561539317526,-35.959481064033085,-187.14314715544305,56.81500000000233
311880.6957,-36.91667594933175,-111.34194095936438,-34.429241942821136,-193.8898982447586,56.81599999999162
311880.6967,-33.45442293752012,-113.44692498743018,-33.201927417203954,-197.6603729404613,56.81699999998091
311880.6977,-29.963201511203096,-113.96955093190545,-32.17010800602263,-198.036151462873,56.818000000028405
311880.6987,-26.312305883241827,-112.69667786947034,-31.21483156214609,-194.69687918307588,56.819000000017695
311880.6997,-22.3792326976669,-109.47016801448821,-30.207245413725335,-187.43391890700812,56.820000000006985
311880.7007,-18.05121609436552,-104.19091529295123,-29.01010987990932,-176.1590067975481,56.820999999996275
311880.7017,-13.225850587873971,-96.819971153146,-27.47953290495869,-160.90778085240805,56.821999999985565
311880.7027,-7.811238385167425,-87.37713124776154,-25.467251376050825,-141.83829944241953,56.82300000003306
311880.7037,-1.7261143271948176,-75.93746895946735,-22.823739906339423,-119.22489619789656,56.82400000002235
311880.7047,5.099630330861986,-62.62637402767605,-19.402347932719895,-93.44791669406948,56.82500000001164
311880.7057,12.7236798361824,-47.613675330187384,-15.06455868836826,-64.98004290673829,56.82600000000093
311880.7067,21.189048219521563,-31.10739802407696,-9.686338200743037,-34.37002541965174,56.82699999999022
311880.7077,30.52076164876058,-13.347631659192766,-3.1654088668920775,-2.2247048258962088,56.82800000003772
311880.7087,40.721529456038674,5.39912471785096,4.570849560422059,30.809790654276053,56.82900000002701
311880.7097,51.766622991502565,24.84491175226062,13.557288733814316,64.0668343294027,56.8300000000163
311880.7107,63.598330783984196,44.68447608809771,23.783186262544238,96.87734095197402,56.83100000000559
311880.7117,76.12048557570421,64.59872838482748,35.18533118895318,128.58646416006655,56.83199999999488
311880.7127,89.19365121921284,84.25770492805079,47.642617147954184,158.56852935197983,56.83299999998417
311880.7137,102.63160426195725,103.32335333010056,60.9727479300006,186.23996277114648,56.834000000031665
311880.7147,116.19973795056347,121.45253038108257,74.93160040630993,211.07015401349508,56.835000000020955
311880.7157,129.615950690048,138.30061754122502,89.21568109938593,232.59034153617273,56.836000000010245
311880.7167,142.554456666893,153.5261223393581,103.46795750057447,250.4007241453173,56.836999999999534
311880.7177,154.652778668339,166.79654304134763,117.28715009233122,264.1760656763549,56.837999999988824
311880.7187,165.52196285514597,177.79563624405114,130.2403467793449,273.6700710803009,56.83900000003632
311880.7197,174.75980815219438,186.23205498552306,141.87856291262767,278.7187725577448,56.84000000002561
311880.7207,181.96664872711182,191.8491355477578,151.75463525154174,279.24308332989335,56.8410000000149
311880.7217,186.76298870340256,194.43542425327075,159.4426266778024,275.2505684178878,56.84200000000419
311880.7227,188.808085922815,193.83537185367513,164.55774972098496,266.8363640309393,56.84299999999348
311880.7237,187.81843621367912,189.95950161443247,166.77570824221357,254.18306839309327,56.84399999998277
311880.7247,183.58503689202638,182.79329312455602,165.85032102920545,237.55934411162727,56.84500000003027
311880.7257,175.98831764691425,172.40402675551596,161.62833582212937,217.31692885658893,56.84600000001956
311880.7267,165.00972076763455,158.94490627447027,154.0604677464231,193.8857552081462,56.84700000000885
311880.7277,150.73908540495253,142.65591488425216,143.2078953689166,167.76693387546345,56.84799999999814
311880.7287,133.37722955290317,123.86105167904456,129.24370695501392,139.5234527266814,56.84899999998743
311880.7297,113.23341006531969,102.96182445230231,112.449089811606,109.76857739228059,56.850000000034925
311880.7307,90.71765258446354,80.42712064103732,93.20437400960442,79.15209380690736,56.851000000024214
311880.7317,66.32825526700896,56.77981922282427,71.97535399404444,48.34469296283862,56.852000000013504
311880.7327,40.6350587463758,32.58072180213015,49.295594160331284,18.02094718892372,56.853000000002794
311880.7337,14.259318771228306,8.410553144785732,25.745656922791852,-11.158549096619682,56.853999999992084
311880.7347,-12.148799103280767,-15.149103088691064,1.930358321029323,-38.56521441767535,56.85499999998137
311880.7357,-37.933972248048676,-37.535016143890395,-21.54475319390498,-63.619988730875306,56.85600000002887
311880.7367,-62.45955564533253,-58.22076410025407,-44.09648816160919,-85.80961757988365,56.85700000001816
311880.7377,-85.13037251954704,-76.73360539988019,-65.1855371758184,-104.70106431948669,56.85800000000745
311880.7387,-105.41344146775688,-92.66906407280743,-84.33541621355302,-119.95349344976172,56.85899999999674
311880.7397,-122.85578254082662,-105.70269211713956,-101.14802238874078,-131.32739094897457,56.85999999998603
311880.7407,-137.09864705766793,-115.59866129502512,-115.31521838433271,-138.69053230963624,56.86100000003353
311880.7417,-147.8877420482658,-122.21503269394675,-126.62611863208973,-142.02066444391076,56.86200000002282
311880.7427,-155.07925304395295,-125.50574012818902,-134.97000940457337,-141.4049222134071,56.86300000001211
311880.7437,-158.64169217144635,-125.5194888479173,-140.3350805254464,-137.03614310334214,56.8640000000014
311880.7447,-158.6537976646322,-122.39590273648892,-142.80336226033972,-129.20636477762943,56.86499999999069
311880.7457,-155.2988741228601,-116.35934318879019,-142.54243365085196,-118.29788199963646,56.866000000038184
311880.7467,-148.85608154575766,-107.71086694237667,-139.79458810835555,-104.77229609165727,56.867000000027474
311880.7477,-139.6892505699643,-96.81878807439446,-134.86420264854914,-89.15800894818106,56.868000000016764
311880.7487,-128.23382071928694,-84.10826501943646,-128.1040575062427,-72.0365950360849,56.869000000006054
311880.7497,-114.98247134871681,-70.05025447392705,-119.90129667285788,-54.028432709623445,56.86999999999534
311880.7507,-100.46994885830435,-55.150071461603936,-110.66361558496997,-35.77789796682941,56.87099999998463
311880.7517,-85.25749982011699,-39.93568229456627,-100.80612252121611,-17.93833016054565,56.87200000003213
311880.7527,-69.91721184293843,-24.94574991852074,-90.73916141608072,-1.15688342340294,56.87300000002142
311880.7537,-55.016457864040916,-10.717364704974257,-80.85722403014155,13.940705572598269,56.87400000001071
311880.7547,-41.10255080319422,2.226657572636098,-71.52893735321837,26.76545868976782,56.875
311880.7557,-28.687658250943795,13.391033666584095,-63.088004811689196,36.78064691437333,56.87599999998929
311880.7567,-18.23401184755572,22.321901149732746,-55.82492081039657,43.51743715530685,56.87700000003679
311880.7577,-10.139479045293903,28.62130828686115,-49.97927556007922,46.59061463547086,56.87800000002608
311880.7587,-4.723645683800637,31.962124241963327,-45.73252259686243,45.714162528497745,56.87900000001537
311880.7597,-2.2146791369997767,32.10299899515356,-43.20118918320811,40.716302583858926,56.88000000000466
311880.7607,-2.737389989158069,28.902794560449273,-42.43065703663949,31.553399777629487,56.880999999993946
311880.7617,-6.303065896254004,22.33370641088379,-43.38980854437012,18.321933924789967,56.881999999983236
311880.7627,-12.801791208290389,12.492122836406157,-45.966998375694835,1.2675691136169445,56.883000000030734
311880.7637,-21.99806527387848,-0.39384299710763926,-49.96794680947337,-19.209763506298785,56.88400000002002
311880.7647,-33.53056762106896,-15.961244134864554,-55.116234613243144,-42.55588580895531,56.88500000000931
311880.7657,-46.91687014222192,-33.714639609515736,-61.05708920619095,-68.06853847105951,56.8859999999986
311880.7667,-61.56375270462574,-53.03472682774571,-67.36507391605855,-94.91054344457082,56.88699999998789
311880.7677,-76.7835361188725,-73.19381734867962,-73.55612095993372,-122.13050147043764,56.88800000003539
311880.7687,-91.81651249939593,-93.378313317611,-79.1040890482487,-148.69113949067395,56.88900000002468
311880.7697,-105.85914595682353,-112.71787044426574,-83.46169344608504,-173.50491124432304,56.89000000001397
311880.7707,-118.09726447320045,-130.320416956649,-86.08527486761842,-195.47588923397453,56.89100000000326
311880.7717,-127.74300293504145,-145.31167714797408,-86.46247648296372,-213.54641165930096,56.89199999999255
311880.7727,-134.07382884698018,-156.87736835051717,-84.14152325488526,-226.74641384264325,56.89299999998184
311880.7737,-136.47162868856853,-164.30584742683476,-78.76048378102765,-234.24293168723196,56.89400000002934
311880.7747,-134.45959378840197,-167.02871940870946,-70.07467814219999,-235.38696301782457,56.89500000001863
311880.7757,-127.73455253893478,-164.6568208934895,-57.980305781840215,-229.75475115972458,56.896000000007916
311880.7767,-116.19247263852769,-157.00907649655892,-42.532425106946604,-217.180640962119,56.896999999997206
311880.7777,-99.9451111884856,-144.13200557977316,-23.955628844559804,-197.77896157575674,56.897999999986496
311880.7787,-79.32621509895733,-126.30811981114083,-2.646119982456921,-171.95290522769372,56.89900000003399
311880.7797,-54.88624716772132,-104.05207459947431,20.83561768054721,-140.3890708009239,56.90000000002328
311880.7807,-27.375298007834427,-78.09417884337773,45.78177533504566,-104.0371816126517,56.90100000001257
311880.7817,2.285407207606888,-49.35167545015717,71.36338403355428,-64.0754104582638,56.90200000000186
311880.7827,33.04224104939365,-18.88901958766281,96.66462893666014,-21.862684089835668,56.90299999999115
311880.7837,63.756272071018195,12.130860254050225,120.72365786031031,21.11977785856515,56.90400000003865
311880.7847,93.25625541934264,42.50169172876653,142.577729548019,63.33467735333413,56.90500000002794
311880.7857,120.3945973632339,71.03227890323267,161.31018542708813,103.25902328785955,56.90600000001723
311880.7867,144.10312315661685,96.60484818990874,176.0965360214587,139.4547684119925,56.90700000000652
311880.7877,163.44544021808895,118.229919704211,186.2469473057972,170.6357044533091,56.90799999999581
311880.7887,177.66287052493652,135.0945031719349,191.24259549704286,195.7268182763784,56.9089999999851
311880.7897,186.2113143907283,146.60083664575563,190.7637181244893,213.9127650455182,56.910000000032596
311880.7907,188.7869730719556,152.393493077667,184.70769766313032,224.6727906349836,56.911000000021886
311880.7917,185.3395570097148,152.3734277133449,173.19613303386564,227.8002842814387,56.912000000011176
311880.7927,176.07238741520055,146.69837163290978,156.57053740660555,223.4061006128127,56.913000000000466
311880.7937,161.42960385802692,135.76983171199217,135.37699771373158,211.90578774832085,56.913999999989755
311880.7947,142.07146196348316,120.20777307468465,110.34079227030699,193.99182417017138,56.91500000003725
311880.7957,118.839390311408,100.81478012401675,82.33254253133286,170.5928352034398,56.91600000002654
311880.7967,92.713029784279,78.53206925204933,52.327935752246354,142.82247352981523,56.91700000001583
311880.7977,64.76186918212707,54.39012582896098,21.3633699603744,111.92116406600454,56.91800000000512
311880.7987,36.094298658146826,29.45694025352166,-9.509974144965312,79.19420474297492,56.91899999999441
311880.7997,7.806922365834659,4.786818364127051,-39.27114097251121,45.94977149339895,56.9199999999837
311880.8007,-19.06318771674772,-18.627449106303807,-66.97116095416138,13.440205400627056,56.9210000000312
311880.8017,-43.5809326698929,-39.89663136398949,-91.76954124319276,-17.190414662324883,56.92200000002049
311880.8027,-64.94840366382572,-58.26938108602023,-112.96387469974137,-44.949953612157245,56.92300000000978
311880.8037,-82.53149214289952,-73.15748348356335,-130.01144260773177,-69.03136156196152,56.92399999999907
311880.8047,-95.87709425701823,-84.15130598150313,-142.542211889614,-88.8342179850341,56.92499999998836
311880.8057,-104.72070126488431,-91.02535197451259,-150.3631542775753,-103.97437694730694,56.926000000035856
311880.8067,-108.98472537691099,-93.73440812099558,-153.4543082918047,-114.28213376600527,56.927000000025146
311880.8077,-108.76840117002106,-92.40128189909679,-151.95743495054472,-119.7899762538455,56.928000000014435
311880.8087,-104.33049943032422,-87.29752670549529,-146.15846135540167,-120.71150978943938,56.929000000003725
311880.8097,-96.06637493442115,-78.81882753245128,-136.46514684031055,-117.4135279638584,56.929999999993015
311880.8107,-84.48103352368734,-67.45686360828441,-123.38153674618343,-110.38342457901048,56.930999999982305
311880.8117,-70.1599474115623,-53.76947799400457,-107.4807898741157,-100.19420572800973,56.9320000000298
311880.8127,-53.739280068897706,-38.35087992535887,-89.3778857291388,-87.46927176857719,56.93300000001909
311880.8137,-35.87701951438001,-21.80340323402738,-69.70355177945476,-72.84891780250197,56.93400000000838
311880.8147,-17.226283054756138,-4.712068545270301,-49.0805191173667,-56.96017568319278,56.93499999999767
311880.8157,1.5882275284416378,12.377123685472556,-28.102940318025905,-40.391224118843304,56.93599999998696
311880.8167,19.989947509851515,28.974579062829054,-7.319510403024768,-23.67116231804536,56.93700000003446
311880.8177,37.4659777494854,44.65990981240879,12.779455639933635,-7.255512635330909,56.93800000002375
311880.8187,53.57832837049566,59.09017769871975,31.770996194400468,8.48257869963224,56.93900000001304
311880.8197,67.97102073611829,72.0038472206872,49.30475190975429,23.25580979344175,56.94000000000233
311880.8207,80.37337112679205,83.22089445772245,65.10487696114794,36.861484208284736,56.94099999999162
311880.8217,90.59989948901739,92.6396275756346,78.96910090910492,49.17635673687048,56.94199999998091
311880.8227,98.54736714323899,100.23082159792712,90.7654708778241,60.14843338903245,56.943000000028405
311880.8237,104.18945498469942,106.02976132702493,100.42729184936873,69.7865907696342,56.944000000017695
311880.8247,107.56955970663006,110.12673553223442,107.94672886498527,78.1488084477566,56.945000000006985
311880.8257,108.79212422505688,112.65644874038934,113.36745348051744,85.32968925040709,56.945999999996275
311880.8267,108.01284538839951,113.78673098988597,116.77662413841698,91.4477994165865,56.946999999985565
311880.8277,105.42803225651387,113.70684638384128,118.29640206109515,96.63321595965171,56.94800000003306
311880.8287,101.26333451674063,112.61564094346622,118.07513458757413,101.01554260365779,56.94900000002235
311880.8297,95.76203211767027,110.70973763256285,116.27829670495393,104.71256380878495,56.95000000001164
311880.8307,89.17307855112013,108.17198500419097,113.07927435787202,107.81965803358797,56.95100000000093
311880.8317,81.73912110295674,105.16039402815078,108.65010031469821,110.40008893102751,56.95199999999022
311880.8327,73.68477682292419,101.79784883407102,103.15231026855382,112.47633221729748,56.95300000003772
311880.8337,65.20551393076128,98.1629410451885,96.72816442536713,114.02266602221749,56.95400000002701
311880.8347,56.45756298540438,94.28234125423482,89.49256578539584,114.95933856217034,56.9550000000163
311880.8357,47.54934698507958,90.12517120750312,81.52608651669277,115.14871118771545,56.95600000000559
311880.8367,38.53496121475057,85.59986326554977,72.86957383848247,114.39383885418684,56.95699999999488
311880.8377,29.41024016245943,80.5539787121032,63.52083358726355,112.43997695459132,56.95799999998417
311880.8387,20.111911047486508,74.77739593764966,53.433872804697764,108.97947976874262,56.959000000031665
311880.8397,10.520246191824628,68.00917024078922,42.52111589620223,103.66047301028449,56.960000000020955
311880.8407,0.4654889944192423,59.94821062969453,30.65889057462543,96.09953857979679,56.961000000010245
311880.8417,-10.261855056733648,50.267722106650766,17.69631349933849,85.89844758621936,56.961999999999534
311880.8427,-21.896990970081603,38.633135462567104,3.4674998832271795,72.66472818137709,56.962999999988824
311880.8437,-34.683442575555596,24.723005165846722,-12.193210528464416,56.03557347499694,56.96400000003632
311880.8447,-48.85291916978615,8.252116464223617,-29.433560277358826,35.70430170726968,56.96500000002561
311880.8457,-64.60330207921947,-11.00417673989084,-48.3639957174121,11.448298470265577,56.9660000000149
311880.8467,-82.0758216813101,-33.18554394853524,-69.03759013096952,-16.842877719293224,56.96700000000419
311880.8477,-101.33265694017464,-58.32349037487231,-91.4304149030147,-49.14073786505359,56.96799999999348
311880.8487,-122.33628903535124,-86.32074464092135,-115.42360462468568,-85.25408234573187,56.96899999998277
311880.8497,-144.93196761506198,-116.9345691462409,-140.7883905260584,-124.80985672389194,56.97000000003027
311880.8507,-168.83459681879697,-149.76525662528033,-167.17532851264338,-167.24023382462366,56.97100000001956
311880.8517,-193.62121787510176,-184.2509183493855,-194.10882276657142,-211.77734458937007,56.97200000000885
311880.8527,-218.73006021468487,-219.6694431499784,-220.98784792671913,-257.4568170028266,56.97299999999814
311880.8537,-243.46686257609355,-255.14822184985687,-247.09351133950648,-303.13093394382844,56.97399999998743
311880.8547,-267.01884210775296,-289.68190163769606,-271.60378443450054,-347.4918024302369,56.975000000034925
311880.8557,-288.4763282043701,-322.158074206772,-293.6153841192004,-389.1044577544885,56.976000000024214
311880.8567,-306.8616955495865,-351.3904258911726,-312.17241783806725,-426.4493285536025,56.977000000013504
311880.8577,-321.16484497483043,-376.15850351661754,-326.30103669379815,-457.972986532483,56.978000000002794
311880.8587,-330.38410853110037,-395.2528917152566,-335.0489865619936,-482.14562129171526,56.978999999992084
311880.8597,-333.57111314670504,-407.5242706523798,-337.52862338433016,-497.52323976213705,56.97999999998137
311880.8607,-329.8778409148681,-411.93454106085215,-332.9616806118771,-502.81221293280714,56.98100000002887
311880.8617,-318.6038877038433,-407.6079786967936,-320.72385764181877,-496.93349965444014,56.98200000001816
311880.8627,-299.24175833296056,-393.880224299285,-300.387150265233,-479.08368558407983,56.98300000000745
311880.8637,-271.51795738423067,-370.3428382660338,-271.75777836689343,-448.78989916153876,56.98399999999674
311880.8647,-235.4276493131432,-336.8811606894829,-234.90759137145105,-405.95571683541255,56.98499999998603
311880.8657,-191.26077698285175,-293.70332459777467,-190.19695492794636,-350.89535358893755,56.98600000003353
311880.8667,-139.6177480908814,-241.35847834094795,-138.28734680940642,-284.3537545169424,56.98700000002282
311880.8677,-81.41312432048878,-180.74258398851336,-80.14221590741624,-207.51065574621808,56.98800000001211
311880.8687,-17.866173860282142,-113.09057012661854,-17.01508077770674,-121.96725921894738,56.9890000000014
311880.8697,49.522335787670684,-39.954122208417,49.575646726866765,-29.714849905605906,56.98999999999069
311880.8707,119.00713691691716,36.83502162561269,117.88504768949593,66.91454699715237,56.991000000038184
311880.8717,188.6486412376055,115.21575614922827,185.99259930628403,165.31454715287506,56.992000000027474
311880.8727,256.37501975845197,192.9610831838326,251.86425348001097,262.68606132778405,56.993000000016764
311880.8737,320.0542408682584,267.7524984623369,313.42371221235743,356.1316359380987,56.994000000006054
311880.8747,377.5735054076065,337.2627651876336,368.6303309186637,442.7591369524526,56.99499999999534
311880.8757,426.922978116919,399.24396896520403,415.56057375732,519.7907883209253,56.99599999998463
311880.8767,466.28029142641134,451.6172788214115,452.4895563509699,584.6730828937793,56.99700000003213
311880.8777,494.09202299243066,492.56051413824787,477.968972125616,635.1827806013913,56.99800000002142
311880.8787,509.1482496457734,520.589467933956,490.897633808906,669.5241248583765,56.99900000001071
311880.8797,510.64637620144475,534.6289853864142,490.58098774624665,686.4125625839367,57.0
311880.8807,498.24073639642455,534.0700549946877,476.7762816497324,685.1406522905696,57.00099999998929
311880.8817,472.0749620709172,518.809638623717,449.7205808508629,665.6224811348217,57.00200000003679
311880.8827,432.7948004938565,489.2706335033861,410.13951704891804,628.4137644491984,57.00300000002608
311880.8837,381.5399014903065,446.4001989856786,359.2354886729543,574.7058355419015,57.00400000001537
311880.8847,319.9140579551098,391.64565660196314,298.6549750499406,506.29290304367595,57.00500000000466
311880.8857,249.9344185755374,326.9082366651796,230.43563124056251,425.51320173766175,57.005999999993946
311880.8867,173.96124664158773,254.47604355718266,156.93484466353667,335.1659277741619,57.006999999983236
311880.8877,94.61081648145651,176.9386854188702,80.74240366958581,238.40706410308485,57.008000000030734
311880.8887,14.654961630281965,97.08700136854056,4.580797513648985,138.62830059902575,57.00900000002002
311880.8897,-63.08843845423493,17.802162034815957,-68.80261439960245,39.324173228076276,57.01000000000931
311880.8907,-135.8691719833269,-58.06093557011187,-136.74680318078842,-56.046767382522,57.0109999999986
311880.8917,-201.11741073493974,-127.79065332667183,-196.78658809122007,-144.20053979853822,57.01199999998789
311880.8927,-256.5501578432746,-188.9305191400507,-246.75538052748558,-222.15975088874816,57.01300000003539
311880.8937,-300.2663617446596,-239.38075265172358,-284.87629053969056,-287.3729573529773,57.01400000002468
311880.8947,-330.82610920880825,-277.48454862828845,-309.8372186132792,-337.8158212291223,57.01500000001397
311880.8957,-347.3100435841223,-302.09496910372906,-320.84628177057584,-372.0693536321731,57.01600000000326
311880.8967,-349.3561067178234,-312.6192421502337,-317.66485444626016,-389.371641957811,57.01699999999255
311880.8977,-337.1718245569952,-309.0383963747582,-300.61659301058756,-389.6407582601093,57.01799999998184
311880.8987,-311.5215852532224,-291.9014124366908,-270.57199923018516,-373.46797957964355,57.01900000002934
311880.8997,-273.68962421179214,-262.29437321647896,-228.90929564093886,-342.0819334973642,57.02000000001863
311880.9007,-225.42065830087367,-221.78636509600722,-177.45356437735902,-297.2857276550209,57.021000000007916
311880.9017,-168.84122751710026,-172.35504696931247,-118.3971710236986,-241.3704444009778,57.021999999997206
311880.9027,-106.36573899821738,-116.29578997340816,-54.205392898066044,-177.00950171682825,57.022999999986496
311880.9037,-40.59190877893812,-56.119039904918154,12.488156234244508,-107.13923252272846,57.02400000003399
311880.9047,25.809279767302275,5.558977431622328,78.99130407199087,-34.831567879641455,57.02500000002328
311880.9057,90.20385694092545,66.12692345996912,142.6631745401393,36.835100659421435,57.02600000001257
311880.9067,150.1003175371013,123.08524332400931,201.01915373546385,104.900959781564,57.02700000000186
311880.9077,203.24562433835092,174.1445740824773,251.82642742807758,166.64027191113556,57.02799999999115
311880.9087,247.70783753246243,217.31161645673245,293.1862052783345,219.66264267348834,57.02900000003865
311880.9097,281.9423151676845,250.95927759981203,323.5995783724037,261.996334878204,57.03000000002794
311880.9107,304.8394157574687,273.87886571255524,342.01490243077853,292.1510061919987,57.03100000001723
311880.9117,315.7526621217233,285.3131352392899,347.8555920261522,309.15840177268745,57.03200000000652
311880.9127,314.5073249123788,284.9699725886343,341.0281854027142,312.59066113912485,57.03299999999581
311880.9137,301.3902920959891,273.01741380510583,321.9114357190551,302.5569299993309,57.0339999999851
311880.9147,277.1228568145621,250.06144771029625,291.32795476776,279.67984700425416,57.035000000032596
311880.9157,242.8186467855332,217.10864804487494,250.50054614034866,245.05416548865225,57.036000000021886
311880.9167,199.9293182070306,175.51608197532258,200.99579944731758,200.1902546787092,57.037000000011176
311880.9177,150.18084852674832,126.93116406228049,144.6577749217535,146.9455069672631,57.038000000000466
311880.9187,95.50330395199934,73.22418434646441,83.53470248452403,87.44677836031008,57.038999999989755
311880.9197,37.95686017927587,16.416168453189805,19.80157656715049,24.006941767600175,57.04000000003725
311880.9207,-20.343342847093197,-41.39543463571952,-44.318619521823415,-40.96152127314927,57.04100000002654
311880.9217,-77.30118818925735,-98.11095489588091,-106.63254258850506,-105.03318255562637,57.04200000001583
311880.9227,-130.91036490182807,-151.70053930668945,-165.0507069338371,-165.85411710070144,57.04300000000512
311880.9237,-179.32016780897428,-200.27218509377198,-217.656284779485,-221.2219111120386,57.04399999999441
311880.9247,-220.89477143155744,-242.13410997814702,-262.76673229904816,-269.1592087573611,57.0449999999837
311880.9257,-254.26463212419876,-275.84994732761584,-298.9867110520648,-307.9789581838059,57.0460000000312
311880.9267,-278.36883314773144,-300.28537139176274,-325.25098257422155,-336.339672820478,57.04700000002049
311880.9277,-292.4873260315338,-314.64486397398855,-340.8561528236648,-353.2891732652344,57.04800000000978
311880.9287,-296.26215953567066,-318.4974534432538,-345.48034960636227,-358.29544247998734,57.04899999999907
311880.9297,-289.7069495094495,-311.7904168738766,-339.1901491686556,-351.2634396561403,57.04999999998836
311880.9307,-273.2040525793092,-294.85016106242796,-322.43434579313436,-332.53700054600404,57.051000000035856
311880.9317,-247.48918216287913,-268.3698062892264,-296.0244934315068,-302.88532184188205,57.052000000025146
311880.9327,-213.62355620125902,-233.38339578006773,-261.1025460527391,-263.47399112750793,57.053000000014435
311880.9337,-172.95409038862735,-191.22713908967552,-219.0963782720555,-215.8210757141825,57.054000000003725
311880.9347,-127.06263456391638,-143.48865092653458,-171.6644639510196,-161.73940315997302,57.054999999993015
311880.9357,-77.70576782254044,-91.94573771073904,-120.63150174926561,-103.2668205125084,57.055999999982305
311880.9367,-26.747184956344608,-38.49687196026205,-67.91726901733425,-42.586865253783074,57.0570000000298
311880.9377,23.914817817211606,14.913967062757143,-15.46142012688576,18.057130615357337,57.05800000001909
311880.9387,72.42185890829803,66.37496702640138,34.85271731672906,76.45100135849195,57.05900000000838
311880.9397,117.02882371037715,114.08325174398544,81.27209121941425,130.4979450308461,57.05999999999767
311880.9407,156.17277871393208,156.41720536761338,122.24232034257022,178.30199566121448,57.06099999998696
311880.9417,188.53424373415135,192.00089047756452,156.46737734103147,218.24289111203413,57.06200000003446
311880.9427,213.08787876122702,219.75738839328636,182.95772573490532,249.03876709352514,57.06300000002375
311880.9437,229.1400861325814,238.94838173451248,201.06457875749857,269.7936358779825,57.06400000001304
311880.9447,236.3516372925759,249.1979695766107,210.49860321557748,280.02733047490153,57.06500000000233
311880.9457,234.74417359559553,250.49951645918023,211.33216472312546,279.6864718693586,57.06599999999162
311880.9467,224.69025905305332,243.2052386180185,203.98505668051436,269.13599678545256,57.06699999998091
311880.9477,206.8875289376394,227.9991671646532,189.19452254615746,249.13180648333923,57.068000000028405
311880.9487,182.31832754016554,205.85503838516496,167.97121515083055,220.77609969886421,57.069000000017695
311880.9497,152.19700738128734,177.98148700426185,141.54348535226322,185.45787213577972,57.070000000006985
311880.9507,117.90772133759343,145.75760582312313,111.2930077427441,144.7818432456321,57.070999999996275
311880.9517,80.93603663694991,110.66244048915206,78.68519440959787,100.48965978597877,57.071999999985565
311880.9527,42.79800412216655,74.20227936783547,45.19809098470055,54.37758850044535,57.07300000003306
311880.9537,4.970408591848562,37.839657828758554,12.253477334418678,8.215025426154478,57.07400000002235
311880.9547,-31.17419904551894,2.9278212013300857,-18.846293081737343,-36.331989139197525,57.07500000001164
311880.9557,-64.42442128394856,-29.346006123807346,-46.97257347140959,-77.76844290501263,57.07600000000093
311880.9567,-93.77614050751846,-58.00578956595173,-71.21325282791193,-114.82600376961848,57.07699999999022
311880.9577,-118.46578387578634,-82.318282436034,-90.9022761125123,-146.5042228817538,57.07800000003772
311880.9587,-137.989445403732,-101.80989805632423,-105.63480715464551,-172.09576571585302,57.07900000002701
311880.9597,-152.1074326555932,-116.2686052115093,-115.26784034651786,-191.19512369840143,57.0800000000163
311880.9607,-160.83466153337267,-125.73149309952312,-119.90691248108664,-203.69124068931592,57.08100000000559
311880.9617,-164.41813203789602,-130.4594837870198,-119.88034906293167,-209.74541383857564,57.08199999999488
311880.9627,-163.30342984019498,-130.90138442775645,-115.70315155141198,-209.75663834870394,57.08299999998417
311880.9637,-158.09276908529085,-127.65002414397473,-108.03315265444917,-204.31721020761685,57.084000000031665
311880.9647,-149.49748707743845,-121.39357906235772,-97.62240614369418,-194.16184175506174,57.085000000020955
311880.9657,-138.28809981271903,-112.86533496763185,-85.266918751596,-180.1137585679561,57.086000000010245
311880.9667,-125.24502118796853,-102.79506696176833,-71.75777160773744,-163.03122567480608,57.086999999999534
311880.9677,-111.1128450961314,-91.86494123931634,-57.836428542907996,-143.75770653999936,57.087999999988824
311880.9687,-96.56070934325001,-80.6723916604409,-44.15661265924286,-123.07841554125726,57.08900000003632
311880.9697,-82.15073626330786,-69.7018312859787,-31.254586027194726,-101.68542337918676,57.09000000002561
311880.9707,-68.31591916776074,-59.306373359336874,-19.52903341910407,-80.1527647842776,57.0910000000149
311880.9717,-55.34814411942685,-49.70000933522397,-9.231077229425008,-58.92223474978395,57.09200000000419
311880.9727,-43.39635244111163,-40.959976284650544,-0.4642853021840844,-38.29980034715588,57.09299999999348
311880.9737,-32.47420806120684,-33.03839190873046,6.806078833700304,-18.46185371184026,57.09399999998277
311880.9747,-22.476076595911145,-25.781685062996132,12.7358345613801,0.5300656383935378,57.09500000003027
311880.9757,-13.199682549552474,-18.95593578235265,17.578363048301668,18.707908688129617,57.09600000001956
311880.9767,-4.373509059182301,-12.275982010056241,21.65671929707228,36.171239645611884,57.09700000000885
311880.9777,4.313148499372265,-5.436058407790785,25.333426241624725,53.05909151449653,57.09799999999814
311880.9787,13.179569161149283,1.8601991040066665,28.97997449679719,69.52175856595208,57.09899999998743
311880.9797,22.524396730118603,9.87233744072675,32.947898897720385,85.69453498911939,57.100000000034925
311880.9807,32.59955075230868,18.799883652260473,37.54304506354336,101.67508993504575,57.101000000024214
311880.9817,43.588639203408256,28.76456520434516,43.0043030781868,117.505759544464,57.102000000013504
311880.9827,55.59085947354822,39.79870000864704,49.48770107616088,133.1615742243656,57.103000000002794
311880.9837,68.61095299501012,51.84002941199589,57.05634957121154,148.54436327072654,57.103999999992084
311880.9847,82.55536198361482,64.7328189266083,65.67633652748108,163.48282581122254,57.10499999998137
311880.9857,97.23435235232577,78.23465926196346,75.21831860861074,177.73805924657105,57.10600000002887
311880.9867,112.36953830135162,92.02808860303652,85.4642559013151,191.01371942823468,57.10700000001816
311880.9877,127.60598876108982,105.73594229315462,96.1185098676785,202.96976790937995,57.10800000000745
311880.9887,142.5279242267352,118.93922535820185,106.82237499908068,213.23864866011115,57.10899999999674
311880.9897,156.67692774151047,131.19629479613477,117.1710446928963,221.44272806755578,57.10999999998603
311880.9907,169.57159184969612,142.06222191464602,126.73201606856196,227.21191728520697,57.11100000003353
311880.9917,180.72759373124714,151.10736269460864,135.06400611897993,230.2005567509933,57.11200000002282
311880.9927,189.67731761090002,157.93437331876362,141.73556778325818,230.10285481819687,57.11300000001211
311880.9937,195.9883074149666,162.1931427396355,146.34274145905823,226.6664083954542,57.1140000000014
311880.9947,199.2800123859933,163.5933481080722,148.52523634244147,219.70356510687162,57.11499999999069
311880.9957,199.23846333370219,161.9145478038528,147.98078880775554,209.1005878408528,57.116000000038184
311880.9967,195.62866940644932,157.01389094766273,144.4774764445582,194.82473265791447,57.117000000027474
311880.9977,188.3046411829615,148.83162827157284,137.86386510971505,176.92943600106304,57.118000000016764
311880.9987,177.21701779521533,137.39465137995714,128.07692641616185,155.55782173772997,57.119000000006054
311880.9997,162.41830250539599,122.81826815996602,115.14768421859465,130.94468669916708,57.11999999999534
311881.0007,144.06569797468077,105.306351539408,99.20453630121489,103.41701779838355,57.12099999998463
311881.0017,122.4214904172576,85.14989357154856,80.47416200648382,73.39295461244015,57.12200000003213
311881.0027,97.85087627861904,62.72387811439457,59.27988200203566,41.378963723432726,57.12300000002142
311881.0037,70.81707372578231,38.482276361891614,36.03729870138809,7.964862498034853,57.12400000001071
311881.0047,41.873531899401925,12.950892616818892,11.247030839221381,-26.183753422655148,57.125
311881.0057,11.653059120488946,-13.28223812040511,-14.515623064379618,-60.33614106667007,57.12599999998929
311881.0067,-19.146251764854405,-39.57916101380205,-40.6141907025271,-93.71049664292157,57.12700000003679
311881.0077,-49.77831192679903,-65.26717374765711,-66.36768344404204,-125.49174341109736,57.12800000002608
311881.0087,-79.4693875247382,-89.65684086981314,-91.07022431359603,-154.85303475963954,57.12900000001537
311881.0097,-107.44115702077355,-112.06260531221105,-114.01326561253845,-180.98069012236334,57.13000000000466
311881.0107,-132.93588825299074,-131.82549458232782,-134.5097941433132,-203.1019464334325,57.130999999993946
311881.0117,-155.24291394591728,-148.3371551884885,-151.91970009871943,-220.5145665415113,57.131999999983236
