TimeStamp,ECR,FCR,ECU,FCU,time_index
311864.8797,6.1462741488777715,6.506628443453708,13.339421162159034,8.993572676089824,41.0
311864.8807,5.420755935006717,6.891234583548599,13.334986493328008,9.980687907899313,41.00099999998929
311864.8817,4.700597825984498,7.2366307982766545,13.203093695645672,10.889895810301663,41.00200000003679
311864.8827,4.00086099111405,7.521570121935947,12.941023759508669,11.691078423086124,41.00300000002608
311864.8837,3.326034446328239,7.715705947298189,12.539560197492273,12.347852786946797,41.00400000001537
311864.8847,2.672200431292305,7.7831855949114175,11.985484881140433,12.820985667569706,41.00500000000466
311864.8857,2.0301822585436873,7.68717927125802,11.264866710447523,13.072518167718586,41.005999999993946
311864.8867,1.3892680257377608,7.394861898115581,10.366749385019409,13.070173847300103,41.006999999983236
311864.8877,0.741045534055961,6.882309754124814,9.28679591335134,12.791582941614978,41.008000000030734
311864.8887,0.08287451237698085,6.138772748081731,8.030444994892388,12.227861481976136,41.00900000002002
311864.8897,-0.5794373267604799,5.169836900648077,6.615178570224132,11.386137476439195,41.01000000000931
311864.8907,-1.2301018741722871,3.999095265416497,5.071586503384665,10.29071199701935,41.0109999999986
311864.8917,-1.8431864172201982,2.6680891180629662,3.443035088234236,8.982671979533926,41.01199999998789
311864.8927,-2.383894752677755,1.2344508173809616,1.7838889344887185,7.517921315911172,41.01300000003539
311864.8937,-2.811213615213432,-0.23164132662500678,0.1563865603089297,5.9637527647486195,41.01400000002468
311864.8947,-3.081693530932322,-1.6524152048136014,-1.373586432244467,4.394229931792736,41.01500000001397
311864.8957,-3.1540039042369106,-2.9484377097865018,-2.7414609254988553,2.8847714529791095,41.01600000000326
311864.8967,-2.993807715673597,-4.04499622275116,-3.8892313647585524,1.5064161430870417,41.01699999999255
311864.8977,-2.578451539702308,-4.878341785024262,-4.7704889797461885,0.32028930750418805,41.01799999998184
311864.8987,-1.9009671873861986,-5.401208315936094,-5.354748038735786,-0.6272179262486572,41.01900000002934
311864.8997,-0.9729326896447016,-5.587080358030922,-5.630624901748091,-1.3081022504314876,41.02000000001863
311864.9007,0.1741619197509273,-5.432791506697534,-5.607526578060076,-1.7148830286558336,41.021000000007916
311864.9017,1.4892635820064422,-4.959186648827008,-5.315637576387737,-1.8610037377651474,41.021999999997206
311864.9027,2.9038801335421573,-4.209759046396661,-4.804148637430947,-1.7794444648370535,41.022999999986496
311864.9037,4.3358709086057035,-3.247361116010369,-4.137833723628617,-1.5196557668154589,41.02400000003399
311864.9047,5.694634600529561,-2.149267398591804,-3.392236795466001,-1.143080873834482,41.02500000002328
311864.9057,6.887286819454487,-1.0010223358037658,-2.647862450495594,-0.7176655992025319,41.02600000001257
311864.9067,7.825318279908536,0.1103808545678966,-1.9838615597451237,-0.3118505703379287,41.02700000000186
311864.9077,8.431169810141993,1.1033817234385335,-1.4717550801574402,0.011410779641040498,41.02799999999115
311864.9087,8.644158040511302,1.9081814423572065,-1.1697410139304631,0.2000674545539938,41.02900000003865
311864.9097,8.425236289963662,2.471959270107502,-1.118080598029504,0.2173319498477302,41.03000000002794
311864.9107,7.760174286169323,2.762523281351949,-1.3359646754189676,0.04459936824305169,41.03100000001723
311864.9117,6.6608786785886895,2.770090991937168,-1.8201287062878364,-0.31732692410410895,41.03200000000652
311864.9127,5.164740768587569,2.507072735820041,-2.5453275033376794,-0.8487949105874888,41.03299999999581
311864.9137,3.3320728656656144,2.0059189468964034,-3.466613399151616,-1.5135727890742816,41.0339999999851
311864.9147,1.241863526237198,1.3152736513702108,-4.523200018532157,-2.262591284991228,41.035000000032596
311864.9157,-1.0137714289055508,0.4948329692534989,-5.643553409595662,-3.038787238000887,41.036000000021886
311864.9167,-3.335954701259105,-0.3905758327546199,-6.751246212640461,-3.7825764264647193,41.037000000011176
311864.9177,-5.625678673506918,-1.277113387546196,-7.771048714180412,-4.4374297729054835,41.038000000000466
311864.9187,-7.790138843473803,-2.1076553371412765,-8.634718654011143,-4.955024324580443,41.038999999989755
311864.9197,-9.748247842061515,-2.836586473379762,-9.285990301658941,-5.2994887611819035,41.04000000003725
311864.9207,-11.434898349851657,-3.4332224639826325,-9.684348466422522,-5.450357676876107,41.04100000002654
311864.9217,-12.803672608201735,-3.883563598329627,-9.80729612807166,-5.403980025767208,41.04200000001583
311864.9227,-13.827851914055007,-4.190256700348171,-9.650973003519988,-5.173281828063796,41.04300000000512
311864.9237,-14.499745889483005,-4.370823694023827,-9.229141893813514,-4.785946127541901,41.04399999999441
311864.9247,-14.828521837961356,-4.454390019176671,-8.57071439767348,-4.281228108648408,41.0449999999837
311864.9257,-14.836853223654982,-4.477295702495294,-7.71612241215555,-3.7057548877561763,41.0460000000312
311864.9267,-14.556809591413463,-4.478081432217229,-6.712943711035915,-3.108754804228455,41.04700000002049
311864.9277,-14.025468080594415,-4.492400529036569,-5.611249097178412,-2.5372107208248216,41.04800000000978
311864.9287,-13.280733725253048,-4.54840944781543,-4.459149782364687,-2.0314311563629825,41.04899999999907
311864.9297,-12.357811822494774,-4.66313431159374,-3.298986217891814,-1.621482342932699,41.04999999998836
311864.9307,-11.28668584875098,-4.840204651703799,-2.16451793119096,-1.324828893981554,41.051000000035856
311864.9317,-10.090828469187562,-5.0691988817136995,-1.0793568078457818,-1.1454005632064634,41.052000000025146
311864.9327,-8.787224582981677,-5.326674054851521,-0.05674602939078755,-1.074150956102048,41.053000000014435
311864.9337,-7.387629871137828,-5.578772734881519,0.899361839837604,-1.0910165778774779,41.054000000003725
311864.9347,-5.900842468874654,-5.785130767589802,1.7921158999031994,-1.1680374042852062,41.054999999993015
311864.9357,-4.33564468990197,-5.903668754642463,2.6287755507153223,-1.2732783390745581,41.055999999982305
311864.9367,-2.703989115689756,-5.895751679858031,3.4173113256450605,-1.3751069850961675,41.0570000000298
311864.9377,-1.0239678310262694,-5.731155705626422,4.163035778543059,-1.4463457619932434,41.05800000001909
311864.9387,0.6778807302298713,-5.392293585880628,4.865698136246029,-1.4678294701105694,41.05900000000838
311864.9397,2.3653071503204846,-4.877219516192244,5.5174252883798145,-1.4309617061957784,41.05999999999767
311864.9407,3.992399074299406,-4.201053868877866,6.101798766995947,-1.338968840986397,41.06099999998696
311864.9417,5.50507040218552,-3.395626336678678,6.594232184367025,-1.206687941056383,41.06200000003446
311864.9427,6.843959889083977,-2.5073167949753707,6.9636689948908135,-1.058881107820376,41.06300000002375
311864.9437,7.948545508476925,-1.5932585928499576,7.17547131000344,-0.927227350395416,41.06400000001304
311864.9447,8.762134174563954,-0.7162403495168447,7.195232246303087,-0.8462881177489022,41.06500000000233
311864.9457,9.237270326374736,0.06121767456792591,6.993131341027207,-0.8488590982214324,41.06599999999162
311864.9467,9.341034061432152,0.6830422463573861,6.548376885170793,-0.9611967459222,41.06699999998091
311864.9477,9.059678391700016,1.105431685554111,5.853248905782899,-1.198635104511847,41.068000000028405
311864.9487,8.402089138458816,1.3017381826180643,4.916275780535843,-1.5620835711714582,41.069000000017695
311864.9497,7.401637906717534,1.2658993866564763,3.7641449980236565,-2.035821130978037,41.070000000006985
311864.9507,6.116131125084424,1.014041447357915,2.442058479382321,-2.586884136854661,41.070999999996275
311864.9517,4.62572434185491,0.5840452434498535,1.0123849813972112,-3.1661940916677453,41.071999999985565
311864.9527,3.0288553979240476,0.03305971823587344,-0.44837705155697194,-3.7114035456621073,41.07300000003306
311864.9537,1.4364353204624365,-0.5668574369269177,-1.8541486832240768,-4.151268455574332,41.07400000002235
311864.9547,-0.035295951865969136,-1.1346100717190515,-3.1150027510520957,-4.411200742566757,41.07500000001164
311864.9557,-1.272706940483618,-1.5869342697080648,-4.143626308354653,-4.419530580483054,41.07600000000093
311864.9567,-2.1728747255395526,-1.8456571326696334,-4.861976379913394,-4.113926564033212,41.07699999999022
311864.9577,-2.6511848210201374,-1.84468684371842,-5.207556802947996,-3.4473917220257495,41.07800000003772
311864.9587,-2.647794864822131,-1.5360945458698871,-5.138761235772899,-2.393277848921933,41.07900000002701
311864.9597,-2.132410971761646,-0.8947264299721721,-4.63879646453712,-0.9488380842857979,41.0800000000163
311864.9607,-1.1069610132410894,0.07908437746338727,-3.717815042397292,0.8630387650816183,41.08100000000559
311864.9617,0.3940769066405386,1.3589643088484553,-2.4130367708920843,2.994110287369914,41.08199999999488
311864.9627,2.3057356061946472,2.894165420305465,-0.7868108602315362,5.373098531289994,41.08299999998417
311864.9637,4.536852535981954,4.613309102886554,1.077251072521947,7.909881727461025,41.084000000031665
311864.9647,6.976250469396737,6.429875529254081,3.0797731771660817,10.501228961427087,41.085000000020955
311864.9657,9.500301693769254,8.248948044014556,5.112304933934196,13.03760817799199,41.086000000010245
311864.9667,11.981259247630074,9.974608928239718,7.064659703572895,15.410501499137856,41.086999999999534
311864.9677,14.295680856123703,11.517326870698174,8.83230587470734,17.51961703053918,41.087999999988824
311864.9687,16.33227341040639,12.800682208989514,10.323213769563749,19.279397310358085,41.08900000003632
311864.9697,17.998547524986645,13.7668428015988,11.463614430314559,20.62429023747413,41.09000000002561
311864.9707,19.225786769715487,14.3803246709242,12.202227648655358,21.512362452294518,41.0910000000149
311864.9717,19.97199356257566,14.629735552997388,12.512656480418768,21.92698691056952,41.09200000000419
311864.9727,20.22265851298149,14.527390400800952,12.393810784344609,21.876511438826984,41.09299999999348
311864.9737,19.989394871714218,14.106887404569301,11.868397506478788,21.391996886026654,41.09399999998277
311864.9747,19.306666533861133,13.418922159950386,10.979684139056454,20.523285013583482,41.09500000003027
311864.9757,18.226999546344416,12.525778267417921,9.786888387719095,19.33380147600204,41.09600000001956
311864.9767,16.81518863436235,11.495049729392226,8.359658172443478,17.89460469955489,41.09700000000885
311864.9777,15.142081146031854,10.393213130460948,6.772171736735324,16.27824758327458,41.09799999999814
311864.9787,13.27853519936619,9.279670140073794,5.097402326872384,14.553020894825073,41.09899999998743
311864.9797,11.290106308772799,8.201823580044694,3.402055018331544,12.778095377676227,41.100000000034925
311864.9807,9.232922405471411,7.191639138135503,1.7425991365351476,10.999979425646469,41.101000000024214
311864.9817,7.151070889457627,6.263990945104158,0.1626971589083431,9.25057080225602,41.102000000013504
311864.9827,5.075657018911875,5.416907904403054,-1.307817578918373,7.546917968660427,41.103000000002794
311864.9837,3.025516973228397,4.633646699575124,-2.6524218027464164,5.892635085159016,41.103999999992084
311864.9847,1.0093986947124054,3.8863354889959387,-3.866004458937435,4.28075134011691,41.10499999998137
311864.9857,-0.9707242254250673,3.140777160193968,-4.95188817257656,2.6976357235236397,41.10600000002887
311864.9867,-2.9156514755042364,2.361887715105748,-5.918170661607893,1.1275360829686552,41.10700000001816
311864.9877,-4.8247774161393355,1.519184827373513,-6.7738467243675835,-0.4427840267841724,41.10800000000745
311864.9887,-6.692255145386919,0.5917396100292981,-7.5251832142168125,-2.019830478500748,41.10899999999674
311864.9897,-8.503980142089855,-0.42793881447246196,-8.172782303997257,-3.6000567242534434,41.10999999998603
311864.9907,-10.235777917733492,-1.531506934845531,-8.709686423388437,-5.1678102942310495,41.11100000003353
311864.9917,-11.853047986690674,-2.6941482387089875,-9.120760050162424,-6.694789955993669,41.11200000002282
311864.9927,-13.311958125265997,-3.8757834916343104,-9.383441159852064,-8.141098782295455,41.11300000001211
311864.9937,-14.562114332349054,-5.0240331552960065,-9.469803080987736,-9.457812850755573,41.1140000000014
311864.9947,-15.550470130519571,-6.078656432770385,-9.349721212364996,-10.590827705889566,41.11499999999069
311864.9957,-16.226100185698026,-6.977039444833776,-8.99481340881176,-11.485610647491185,41.116000000038184
311864.9967,-16.545361724087826,-7.6601948822907975,-8.382730658806805,-12.092389642672849,41.117000000027474
311864.9977,-16.476913266168772,-8.078678110787727,-7.501325463674638,-12.371258846879329,41.118000000016764
311864.9987,-16.006059459120106,-8.197825926954767,-6.352224313058167,-12.296681451923215,41.119000000006054
311864.9997,-15.13794368432245,-8.00178403907933,-4.953378262333955,-11.860922881381722,41.11999999999534
311865.0007,-13.899211741693266,-7.495902179300266,-3.340257428233872,-11.076046180826586,41.12099999998463
311865.0017,-12.337910522571882,-6.70723065224499,-1.565482380167987,-9.974237181560737,41.12200000003213
311865.0027,-10.52155154673639,-5.683034051487712,0.3031644829201824,-8.60638639875984,41.12300000002142
311865.0037,-8.53344438052805,-4.487429124284598,2.186246140744836,-7.039022074461846,41.12400000001071
311865.0047,-6.467572143066773,-3.196435693566721,3.9974443395653276,-5.349847909520231,41.125
311865.0057,-4.4224241515579745,-1.8918843987466616,5.649218058038435,-3.6222742731189377,41.12599999998929
311865.0067,-2.4943052076063927,-0.6547376630177707,7.058872300621831,-1.9394297987411795,41.12700000003679
311865.0077,-0.7706967645024589,0.4415602928139938,8.154513230516134,-0.3781916715732187,41.12800000002608
311865.0087,0.6757533409366501,1.337088240704691,8.880365868425145,0.9962274433708102,41.12900000001537
311865.0097,1.792089058928111,1.9902502491586924,9.200980477938005,2.134649958821011,41.13000000000466
311865.0107,2.5483314042079503,2.380930610318909,9.103948732581411,3.006874249590368,41.130999999993946
311865.0117,2.938912549463655,2.5117116028733366,8.600881840070866,3.602934432444195,41.131999999983236
311865.0127,2.982149044716579,2.4070471324756864,7.7265575205280035,3.932587128193563,41.133000000030734
311865.0137,2.717822985255898,2.1104781965712833,6.536306358124152,4.023101078826092,41.13400000002002
311865.0147,2.203111254315248,1.680160493426319,5.101864992204841,3.9155852456205156,41.13500000000931
311865.0157,1.507250672289586,1.183132577794469,3.506058981525168,3.6602272480400475,41.1359999999986
311865.0167,0.7054369287917389,0.6888695736218414,1.8367791786789056,3.310913558796766,41.13699999998789
311865.0177,-0.12748281412168527,0.2627314481545367,0.1807726574009328,2.919756199510767,41.13800000003539
311865.0187,-0.9229554547452491,-0.040079785501686206,-1.3822225347442954,2.5320527750224056,41.13900000002468
311865.0197,-1.623783264597468,-0.17949315615215847,-2.784510705799442,2.182157556760126,41.14000000001397
311865.0207,-2.18787376421413,-0.1340184601726497,-3.9742380938467954,1.8906460043853608,41.14100000000326
311865.0217,-2.590385757256186,0.0976309494106136,-4.91767951666261,1.6630231406147113,41.14199999999255
311865.0227,-2.824140141466832,0.49686759964460225,-5.599879874400934,1.49007067616772,41.14299999998184
311865.0237,-2.898335380106194,1.0274478030309786,-6.02367510669965,1.3497641057051208,41.14400000002934
311865.0247,-2.835772125495466,1.6393329101737026,-6.207268642529204,1.2105353073190572,41.14500000001863
311865.0257,-2.668933273614299,2.273792742933407,-6.180670803796583,1.035523794989266,41.146000000007916
311865.0267,-2.435370859890997,2.8692344212430014,-5.981407466706228,0.7873636782371066,41.146999999997206
311865.0277,-2.172909536703324,3.367175702584112,-5.6499612660752305,0.43300294924251076,41.147999999986496
311865.0287,-1.91518244631862,3.7177753975213292,-5.22541864495529,-0.05194820996830162,41.14900000003399
311865.0297,-1.6879688847655479,3.8843847495226345,-4.7417586670454694,-0.6797929840213011,41.15000000002328
311865.0307,-1.5067092467346144,3.846687518210815,-4.225138974156956,-1.448604587391699,41.15100000001257
311865.0317,-1.3754410890009392,3.6021423663587426,-3.6924190909610766,-2.3415900212120815,41.15200000000186
311865.0327,-1.2872442526860837,3.165614387875002,-3.151023359914618,-3.328033156773727,41.15299999999115
311865.0337,-1.226118761320801,2.5672659220761376,-2.6000992480741134,-4.365728462840932,41.15400000003865
311865.0347,-1.1700634088908632,1.8489519152788592,-2.0327865288919025,-5.404664653371508,41.15500000002794
311865.0357,-1.0949914746346674,1.059514597239117,-1.4392931538832434,-6.3915895222110946,41.15600000001723
311865.0367,-0.9790263247311546,0.24948128756863694,-0.8103866468610981,-7.274996027767405,41.15700000000652
311865.0377,-0.8066734841322896,-0.5342730800010851,-0.14086443219768047,-8.010024429140943,41.15799999999581
311865.0387,-0.5723720336626783,-1.253336344536907,0.5674326796296276,-8.562780548751192,41.1589999999851
311865.0397,-0.2829866031884044,-1.88153630121708,1.3034525612859138,-8.913625640909718,41.160000000032596
311865.0407,0.041093752811312945,-2.407286240772132,2.045909430042481,-9.05909351599558,41.161000000021886
311865.0417,0.36644214622916765,-2.8342487590399745,2.763585710012702,-9.012225703605507,41.162000000011176
311865.0427,0.6486945076516267,-3.1802419850099697,3.4169947226701876,-8.801272254920283,41.163000000000466
311865.0437,0.8361230539124219,-3.474495086364699,3.9612926485671873,-8.466868827028767,41.163999999989755
311865.0447,0.8743824416315229,-3.753532804448216,4.35018889390283,-8.057953841253035,41.16500000003725
311865.0457,0.7119966573551852,-4.056114465923525,4.540487875391368,-7.626817566449457,41.16600000002654
311865.0467,0.3060635076201925,-4.417756667962606,4.496814426092249,-7.223765166749769,41.16700000001583
311865.0477,-0.37238730273834897,-4.865419983956294,4.196038229734684,-6.891918969706688,41.16800000000512
311865.0487,-1.3339322693933475,-5.412933092482963,3.6309243119209467,-6.662676935685354,41.16899999999441
311865.0497,-2.5676693309088874,-6.0576629181413,2.812596274902362,-6.552285061021443,41.1699999999837
311865.0507,-4.039873799281559,-6.778822634142453,1.7715014967170513,-6.559876745943051,41.1710000000312
311865.0517,-5.694603226905572,-7.537651820011941,0.556703448861705,-6.667191998918523,41.17200000002049
311865.0527,-7.456280839063776,-8.279519894834213,-0.7665172735983684,-6.840027237965005,41.17300000000978
311865.0537,-9.234102181049435,-8.937812982154968,-2.1206097359511356,-7.031298093875553,41.17399999999907
311865.0547,-10.927936025905343,-9.439284322095366,-3.420952241696967,-7.185439402841592,41.17499999998836
311865.0557,-12.43524515775664,-9.710397007550403,-4.581883402834702,-7.243733960094788,41.176000000035856
311865.0567,-13.65844960522143,-9.684080282388331,-5.523055001151863,-7.150067629304066,41.177000000025146
311865.0577,-14.512104500054498,-9.306267828959843,-6.175555465564005,-6.856562401938635,41.178000000014435
311865.0587,-14.92927224944264,-8.541594060890796,-6.487262805767426,-6.328545697346318,41.179000000003725
311865.0597,-14.866533895745603,-7.377692258020857,-6.426946951705084,-5.548373220962752,41.179999999993015
311865.0607,-14.307201641374158,-5.827660414898733,-5.986748310018464,-4.517728620945651,41.180999999982305
311865.0617,-13.262452803594043,-3.9304256090200598,-5.182802169654693,-3.2581660124397747,41.1820000000298
311865.0627,-11.770290230726683,-1.7489299963088059,-4.053944056781898,-1.8098275793934044,41.18300000001909
311865.0637,-9.892428183929887,0.6337370551589065,-2.658603700592475,-0.22844202084478898,41.18400000000838
311865.0647,-7.709387672912434,3.1199449108626633,-1.0701586301711932,1.4191260864273105,41.18499999999767
311865.0657,-5.314243854810636,5.604387116976108,0.6288428882607627,3.06036671775735,41.18599999998696
311865.0667,-2.8055854730500873,7.98160912370501,2.353078988863733,4.623144666294595,41.18700000003446
311865.0677,-0.2803114503822085,10.153538038065848,4.020907325001561,6.0416873717853825,41.18800000002375
311865.0687,2.173103353220817,12.036352924741637,5.560308976132711,7.261979241764203,41.18900000001304
311865.0697,4.480293019805286,13.56609496507669,6.913809304348873,8.246056147473363,41.19000000000233
311865.0707,6.585161296953603,14.702533886793008,8.041960778990425,8.974796964011457,41.19099999999162
311865.0717,8.452192163957132,15.430969367509523,8.92510967538897,9.448950864345658,41.19199999998091
311865.0727,10.06676210593123,15.761838133147904,9.56333039677574,9.68830606098575,41.193000000028405
311865.0737,11.433495870309164,15.728200911874241,9.974582548169316,9.729081879283637,41.194000000017695
311865.0747,12.572891317646832,15.381378881969244,10.191310531205728,9.61979461018184,41.195000000006985
311865.0757,13.516599294832565,14.785178179345483,10.2558477609964,9.415992423450252,41.195999999996275
311865.0767,14.301866145040616,14.00926740770291,10.215094264035011,9.174361900724438,41.196999999985565
311865.0777,14.965718203212539,13.12234505211736,10.11499751330651,8.946768257594368,41.19800000003306
311865.0787,15.539482947023208,12.185744634154046,9.995376422411047,8.77479744325838,41.19900000002235
311865.0797,16.04419937827992,11.248074655139684,9.885586905404452,8.685320537961198,41.20000000001164
311865.0807,16.487375220477862,10.341383089038596,9.801438712385936,8.6875038783768,41.20100000000093
311865.0817,16.861410212409186,9.47918305857181,9.743646269013098,8.7715514952888,41.20199999999022
311865.0827,17.143836832667624,8.656492373031204,9.697943491269196,8.909302896566395,41.20300000003772
311865.0837,17.299348636145716,7.8518427305208185,9.636828911569001,9.056634626664428,41.20400000002701
311865.0847,17.283409600801058,7.031023641592035,9.522748771139023,9.15744502464601,41.2050000000163
311865.0857,17.047082495192345,6.152159857693348,9.312387242485128,9.148854210009858,41.20600000000559
311865.0867,16.542595113631236,5.171595145918272,8.96162781830716,8.96713941424304,41.20699999999488
311865.0877,15.72909150374807,4.049981493127523,8.430687992682543,8.553859727495071,41.20799999998417
311865.0887,14.577997578643858,2.7579579652690143,7.688916269384532,7.861610061617085,41.209000000031665
311865.0897,13.077468041249498,1.2808484540596292,6.718777098738082,6.858882553454481,41.210000000020955
311865.0907,11.235470276021484,-0.37809243639350365,5.518631591159891,5.53360059419035,41.211000000010245
311865.0917,9.08119178605027,-2.19621122740492,4.104041406230421,3.895017394924261,41.211999999999534
311865.0927,6.66461786379921,-4.131915675983904,2.507468136538875,1.973824967175455,41.212999999988824
311865.0937,4.054299754607297,-6.127025228157945,0.7763964861315307,-0.1795144076352579,41.21400000003632
311865.0947,1.3335037095286322,-8.110790659156809,-1.029938691789116,-2.4980397607170657,41.21500000002561
311865.0957,-1.4049183791016626,-10.00520151626821,-2.8449086297474224,-4.902848524841899,41.2160000000149
311865.0967,-4.064479932633878,-11.73107810968171,-4.599516219568648,-7.30851122901835,41.21700000000419
311865.0977,-6.5513042903986936,-13.214372773300724,-6.227617230912418,-9.628848359695647,41.21799999999348
311865.0987,-8.780115280461631,-14.39208947165545,-7.67085046788354,-11.782555008847968,41.21899999998277
311865.0997,-10.679458972462822,-15.217272534878951,-8.882824695141501,-13.698189541320149,41.22000000003027
311865.1007,-12.195723466916439,-15.662609730502664,-9.832188373680914,-15.318118761978418,41.22100000001956
311865.1017,-13.295645315840526,-15.722332292648543,-10.504321971542726,-16.60112559883396,41.22200000000885
311865.1027,-13.967140527476788,-15.412261079576613,-10.901530261558852,-17.52352423387625,41.22299999999814
311865.1037,-14.21846001885561,-14.76802715089469,-11.041759720523526,-18.078777661435705,41.22399999998743
311865.1047,-14.075827711703814,-13.841669098682916,-10.956009151895856,-18.275758688062147,41.225000000034925
311865.1057,-13.579858626247168,-12.696961442240804,-10.68472580261732,-18.135922880899805,41.226000000024214
311865.1067,-12.781160802086541,-11.403943630310687,-10.273572358984062,-17.689758459193122,41.227000000013504
311865.1077,-11.735588561765216,-10.033186750998965,-9.769003302289539,-16.9729344312574,41.228000000002794
311865.1087,-10.499629814739466,-8.65034877567547,-9.214097266604755,-16.02257941024423,41.228999999992084
311865.1097,-9.126375986276436,-7.3115282629716525,-8.645054891999235,-14.87408914124458,41.22999999998137
311865.1107,-7.662443925966455,-6.0598355290525,-8.08869338518886,-13.558785122078024,41.23100000002887
311865.1117,-6.146103501131648,-4.923468876203424,-7.5611578814255065,-12.102638251482743,41.23200000001816
311865.1127,-4.606724827194838,-3.915425045181607,-7.067937311281337,-10.526141927043474,41.23300000000745
311865.1137,-3.0655099071447376,-3.034803707782969,-6.605132476755476,-8.845282253258098,41.23399999999674
311865.1147,-1.537330395343057,-2.269502642452825,-6.161790815877294,-7.073423485968692,41.23499999998603
311865.1157,-0.033371118125415315,-1.5999596460186662,-5.723009539873519,-5.223818206501324,41.23600000003353
311865.1167,1.4358094700765576,-1.0034933204481518,-5.27342801939758,-3.312375471213441,41.23700000002282
311865.1177,2.8572363566532233,-0.45873801145568294,-4.800689774296431,-1.3602844528228553,41.23800000001211
311865.1187,4.212925066500769,0.05033600422609364,-4.298458389320712,0.603900161943689,41.2390000000014
311865.1197,5.478121810217585,0.5312771624233948,-3.7686198215330293,2.543052146925803,41.23999999999069
311865.1207,6.620667693386809,0.9812453603701067,-3.2223910758049903,4.411396888454798,41.241000000038184
311865.1217,7.601652780716287,1.386571168911778,-2.6801732741836024,6.155692638764896,41.242000000027474
311865.1227,8.377380197917294,1.72385057678772,-2.1701237581538457,7.717660623047245,41.243000000016764
311865.1237,8.902509423344489,1.9624769116729004,-1.7255631072596036,9.037513442088922,41.244000000006054
311865.1247,9.134107126439964,2.0683531412625196,-1.381464328965354,10.058301389202336,41.24499999999534
311865.1257,9.036218118799129,2.008394581655238,-1.1703793450617719,10.73069159484874,41.24599999998463
311865.1267,8.584490591027244,1.7553379423472961,-1.1182308846923532,11.017726586678469,41.24700000003213
311865.1277,7.770357580220319,1.2923275660775098,-1.240428003798429,10.899084651961216,41.24800000002142
311865.1287,6.604294782776122,0.6167587497076061,-1.5387469139578156,10.374387737681475,41.24900000001071
311865.1297,5.117742637800646,-0.2570791749231695,-1.9993564777858162,9.46517224247767,41.25
311865.1307,3.363392339073105,-1.2969064972345152,-2.5922650570062786,8.215248044841681,41.25099999998929
311865.1317,1.413680928032565,-2.4531017521130414,-3.2723319177864756,6.689311492425046,41.25200000003679
311865.1327,-0.6424937664194267,-3.6611222515466166,-3.9818348305378084,4.969835729871705,41.25300000002608
311865.1337,-2.7046576619832665,-4.8455459810682795,-4.6544305409022835,3.1524216720141567,41.25400000001537
311865.1347,-4.666906003689273,-5.9254182437017375,-5.220201671828264,1.339939714774611,41.25500000000466
311865.1357,-6.424841493095377,-6.820448392640547,-5.6113666351676414,-0.3640884261552374,41.255999999993946
311865.1367,-7.882747111119073,-7.457505992809746,-5.768150222719051,-1.8623384096168871,41.256999999983236
311865.1377,-8.960396412499241,-7.776821783501776,-5.644280103536489,-3.070200761660631,41.258000000030734
311865.1387,-9.598919273389553,-7.737311850304725,-5.211592467979322,-3.921424316088915,41.25900000002002
311865.1397,-9.76521025233362,-7.320512883853331,-4.463297684475418,-4.372411767700043,41.26000000000931
311865.1407,-9.454484121743736,-6.532736213750298,-3.415568421838736,-4.404806702306256,41.2609999999986
311865.1417,-8.69073833670328,-5.405207405923832,-2.107258279437158,-4.026158642799439,41.26199999998789
311865.1427,-7.5250611418900215,-3.9921416355067674,-0.5977252116719202,-3.268620285127263,41.26300000003539
311865.1437,-6.031910229376493,-2.3668953520515243,1.0370945491485706,-2.185803642440458,41.26400000002468
311865.1447,-4.303663105920025,-0.6165137026845983,2.710055917755809,-0.8480831652052917,41.26500000001397
311865.1457,-2.4438902110961345,1.164856489303271,4.329177345033095,0.6632310610904196,41.26600000000326
311865.1467,-0.5599113682937792,2.883111279713013,5.804480664273711,2.2623309059062553,41.26699999999255
311865.1477,1.2447448672302464,4.451261397673038,7.054716134629691,3.865391428872958,41.26799999998184
311865.1487,2.8773564425832117,5.795806707735347,8.013396765477909,5.396533122100171,41.26900000002934
311865.1497,4.261928358770483,6.861853302497075,8.633625153467227,6.79275904134919,41.27000000001863
311865.1507,5.3435536242817285,7.616530562911038,8.891302708750505,8.007463798192061,41.271000000007916
311865.1517,6.090895204743852,8.050424655064441,8.786455454501018,9.01225116262597,41.271999999997206
311865.1527,6.4966424338098685,8.176930680118257,8.342579124072007,9.796960109701997,41.272999999986496
311865.1537,6.575979249650603,8.029620316080036,7.604083308027095,10.367969939575632,41.27400000003399
311865.1547,6.363279250437619,7.657906656575467,6.632083367877174,10.7450172984478,41.27500000002328
311865.1557,5.907397322236513,7.1214453517815235,5.498933967545412,10.95689607700502,41.27600000001257
311865.1567,5.266045177597732,6.483826018967249,4.282005908307135,11.036512162878331,41.27700000000186
311865.1577,4.499807906090704,5.8061692507745795,3.057268607974743,11.0158193902811,41.27799999999115
311865.1587,3.6663745983473675,5.141246620927039,1.8932486892382239,10.921165809310839,41.27900000003865
311865.1597,2.8155174965391856,4.5286838227910735,0.8458904111332842,10.769530637120651,41.28000000002794
311865.1607,1.9852654325170283,3.9916961740390677,-0.04524919786679646,10.566036986054947,41.28100000001723
311865.1617,1.199587804052165,3.535652065392461,-0.7591694027882684,10.302993204716795,41.28200000000652
311865.1627,0.46774811487129686,3.148578530658466,-1.2938156594501238,9.960559474721475,41.28299999999581
311865.1637,-0.21468319291446555,2.8035316338486367,-1.664715449156058,9.508971498257107,41.2839999999851
311865.1647,-0.8633316190003515,2.462571406566402,-1.9020482064374162,8.912095773891673,41.285000000032596
311865.1657,-1.5013563700462023,2.081924348800839,-2.0464796869256516,8.131956374050512,41.286000000021886
311865.1667,-2.1550519662942262,1.6178011556672238,-2.144199174985813,7.133774309642404,41.287000000011176
311865.1677,-2.8492077439270855,1.0322744175199516,-2.241662000674703,5.89100696435392,41.288000000000466
311865.1687,-3.6027339049131415,0.2986165012374266,-2.3805544333421484,4.389871735490301,41.288999999989755
311865.1697,-4.425026069285672,-0.5944480934690691,-2.5934625008546823,2.632885057590756,41.29000000003725
311865.1707,-5.31345655739722,-1.6400143458502956,-2.9006448687854416,0.6410406427747629,41.29100000002654
311865.1717,-6.252258736495829,-2.8120808997321127,-3.308191232427801,-1.5456201272331924,41.29200000001583
311865.1727,-7.21292326933477,-4.0665577283897925,-3.807703885711482,-3.8691398495326372,41.29300000000512
311865.1737,-8.156067001388648,-5.344119999270545,-4.377485707237192,-6.256411254944895,41.29399999999441
311865.1747,-9.034582459141948,-6.574650536113138,-4.985068094181328,-8.623355459278446,41.2949999999837
311865.1757,-9.797743808715468,-7.682858340086369,-5.590782094179441,-10.880156828439162,41.2960000000312
311865.1767,-10.395846796609323,-8.59454608158965,-6.15197777180359,-12.937100455238957,41.29700000002049
311865.1777,-10.784905374095047,-9.242936327558121,-6.627440033432482,-14.710503589357884,41.29800000000978
311865.1787,-10.930921711949622,-9.574460497894888,-6.9815388544533965,-16.128226547744738,41.29899999999907
311865.1797,-10.8132895546234,-9.553466508546073,-7.187688559595269,-17.13429184363091,41.29999999998836
311865.1807,-10.426978822002672,-9.165405486099507,-7.2307702633105775,-17.692227902641342,41.301000000035856
311865.1817,-9.783273052253447,-8.418204458866784,-7.1082853050889545,-17.786876868145676,41.302000000025146
311865.1827,-8.9089781353086,-7.341706101448739,-6.830143666024424,-17.424552308502584,41.303000000014435
311865.1837,-7.8441759498018815,-5.985241347398252,-6.417135907963161,-16.6315876214005,41.304000000003725
311865.1847,-6.638744299792695,-4.4135779350768365,-5.898275353999581,-15.451464343788485,41.304999999993015
311865.1857,-5.347990007104518,-2.7016404655072783,-5.307314967741561,-13.940836950741058,41.305999999982305
311865.1867,-4.027832440764216,-0.9285105674709386,-4.678828752438621,-12.164864792034441,41.3070000000298
311865.1877,-2.7300209527198,0.8287215489855225,-4.044291858586371,-10.192313701139103,41.30800000001909
311865.1887,-1.4978668642965538,2.5006763702800434,-3.4285925109529938,-8.090894909365563,41.30900000000838
311865.1897,-0.3629189515323304,4.030447414770052,-2.84736250581861,-5.923267296055717,41.30999999999767
311865.1907,0.6570841362413739,5.376980131941606,-2.3054261398351406,-3.7440454552591684,41.31099999998696
311865.1917,1.5587809443211949,6.516783165812978,-1.796548877602164,-1.5980394784857506,41.31200000003446
311865.1927,2.3522214131362045,7.443856832012014,-1.3045289310872032,0.4801850819150225,41.31300000002375
311865.1937,3.058473279886125,8.167902610507417,-0.8055313044918134,2.4654826896984248,41.31400000001304
311865.1947,3.7060534930388287,8.711048537066096,-0.2714294422347109,4.34023029688892,41.31500000000233
311865.1957,4.326560525832617,9.103471642589113,0.326191785041973,6.091662233920084,41.31599999999162
311865.1967,4.9499692816454886,9.378405600382777,1.0117948696196928,7.7088231098137925,41.31699999998091
311865.1977,5.600089887575595,9.56707898380118,1.8018675276262155,9.179562599628378,41.318000000028405
311865.1987,6.290680713339207,9.694131458053834,2.7015645909362647,10.487988478209973,41.319000000017695
311865.1997,7.022645106399297,9.77400178109329,3.7024008270819766,11.612741678059397,41.320000000006985
311865.2007,7.7826362701635645,9.808678120903432,4.781283181214623,12.526364833179047,41.320999999996275
311865.2017,8.543255552259685,9.78705831575684,5.9010416412189794,13.195913107672208,41.321999999985565
311865.2027,9.264869743989074,9.685999633749583,7.012470337058961,13.584815611457682,41.32300000003306
311865.2037,9.89890854434734,9.472961148057301,8.057739096306102,13.655851770760805,41.32400000002235
311865.2047,10.392350423144162,9.10997468462629,8.974895466350713,13.374974489969821,41.32500000001164
311865.2057,10.69297901464663,8.558539153077804,9.70306216047121,12.71560462045488,41.32600000000093
311865.2067,10.754905635645935,7.78493210401686,10.187856594744218,11.662950527552944,41.32699999999022
311865.2077,10.543815495167243,6.765381764609062,10.386525737088276,10.217880235761378,41.32800000003772
311865.2087,10.041409890515151,5.49054781528641,10.272304641029764,8.399895179500366,41.32900000002701
311865.2097,9.248583268153396,3.9688195228676255,9.837569824616068,6.248822693400261,41.3300000000163
311865.2107,8.186986491486367,2.228049815595925,9.09546348025881,3.8249530918397205,41.33100000000559
311865.2117,6.898775504192608,0.315492847089269,8.07980165195061,1.2074864639152194,41.33199999999488
311865.2127,5.4445137917678865,-1.7041139409213304,6.843236092297383,-1.5086890408841054,41.33299999998417
311865.2137,3.8993714387099914,-3.7522012193758982,5.453800661587993,-4.217706694374261,41.334000000031665
311865.2147,2.347926360790283,-5.741459733260024,3.99012347935424,-6.808591872015215,41.335000000020955
311865.2157,0.8780086900639578,-7.581936003486394,2.5357111686752676,-9.17184903929037,41.336000000010245
311865.2167,-0.4258759074424647,-9.18759218143713,1.1727993805855652,-11.206241146322531,41.336999999999534
311865.2177,-1.4889633543839227,-10.482739074942433,-0.023694189441212838,-12.82520601134787,41.337999999988824
311865.2187,-2.251917788305834,-11.40775658749871,-0.9915860580218424,-13.9623738598829,41.33900000003632
311865.2197,-2.675280322955823,-11.923577388016083,-1.685741627150685,-14.575719620866833,41.34000000002561
311865.2207,-2.7422841664582633,-12.01452179894846,-2.0809188599958106,-14.649996796586098,41.3410000000149
311865.2217,-2.4597894264150346,-11.689223953847746,-2.172907473196789,-14.197246405961616,41.34200000000419
311865.2227,-1.8572634109172417,-10.979566616313525,-1.9778876698914611,-13.255341065994017,41.34299999999348
311865.2237,-0.9839116550496345,-9.937727561715233,-1.5300965367321397,-11.884695167191095,41.34399999998277
311865.2247,0.0957658567417959,-8.631616163729268,-0.878045279681919,-10.16343128404573,41.34500000003027
311865.2257,1.307575894254307,-7.139127787018737,-0.07966171119494601,-8.181425482896634,41.34600000001956
311865.2267,2.573870273207627,-5.5417513439701835,0.8031726383915593,-6.033747609894742,41.34700000000885
311865.2277,3.8198476383121123,-3.918121513726793,1.7101716813065726,-3.814058250615011,41.34799999999814
311865.2287,4.979346526343965,-2.338106265540719,2.5877611697996463,-1.6085177089913445,41.34899999998743
311865.2297,5.999613182994075,-0.8579626610422381,3.3932929155530482,0.5092951154020967,41.350000000034925
311865.2307,6.844631999420423,0.4830148319749716,4.097981546784859,2.482058952354601,41.351000000024214
311865.2317,7.496749242940962,1.6640783704727309,4.688317828446973,4.270724736578696,41.352000000013504
311865.2327,7.9564880005667415,2.6827427360439864,5.1658643503046555,5.854772000919809,41.353000000002794
311865.2337,8.240627629612181,3.5527162069450418,5.5454987933458995,7.230777292856151,41.353999999992084
311865.2347,8.378787478636081,4.300303012152578,5.852321487865704,8.409522068929032,41.35499999998137
311865.2357,8.408896093449194,4.959681380482529,6.117572875168921,9.412000263778591,41.35600000002887
311865.2367,8.372029940533972,5.5675675925079595,6.374000335262133,10.264781392324817,41.35700000001816
311865.2377,8.307160065145707,6.15783156739634,6.651163666773236,10.995234710372204,41.35800000000745
311865.2387,8.24634602096309,6.756628071862247,6.971169657524629,11.627119231272706,41.35899999999674
311865.2397,8.210864077702622,7.378549909882471,7.345278796056285,12.176993807776027,41.35999999998603
311865.2407,8.208656563596303,8.024201282111887,7.771736129557362,12.651806440917225,41.36100000003353
311865.2417,8.233351335118519,8.679441717122476,8.235052719223258,13.047892203127233,41.36200000002282
311865.2427,8.264938564532503,9.316378312199898,8.706816585823239,13.351457759871643,41.36300000001211
311865.2437,8.272022390309889,9.896003682282366,9.147957109053486,13.54047262042223,41.3640000000014
311865.2447,8.215404313236936,10.37220697233553,9.512239866102565,13.587738708135394,41.36499999999069
311865.2457,8.052619450320302,10.696742507488858,9.750644375965084,13.464785417787127,41.366000000038184
311865.2467,7.742949308977093,10.82463942465785,9.816187429240278,13.146149413611143,41.367000000027474
311865.2477,7.25238525056969,10.71948614669998,9.668708464695499,12.613555780556903,41.368000000016764
311865.2487,6.558020172623447,10.358030921257052,9.279135339610113,11.85952404910026,41.369000000006054
311865.2497,5.651401833765586,9.733603334427606,8.632798624066321,10.889978438198584,41.36999999999534
311865.2507,4.540484169889318,8.857975634140429,7.731455302964572,9.725540919665944,41.37099999998463
311865.2517,3.249952753067802,7.761435782844652,6.593809331422121,8.401318602698284,41.37200000003213
311865.2527,1.8198634224144832,6.491021417753035,5.254464362124402,6.965150313295907,41.37300000002142
311865.2537,0.30270296404192415,5.1070478967937,3.761398542482451,5.47443587270996,41.37400000001071
311865.2547,-1.2408592904371827,3.6782361769794187,2.172197288220633,3.991819656501542,41.375
311865.2557,-2.7471258368366085,2.275890279541783,0.549402931538292,2.5801227107674607,41.37599999998929
311865.2567,-4.154933147306187,0.9676751420551627,-1.044572077978728,1.2970026195437259,41.37700000003679
311865.2577,-5.411077059588745,-0.18840650758300403,-2.552477911985819,0.18985872362854853,41.37800000002608
311865.2587,-6.475064103214515,-1.1492500754206971,-3.926720073815271,-0.7085120163786909,41.37900000001537
311865.2597,-7.322711843569928,-1.8905777800266568,-5.132878680045932,-1.3830654841731465,41.38000000000466
311865.2607,-7.948229221689071,-2.4091596023669037,-6.1519164285752685,-1.8381307313961006,41.380999999993946
311865.2617,-8.364552957309186,-2.7230856991121963,-6.980866511070007,-2.097304525566863,41.381999999983236
311865.2627,-8.60188436302133,-2.8700339839373843,-7.631941838869054,-2.201586164468695,41.383000000030734
311865.2637,-8.704546063307497,-2.9036681672252556,-8.13016327680246,-2.2058855955956247,41.38400000002002
311865.2647,-8.726443065246887,-2.888481678562321,-8.509751714586011,-2.1741940767074333,41.38500000000931
311865.2657,-8.725551258656537,-2.893554095282175,-8.809652209542163,-2.1738368709246845,41.3859999999986
311865.2667,-8.757955108030789,-2.9857942279984697,-9.06864586126208,-2.269319098577803,41.38699999998789
311865.2677,-8.872005249939082,-3.2232973214298184,-9.32054778558603,-2.516319870086688,41.38800000003539
311865.2687,-9.103160938181855,-3.6494375870388556,-9.589983168838334,-2.9563817707659736,41.38900000002468
311865.2697,-9.47002208673504,-4.288251910286037,-9.889178339313636,-3.6127832343301103,41.39000000001397
311865.2707,-9.971946618866854,-5.141552199157597,-10.21610530407369,-4.487975852008149,41.39100000000326
311865.2717,-10.588501247045293,-6.188043713913448,-10.554185754106644,-5.562827159113888,41.39199999999255
311865.2727,-11.28082173064325,-7.38454012600736,-10.873606985025576,-6.797745313088365,41.39299999998184
311865.2737,-11.994778517824964,-8.669170833978393,-11.1341424648827,-8.135590872750212,41.39400000002934
311865.2747,-12.665672697857516,-9.966290874896488,-11.289219503813822,-9.506118802646878,41.39500000001863
311865.2757,-13.224041720040816,-11.192646283488648,-11.290850363363825,-10.8315561370737,41.396000000007916
311865.2767,-13.60204827032141,-12.264232939968831,-11.094953589215368,-12.032820334183334,41.396999999997206
311865.2777,-13.739869135269435,-13.10322563783026,-10.666548227086297,-13.035829494717936,41.397999999986496
311865.2787,-13.591499157256314,-13.644351932370268,-9.984309347385263,-13.777353070203004,41.39900000003399
311865.2797,-13.129438552731628,-13.840142215376922,-9.044028569546304,-14.209900256832912,41.40000000002328
311865.2807,-12.347834719349684,-13.66459761998435,-7.860622834175298,-14.305237880673088,41.40100000001257
311865.2817,-11.26379224164315,-13.114969894405613,-6.468468999855645,-14.05626076807909,41.40200000000186
311865.2827,-9.916733394855946,-12.211527357832184,-4.919998036169008,-13.477092473019184,41.40299999999115
311865.2837,-8.365869892604527,-10.99537096048506,-3.2826456143024174,-12.601457755935751,41.40400000003865
311865.2847,-6.686017924801305,-9.524545952135002,-1.6344100732594973,-11.479524655874433,41.40500000002794
311865.2857,-4.962136485423295,-7.86885029605326,-0.058399249053768934,-10.173548506602232,41.40600000001723
311865.2867,-3.2830797574532804,-6.103855955147085,1.3631579996116663,-8.752750256434796,41.40700000000652
311865.2877,-1.7351177584525017,-4.304722789502475,2.554910516446772,-7.287917905556326,41.40799999999581
311865.2887,-0.39579005980720644,-2.5403913890296788,3.4538692448415147,-5.84622808003414,41.4089999999851
311865.2897,0.6713851677478189,-0.868690677651519,4.013902623782705,-4.486744806025378,41.410000000032596
311865.2907,1.4209154578560241,0.6672058979142566,4.208862596529829,-3.256969246590175,41.411000000021886
311865.2917,1.8277502326230273,2.0406847992460646,4.034090192429408,-2.1906965430702248,41.412000000011176
311865.2927,1.8879630605113744,3.241836174546647,3.506201374545318,-1.3072962701672526,41.413000000000466
311865.2937,1.617720160521296,4.2758947452051475,2.6612131929084906,-0.6123857097259545,41.413999999989755
311865.2947,1.0507152962392814,5.160206285522351,1.5512218256531012,-0.099725107554697,41.41500000003725
311865.2957,0.23438961555317078,5.920093703255867,0.23997326846474828,0.24595466223956125,41.41600000002654
311865.2967,-0.7746414081909958,6.584102745580063,-1.2022380346135075,0.4455672946444657,41.41700000001583
311865.2977,-1.9154726548526622,7.179163548037404,-2.7038562511559827,0.5221487370318542,41.41800000000512
311865.2987,-3.1276148758968896,7.726205285887299,-4.197047423042444,0.4976159710008779,41.41899999999441
311865.2997,-4.3550705361301425,8.236707253512536,-5.621934039410131,0.39017974910914266,41.4199999999837
311865.3007,-5.549414649738374,8.710566436180068,-6.929723411091896,0.21269883150504118,41.4210000000312
311865.3017,-6.671636077955402,9.135519601057421,-8.08449340032856,-0.02785237826654331,41.42200000002049
311865.3027,-7.692638327684237,9.488191525667354,-9.06354142778357,-0.3297645673456034,41.42300000000978
311865.3037,-8.592450188155464,9.73666703110244,-9.85635195096377,-0.6949219222079452,41.42399999999907
311865.3047,-9.358339819472757,9.844320581394832,-10.462378784549708,-1.126304352836509,41.42499999998836
311865.3057,-9.982146304893252,9.774499953035276,-10.887957601846521,-1.6249923071048649,41.426000000035856
311865.3067,-10.457227724045204,9.495563843969858,-11.14274888652746,-2.187070313335691,41.427000000025146
311865.3077,-10.775465663026123,8.985727235053574,-11.23615411035343,-2.800849981962166,41.428000000014435
311865.3087,-10.924758448206717,8.237177779793493,-11.174143880878272,-3.444811869182477,41.429000000003725
311865.3097,-10.887379946061477,7.258990902220218,-10.956886790182848,-4.086599904971927,41.429999999993015
311865.3107,-10.639483102374617,6.078484569426624,-10.577476870640954,-4.683298144303025,41.430999999982305
311865.3117,-10.151897462757766,4.7408059151562085,-10.021935193840308,-5.18308754637362,41.4320000000298
311865.3127,-9.392221068885384,3.3067162282147513,-9.270519680348452,-5.528233473616307,41.43300000001909
311865.3137,-8.32805476164819,1.8487211005470396,-8.300231012728084,-5.659207505940364,41.43400000000838
311865.3147,-6.93108695507847,0.44586087177139716,-7.088266571764786,-5.519615106169892,41.43499999999767
311865.3157,-5.181624192485316,-0.8223839065515436,-5.616062492837618,-5.061497496261984,41.43599999998696
311865.3167,-3.073089480614716,-1.8825205149667772,-3.873487859958979,-4.250512977435394,41.43700000003446
311865.3177,-0.6159848881831194,-2.6732101792067677,-1.8627228007138703,-3.0704871868130237,41.43800000002375
311865.3187,2.159159170165333,-3.1505904294168134,0.39863243189976566,-1.5268561539958971,41.43900000001304
311865.3197,5.200249669861327,-3.29224224476981,2.875608374219913,0.351391709064354,41.44000000000233
311865.3207,8.433794174413475,-3.0994112075149944,5.5153653259434785,2.511545370222729,41.44099999999162
311865.3217,11.76689227238993,-2.597251496471611,8.248294267992883,4.878890408658815,41.44199999998091
311865.3227,15.091016337457527,-1.8330447977197,10.990721080818195,7.36026688504824,41.443000000028405
311865.3237,18.28737133571181,-0.8725354300095722,13.649059365678532,9.849246811886808,41.444000000017695
311865.3247,21.23346711953137,0.2053001571441029,16.12511287974614,12.232560405008778,41.445000000006985
311865.3257,23.81041090663932,1.3145840471773338,18.322110317502176,14.397279626431963,41.445999999996275
311865.3267,25.91034510990912,2.3693988259281764,20.150974715608086,16.23818980453717,41.446999999985565
311865.3277,27.44342495183427,3.2905626455713484,21.536295328200247,17.66475316700204,41.44800000003306
311865.3287,28.343755028546507,4.011708724736962,22.42148519410203,18.60709498510714,41.44900000002235
311865.3297,28.573782528513963,4.484128229814438,22.772671771634922,19.02052164752679,41.45000000001164
311865.3307,28.126770330873534,4.679954625679822,22.580975206295395,18.888203384698368,41.45100000000093
311865.3317,27.027134343634756,4.593426736776375,21.86296910308369,18.22181131968374,41.45199999999022
311865.3327,25.328611376020838,4.2401514954607,20.659278956247853,17.060074602987143,41.45300000003772
311865.3337,23.110409718051198,3.6544778572957672,19.031438541097373,15.465402348983885,41.45400000002701
311865.3347,20.471667144370358,2.885272164107286,17.057278984109878,13.518880402815292,41.4550000000163
311865.3357,17.524684214691863,1.9905350160558952,14.825254283354814,11.314089390243952,41.45600000000559
311865.3367,14.387501216499126,1.031405992179199,12.428198540193936,8.950285533659926,41.45699999999488
311865.3377,11.176435622329588,0.06615510136315028,9.9570554562694,6.52553076531065,41.45799999998417
311865.3387,7.999189161522067,-0.8552463371198368,7.495115533091743,4.130349867765215,41.459000000031665
311865.3397,4.949070506729304,-1.695446853868706,5.113241494138766,1.8424309368116734,41.460000000020955
311865.3407,2.1007673483836413,-2.432515263489108,2.8664631059210186,-0.2772224367729615,41.461000000010245
311865.3417,-0.4920488941276257,-3.060963537110145,0.7921884279748589,-2.1864227069636852,41.461999999999534
311865.3427,-2.7971768763783333,-3.590916035401199,-1.0898774839981025,-3.8621149799685544,41.462999999988824
311865.3437,-4.802470446849809,-4.045536841635704,-2.7761782466978024,-5.2989521287358095,41.46400000003632
311865.3447,-6.512799526667391,-4.457003351549378,-4.276342067978801,-6.506363760098408,41.46500000002561
311865.3457,-7.945776639758441,-4.861461938532126,-5.609164300701225,-7.504490799082422,41.4660000000149
311865.3467,-9.126744590439163,-5.293505861134136,-6.797987535483839,-8.319455619228613,41.46700000000419
311865.3477,-10.083576822035386,-5.780766276113099,-7.8659797394209185,-8.978488538840722,41.46799999999348
311865.3487,-10.841843526466748,-6.3391991574619055,-8.831811080271171,-9.505430703840902,41.46899999998277
311865.3497,-11.420843954870085,-6.969584730191194,-9.706180991745981,-9.917081482173337,41.47000000003027
311865.3507,-11.830904173613426,-7.655638021542224,-10.489553769576725,-10.220761033082251,41.47100000001956
311865.3517,-12.07219996491259,-8.363970704481344,-11.171332860216715,-10.413325604706591,41.47200000000885
311865.3527,-12.135200608665905,-9.045960928662653,-11.730553710427598,-10.481717687385277,41.47299999999814
311865.3537,-12.002657144929099,-9.641397160011147,-12.138017420752831,-10.404970853455879,41.47399999998743
311865.3547,-11.652895390788238,-10.083582793256603,-12.35963801582619,-10.157436002582607,41.475000000034925
311865.3557,-11.0640355525592,-10.305438019083734,-12.360649616950672,-9.712866909159164,41.476000000024214
311865.3567,-10.218660351671366,-10.24602891342331,-12.110228633509884,-9.048911121450478,41.477000000013504
311865.3577,-9.108402004619697,-9.85690156162875,-11.586039272344925,-8.151506427980676,41.478000000002794
311865.3587,-7.737920263387464,-9.107606588139607,-10.77821285312499,-7.0186877968592265,41.478999999992084
311865.3597,-6.127798904467208,-7.989866321409291,-9.692322477235097,-5.6633644578449225,41.47999999998137
311865.3607,-4.315991209808195,-6.519956839173702,-8.351009614108847,-4.114726268084212,41.48100000002887
311865.3617,-2.3575860742460124,-4.739039016875175,-6.794048926862893,-2.418072920832896,41.48200000001816
311865.3627,-0.3228316423458173,-2.7113610838269984,-5.076789535127615,-0.6330157208626928,41.48300000000745
311865.3637,1.7064733219464039,-0.5204521325316489,-3.26707010053989,1.1698357940852093,41.48399999999674
311865.3647,3.6419457598862532,1.7363872745040632,-1.440856067878899,2.913437167837146,41.48499999998603
311865.3657,5.394528456008053,3.9548326396318005,0.32302468152218805,4.519728832179706,41.48600000003353
311865.3667,6.8808295896971625,6.030941065418602,1.948579182499216,5.915428149293451,41.48700000002282
311865.3677,8.029325550971718,7.868573503309275,3.3682635733182273,7.037665097051129,41.48800000001211
311865.3687,8.785863149058056,9.386191292760468,4.5279998906727075,7.838939664328862,41.4890000000014
311865.3697,9.11795366004417,10.52244343697276,5.391132711274552,8.290936217969698,41.48999999999069
311865.3707,9.017456276431611,11.240074151356547,5.9409590290520615,8.386832420414084,41.491000000038184
311865.3717,8.501392446638409,11.527836539018173,6.18159639578641,8.141877884544211,41.492000000027474
311865.3727,7.610801557560582,11.400282669677159,6.137108816428378,7.592177358619779,41.493000000016764
311865.3737,6.407726212904531,10.895495091190586,5.848972279582569,6.791779394257145,41.494000000006054
311865.3747,4.970584935466795,10.07101120371486,5.372116440627717,5.808328083604732,41.49499999999534
311865.3757,3.3883352285942716,8.998352209453355,4.769910935972631,4.717667422689007,41.49599999998463
311865.3767,1.7539367287608758,7.75668739732218,4.1085613830392544,3.597882462040351,41.49700000003213
311865.3777,0.15768257864322693,6.426231325631311,3.451432059354996,2.5233096139417834,41.49800000002142
311865.3787,-1.3190282077927586,5.081980188634921,2.8538146604062975,1.5590458224575532,41.49900000001071
311865.3797,-2.6089538409756265,3.788344166265592,2.3586153420130564,0.7564332730718366,41.5
311865.3807,-3.662882727469277,2.5951304203958045,1.9933402138099445,0.1498983440929104,41.50099999998929
311865.3817,-4.451827588123322,1.535187281738131,1.7686316649556484,-0.24460963119605172,41.50200000003679
311865.3827,-4.967414162834571,0.6238487594490844,1.678456911820367,-0.42948933898391084,41.50300000002608
311865.3837,-5.220509466987137,-0.1398629581452066,1.7018907055284345,-0.4237395865704079,41.50400000001537
311865.3847,-5.238298683168097,-0.7704927846814489,1.806281728086233,-0.25981666247753843,41.50500000000466
311865.3857,-5.0601605746692675,-1.292229876683111,1.9514615851606634,0.020550119878579205,41.505999999993946
311865.3867,-4.73279530042879,-1.7342794152702048,2.094559024697858,0.3711393264470746,41.506999999983236
311865.3877,-4.305115933449147,-2.1260605132621313,2.1949292193901324,0.7461220460173925,41.508000000030734
311865.3887,-3.8234207519405325,-2.4927651162827673,2.2187035085311066,1.1045595835202706,41.50900000002002
311865.3897,-3.3273175534431045,-2.851761089209869,2.142509021165311,1.4140742526838894,41.51000000000931
311865.3907,-2.8467790241346504,-3.210221722353357,1.9559954849210346,1.6533473239723395,41.5109999999986
311865.3917,-2.400579342225827,-3.5642243557500435,1.6629293874038371,1.8132257512018823,41.51199999998789
311865.3927,-1.9962100540197252,-3.899397233637703,1.2807612433605593,1.896367443094244,41.51300000003539
311865.3937,-1.6312134237369507,-4.193022953629101,0.8387256045052977,1.9155085940744967,41.51400000002468
311865.3947,-1.2957201957847557,-4.417346518636954,0.37468045033331887,1.8905804731063043,41.51500000001397
311865.3957,-0.975851354229944,-4.543702492028728,-0.06898172910019237,1.8450226536199263,41.51600000000326
311865.3967,-0.6575528905983157,-4.546982817327875,-0.4499268067393281,1.8017229719451813,41.51699999999255
311865.3977,-0.33038793259936344,-4.4099241062365095,-0.7305020500959413,1.7790531832198577,41.51799999998184
311865.3987,0.009183662253547374,-4.126705171654558,-0.8819134121049164,1.7874594563699244,41.51900000002934
311865.3997,0.3554525714213512,-3.7054113150820496,-0.8875265138428451,1.8270094649959963,41.52000000001863
311865.4007,0.6923486724136899,-3.169034971696773,-0.7449489328972757,1.8861985837306168,41.521000000007916
311865.4017,0.9937517416963663,-2.5548315729454156,-0.4666736486693199,1.94218646843065,41.521999999997206
311865.4027,1.2252503396009822,-1.912020009781481,-0.07920765135054816,1.9624851757200172,41.522999999986496
311865.4037,1.3472156643154185,-1.297991745701013,0.37923849347349003,1.9079659830247475,41.52400000003399
311865.4047,1.3189091635534052,-0.7733537776897856,0.8622799495366832,1.7369096755624782,41.52500000002328
311865.4057,1.1032212963302381,-0.3962618299455742,1.3197629231536336,1.409708669992934,41.52600000001257
311865.4067,0.6715567057998605,-0.2165877963849032,1.702614285828077,0.8937508478813271,41.52700000000186
311865.4077,0.008347034312187218,-0.2705001450024529,1.967657621993898,0.16798259931775947,41.52799999999115
311865.4087,-0.8853092081658333,-0.5760135509499931,2.0819188793233065,-0.7733339535560496,41.52900000003865
311865.4097,-1.9893109788257919,-1.1299858461214822,2.025993034206366,-1.9180884461963825,41.53000000002794
311865.4107,-3.2638401638823353,-1.9069133905945568,1.7961338615941818,-3.2353245397264185,41.53100000001723
311865.4117,-4.650436430576773,-2.8597119903677743,1.404853093214723,-4.67594573217199,41.53200000000652
311865.4127,-6.074860912779382,-3.9224850602121113,0.8799607290435167,-6.175133183317485,41.53299999999581
311865.4137,-7.451575488922297,-5.015091661989423,0.26213070171303077,-7.656320170966018,41.5339999999851
311865.4147,-8.68950468970358,-6.049152658046675,-0.39877953359045387,-9.03641627558415,41.535000000032596
311865.4157,-9.698616229120969,-6.934990556371624,-1.0483048167113416,-10.231849994056867,41.536000000021886
311865.4167,-10.396766837936108,-7.588901795268736,-1.6324050382906914,-11.164913456356302,41.537000000011176
311865.4177,-10.716221591662745,-7.940118989722274,-2.102471481273165,-11.769855753130479,41.538000000000466
311865.4187,-10.609271501285711,-7.936839497300627,-2.4198258234189916,-11.998185975887678,41.538999999989755
311865.4197,-10.05244471334149,-7.55077424580684,-2.5592803424896577,-11.822712337068406,41.54000000003725
311865.4207,-9.048924973159778,-6.779800117476673,-2.5114194675543753,-11.23995369616161,41.54100000002654
311865.4217,-7.628946148442882,-5.648468313106343,-2.2833875123148446,-10.270704172818016,41.54200000001583
311865.4227,-5.848109123952474,-4.20631416592954,-1.8981129207778678,-8.958696656764364,41.54300000000512
311865.4237,-3.7837506167875485,-2.5241126398739704,-1.3920513346522276,-7.367481298598877,41.54399999999441
311865.4247,-1.5296652076388857,-0.6884094434562585,-0.8116733221474475,-5.5757943622295345,41.5449999999837
311865.4257,0.8103739933357137,1.2051872418535365,-0.20904361078104813,-3.671826080531854,41.5460000000312
311865.4267,3.129747614731507,3.0593596222878254,0.3630746971219435,-1.7468908413515651,41.54700000002049
311865.4277,5.326174443240209,4.782428726993269,0.856113616023771,0.11094967127814039,41.54800000000978
311865.4287,7.308350220440436,6.2950557533171985,1.23011734740886,1.82276408659937,41.54899999999907
311865.4297,9.0015008216257,7.535719767705519,1.4572585644942404,3.323638640944923,41.54999999998836
311865.4307,10.351416555738666,8.464514560797252,1.5241208706480043,4.566183593446475,41.551000000035856
311865.4317,11.326679559489872,9.064968464621462,1.4325381574501614,5.5224040284179985,41.552000000025146
311865.4327,11.918965917429235,9.343778077712898,1.1989254950528792,6.1838381533424265,41.553000000014435
311865.4337,12.141481904263733,9.328542149677498,0.8521859635154814,6.5600307049535465,41.554000000003725
311865.4347,12.025762641009884,9.063766695730335,0.4304186546318124,6.675564330075544,41.554999999993015
311865.4357,11.617205496782898,8.60556919667781,-0.023228972601450737,6.566002901846987,41.555999999982305
311865.4367,10.96981629817986,8.015623737556275,-0.4651377404093993,6.273195199791298,41.5570000000298
311865.4377,10.140704191543835,7.3549495988948435,-0.8557549964415863,5.8404364058385205,41.55800000001909
311865.4387,9.184865929809167,6.678147787957086,-1.1636329441009419,5.307984120017062,41.55900000000838
311865.4397,8.150752685057423,6.028633620965609,-1.368557470942101,4.709375642813708,41.55999999999767
311865.4407,7.077017588560746,5.435304704125071,-1.4634506506244138,4.068899484845483,41.56099999998696
311865.4417,5.990709991053682,4.91093349500032,-1.4548544934868992,3.400446097691635,41.56200000003446
311865.4427,4.907026391483297,4.452396976663529,-1.3619472332863554,2.707813634513098,41.56300000002375
311865.4437,3.8305637965895194,4.04267024394513,-1.2141922326045345,1.9863891434904966,41.56400000001304
311865.4447,2.757865316121406,3.6543341723199414,-1.0478587237984516,1.2259795334061694,41.56500000000233
311865.4457,1.6809155119306112,3.2541970339128623,-0.9017692643469775,0.4144445308406361,41.56599999999162
311865.4467,0.5911474127418239,2.8085205301285505,-0.8127094482264824,-0.45830211592284226,41.56699999998091
311865.4477,-0.5165265085745656,2.288282780909063,-0.8109729690187336,-1.3963981161218648,41.568000000028405
311865.4487,-1.6401460085876365,1.6739098536813197,-0.9165056845918526,-2.3947119464126065,41.569000000017695
311865.4497,-2.7680325506032486,0.9589633638619113,-1.1360566058592512,-3.436507054796158,41.570000000006985
311865.4507,-3.877355244320683,0.15237890350832514,-1.4616469943543218,-4.492403097962058,41.570999999996275
311865.4517,-4.934140184707632,-0.7210020895513566,-1.8705403275225487,-5.520814321129442,41.571999999985565
311865.4527,-5.894776481886449,-1.6216905493199365,-2.3267482523127487,-6.469893112218329,41.57300000003306
311865.4537,-6.708912194261917,-2.4984989343303265,-2.7839552166559205,-7.280849748592177,41.57400000002235
311865.4547,-7.323483007676549,-3.292908739460212,-3.189602205322435,-7.892373085270067,41.57500000001164
311865.4557,-7.687491049934455,-3.944436815698512,-3.4897519507023627,-8.245756115392842,41.57600000000093
311865.4567,-7.757063455192566,-4.396475051968622,-3.6342758798608434,-8.290247245355044,41.57699999999022
311865.4577,-7.500279249077223,-4.602023785609964,-3.5818651771844223,-7.988111395856075,41.57800000003772
311865.4587,-6.901263251711005,-4.528742395139572,-3.30437868208929,-7.318898773923741,41.57900000002701
311865.4597,-5.963106365946903,-4.162800834842288,-2.790098203055238,-6.282482520265562,41.5800000000163
311865.4607,-4.7092771878422415,-3.511127703103549,-2.0455618644098545,-4.900533692262498,41.58100000000559
311865.4617,-3.183330224954611,-2.6018030057246913,-1.0957788180359544,-3.216243116597175,41.58199999999488
311865.4627,-1.4468775212593232,-1.4825222386607757,0.017218677749223373,-1.2922610773015348,41.58299999998417
311865.4637,0.42404261257685794,-0.21724532183031192,1.237371914056389,0.793007939630254,41.584000000031665
311865.4647,2.343910173765918,1.1186790800252813,2.4988794012081397,2.9504632396167803,41.585000000020955
311865.4657,4.223562276111405,2.4444736505664015,3.7313824577742754,5.086297810977631,41.586000000010245
311865.4667,5.9764169383328705,3.680429215979492,4.865580743188548,7.108409570916183,41.586999999999534
311865.4677,7.524530804224503,4.754335866820827,5.838763896700786,8.932681489929667,41.587999999988824
311865.4687,8.803950732817102,5.607249763200892,6.599752767283718,10.488588179049518,41.58900000003632
311865.4697,9.768882192792985,6.198058897851842,7.1127996056019125,11.723647753158625,41.59000000002561
311865.4707,10.39430652774056,6.506425272970908,7.360095686348755,12.606344378562149,41.5910000000149
311865.4717,10.676824004750852,6.533836305693738,7.342667561252308,13.127288653112545,41.59200000000419
311865.4727,10.633666154011788,6.302679656356489,7.079596641785631,13.298546209161188,41.59299999999348
311865.4737,10.299993106633284,5.853445334644391,6.605656172414503,13.15123394327777,41.59399999998277
311865.4747,9.724752698908695,5.240338310988068,5.9676094008649345,12.731641788311267,41.59500000003027
311865.4757,8.965512339662295,4.525736377067045,5.2195383461956935,12.096270733178436,41.59600000001956
311865.4767,8.082768937236263,3.7740368331267793,4.417661845454081,11.306272190582048,41.59700000000885
311865.4777,7.134287351609884,3.0454911101564894,3.615145929375349,10.421820925058972,41.59799999999814
311865.4787,6.17000947901301,2.3906232954084423,2.8574048501540554,9.496949343281198,41.59899999998743
311865.4797,5.228015039604816,1.8457671350337346,2.178337888339223,8.57531582304148,41.600000000034925
311865.4807,4.33190743605236,1.4301425869241575,1.5978507758066354,7.687279672425768,41.601000000024214
311865.4817,3.489854268836299,1.144738659248828,1.1208807707068802,6.848520382340592,41.602000000013504
311865.4827,2.69534635232604,0.9730893649127065,0.7379939501388347,6.060282526100045,41.603000000002794
311865.4837,1.9295676385007636,0.8838419062286168,0.42746697986923293,5.311165439511987,41.603999999992084
311865.4847,1.1651081351414732,0.834839167884913,0.1586188419860424,4.580224633944275,41.60499999998137
311865.4857,0.370618414976443,0.778289641452823,-0.1039648606211784,3.8410246161052926,41.60600000002887
311865.4867,-0.48408927307263583,0.6664916338699884,-0.39575934440851024,3.0661927355833325,41.60700000001816
311865.4877,-1.423032798453012,0.45752539877860465,-0.7476667185322933,2.2319794439175067,41.60800000000745
311865.4887,-2.459675455005616,0.12033180591919639,-1.1819016959924717,1.3223359582916623,41.60899999999674
311865.4897,-3.5936339334986287,-0.36134127202403477,-1.7088242986104827,0.33207487825645193,41.60999999998603
311865.4907,-4.808840129025312,-0.986529790463734,-2.3250508744667733,-0.7312229163265171,41.61100000003353
311865.4917,-6.073373990859232,-1.7364326170901543,-3.0130458514210776,-1.8467607136435424,41.61200000002282
311865.4927,-7.3410187668601905,-2.5756512169644545,-3.742247645929905,-2.98159228620249,41.61300000001211
311865.4937,-8.554418466498017,-3.455176459153957,-4.471627745379545,-4.093100564536224,41.6140000000014
311865.4947,-9.649556948547385,-4.316834430873802,-5.153437418746146,-5.132641771429276,41.61499999999069
311865.4957,-10.561144437778498,-5.098756918624255,-5.737776046765622,-6.049987851924945,41.616000000038184
311865.4967,-11.22840358818247,-5.741338807383797,-6.177530591640726,-6.798116834888017,41.617000000027474
311865.4977,-11.600702652392384,-6.193094249762528,-6.433195605710367,-7.3378628837076825,41.618000000016764
311865.4987,-11.642492318790348,-6.415831041715481,-6.47709141301232,-7.641948984463958,41.619000000006054
311865.4997,-11.337064554624174,-6.388627482102007,-6.296553945628431,-7.697984357575485,41.61999999999534
311865.5007,-10.68876042117737,-6.110211733607093,-5.8957677621994975,-7.510109887309134,41.62099999998463
311865.5017,-9.723398819495317,-5.599498983451107,-5.296044458569079,-7.099108095396919,41.62200000003213
311865.5027,-8.486865456902557,-4.894221279786011,-4.534499231018844,-6.500946216590472,41.62300000002142
311865.5037,-7.041974799256624,-4.0477711629398625,-3.6612340439056794,-5.763876672295213,41.62400000001071
311865.5047,-5.46388060508124,-3.12455483523241,-2.735281443944809,-4.944363213207639,41.625
311865.5057,-3.834447086704247,-2.19429647752974,-1.8196842908154622,-4.1022188950334035,41.62599999998929
311865.5067,-2.236089653959878,-1.3258381104441472,-0.9761716543798792,-3.2954221128145083,41.62700000003679
311865.5077,-0.7456422743191633,-0.5810290301013664,-0.25993152230954464,-2.575111129328161,41.62800000002608
311865.5087,0.571196800839851,-0.00929045872803005,0.28502721123104025,-1.981242395535271,41.62900000001537
311865.5097,1.6643471750928664,0.35662453254153226,0.6294869747372013,-1.5393348509046998,41.63000000000466
311865.5107,2.502367434952422,0.5032721126252221,0.7612697880761344,-1.2586174201162605,41.630999999993946
311865.5117,3.073767867465935,0.4373117705419884,0.6859144871257564,-1.13176033786781,41.631999999983236
311865.5127,3.386531575922488,0.18438516289602339,0.42572690627081744,-1.1362161121926877,41.633000000030734
311865.5137,3.4659317245250927,-0.213802199014537,0.017303367667390195,-1.2370380712464162,41.63400000002002
311865.5147,3.35089366446189,-0.7039037843789994,-0.49222580324118603,-1.390899045870129,41.63500000000931
311865.5157,3.089286222764024,-1.2264209972729687,-1.0498638792334012,-1.55091413963072,41.6359999999986
311865.5167,2.73262342138209,-1.72171712738195,-1.601871572076744,-1.6717914462695145,41.63699999998789
311865.5177,2.330707096209268,-2.1359655252043246,-2.0988506774018614,-1.7148009553745112,41.63800000003539
311865.5187,1.9267377675148114,-2.4264494793973026,-2.5002979907321228,-1.6520681671458692,41.63900000002468
311865.5197,1.5533662759231566,-2.5656965794692757,-2.7781945769935765,-1.469763663875947,41.64000000001397
311865.5207,1.2300578130269757,-2.5440462780575817,-2.91929238830083,-1.1698668620924904,41.64100000000326
311865.5217,0.962003219347508,-2.3704045332034904,-2.925889879603933,-0.7703210510813739,41.64199999999255
311865.5227,0.7406534698524583,-2.071118576152405,-2.8150379112674058,-0.3035541226987582,41.64299999998184
311865.5237,0.5457879432663724,-1.6870904237368947,-2.616272142179264,0.18650020651986204,41.64400000002934
311865.5247,0.34887178986261114,-1.2694215150440575,-2.3681130876503524,0.6485980477106451,41.64500000001863
311865.5257,0.11732785870274988,-0.8740257347579008,-2.1136958084363773,1.029194437852512,41.646000000007916
311865.5267,-0.1807429397578136,-0.5557498565494431,-1.895975957627807,1.2777805667710722,41.646999999997206
311865.5277,-0.5719032446721224,-0.36258909513729765,-1.7529993336675727,1.3520289383365394,41.647999999986496
311865.5287,-1.0732858898509996,-0.33057620477366123,-1.7137142252570556,1.222241942709544,41.64900000003399
311865.5297,-1.689510451345271,-0.4798563004387707,-1.794750492383723,0.8746641556107325,41.65000000002328
311865.5307,-2.4109513633466313,-0.8123428011811641,-1.9984919836168098,0.31332651059526945,41.65100000001257
311865.5317,-3.213561351760817,-1.3111940613539659,-2.3126391535640036,-0.4397690676386283,41.65200000000186
311865.5327,-4.06029504713057,-1.9421706625604362,-2.7113094166338896,-1.3461565031052793,41.65299999999115
311865.5337,-4.904013608869182,-2.656747621948604,-3.1575685879736857,-2.3539727573178735,41.65400000003865
311865.5347,-5.691598372512284,-3.3966821720979787,-3.6071429400640396,-3.4023034330652733,41.65500000002794
311865.5357,-6.368875179149703,-4.099593340195728,-4.012942156088008,-4.426400958763589,41.65600000001723
311865.5367,-6.885863819084986,-4.705008496342357,-4.3299405966448505,-5.363284588428703,41.65700000000652
311865.5377,-7.201827726872338,-5.160284297237529,-4.519926057432798,-6.157193774202858,41.65799999999581
311865.5387,-7.289611787368933,-5.425819739597215,-4.555635448222828,-6.7643797366293335,41.6589999999851
311865.5397,-7.138819810146509,-5.479046386453473,-4.423854673687497,-7.156783015227635,41.660000000032596
311865.5407,-6.7574918315570605,-5.316798676826299,-4.127159872641487,-7.324251340497477,41.661000000021886
311865.5417,-6.172084402766363,-4.955824067433499,-3.684109364988556,-7.2750920020801555,41.662000000011176
311865.5427,-5.425720502998844,-4.431373261014531,-3.1278472650821354,-7.034912438111149,41.663000000000466
311865.5437,-4.574843719936734,-3.7939973143451002,-2.5032359151105092,-6.643866569212616,41.663999999989755
311865.5447,-3.6845674228712104,-3.1048527718455565,-1.8627797613899229,-6.152576576607052,41.66500000003725
311865.5457,-2.8231385097691075,-2.429961121243437,-1.2617237497875935,-5.617125652517182,41.66600000002654
311865.5467,-2.0560242621011153,-1.8339706666765054,-0.7527928876918891,-5.093604587899439,41.66700000001583
311865.5477,-1.4401710954561024,-1.3740174627207191,-0.3810780345037994,-4.632735525647671,41.66800000000512
311865.5487,-1.018971498049484,-1.0942725657795858,-0.1795623742050802,-4.275085990217517,41.66899999999441
311865.5497,-0.8184112952133199,-1.0216965197795953,-0.16572431804265655,-4.047326540759986,41.6699999999837
311865.5507,-0.8447596962994197,-1.1634052467106255,-0.33955141396671196,-3.959882038738436,41.6710000000312
311865.5517,-1.0840199407537143,-1.505895818164849,-0.683165988989308,-4.006189757145792,41.67200000002049
311865.5527,-1.5031927368581013,-2.0162011840921323,-1.162109704956251,-4.163620797973266,41.67300000000978
311865.5537,-2.053234091643135,-2.644857356862575,-1.7281758753984016,-4.395959848303551,41.67399999999907
311865.5547,-2.6734300472586248,-3.330392885215575,-2.323530641889277,-4.657187923077124,41.67499999998836
311865.5557,-3.2967786125688745,-4.004905590654959,-2.885741270295921,-4.896188015985368,41.676000000035856
311865.5567,-3.855876518658187,-4.600189509597083,-3.3532437834600493,-5.0619065601968956,41.677000000025146
311865.5577,-4.288764171607887,-5.053825597008667,-3.67074117652534,-5.108462618664197,41.678000000014435
311865.5587,-4.544190437134573,-5.314657637107073,-3.794031437284777,-4.999705587503885,41.679000000003725
311865.5597,-4.585818663819757,-5.347138993525064,-3.6938206148033847,-4.712779831291045,41.679999999993015
311865.5607,-4.395000622029789,-5.134149825659674,-3.3581746695364947,-4.240355238280369,41.680999999982305
311865.5617,-3.9718853839956423,-4.678036846583672,-2.7933951057893296,-3.5913161677152305,41.6820000000298
311865.5627,-3.3347917977398387,-3.999803504118415,-2.023254584028459,-2.789854449408485,41.68300000001909
311865.5637,-2.517940291707684,-3.136560274901457,-1.0866850938892045,-1.8730698823161667,41.68400000000838
311865.5647,-1.5677959942405546,-2.1375146620377734,-0.03415764628460786,-0.8873285448579027,41.68499999999767
311865.5657,-0.5384053905753643,-1.0589217753228362,1.076885345122655,0.11624923822199963,41.68599999998696
311865.5667,0.51379959830711,0.04148481056168118,2.1870975269403714,1.0867151275339377,41.68700000003446
311865.5677,1.5352118855251429,1.1100155323878524,3.240306269841519,1.9781382050080205,41.68800000002375
311865.5687,2.479762641251433,2.1019441895408946,4.188116695123126,2.7538849579644524,41.68900000001304
311865.5697,3.3126840825420762,2.9853331537407297,4.993611177824503,3.3899075709045996,41.69000000000233
311865.5707,4.012969667685299,3.7433877843816084,5.633808093207237,3.876714933295791,41.69099999999162
311865.5717,4.5743156487374135,4.375115241581177,6.100670418584387,4.21983364896199,41.69199999998091
311865.5727,5.00448428465623,4.894237062747088,6.400601205855532,4.4387182596199075,41.693000000028405
311865.5737,5.323190154883083,5.326483997864168,6.552514385548303,4.564225814291603,41.694000000017695
311865.5747,5.5587608580258685,5.7055678064099125,6.584710877834382,4.634914374206451,41.695000000006985
311865.5757,5.743947003783364,6.068261390453771,6.530907609403053,4.69254371161132,41.695999999996275
311865.5767,5.9113415085788334,6.4491120675656,6.425849188942803,4.777237551452162,41.696999999985565
311865.5777,6.088906332361479,6.875353534723341,6.300970619015101,4.922802131062297,41.69800000003306
311865.5787,6.296092174439864,7.362565909041664,6.18057077045901,5.152682032918204,41.69900000002235
311865.5797,6.540974566251684,7.911561555553723,6.078901350474717,5.476972459685275,41.70000000001164
311865.5807,6.818724476504989,8.506854134026856,5.998480281462255,5.890803390835239,41.70100000000093
311865.5817,7.111593514246976,9.116911155488642,5.929811347228292,6.374275559536582,41.70199999999022
311865.5827,7.390436887845991,9.696211756389811,5.852546335061831,6.893974242625702,41.70300000003772
311865.5837,7.617637169089446,10.188948963865439,5.7379762411412685,7.405929630566038,41.70400000002701
311865.5847,7.75114468721887,10.534047468773712,5.552599368674188,7.859747549658093,41.7050000000163
311865.5857,7.7492308594584935,10.671030540354346,5.262400232241477,8.203515874387346,41.70600000000559
311865.5867,7.575471059598472,10.546176927769219,4.837395555402655,8.389011829267393,41.70699999999488
311865.5877,7.203441924168212,10.118369792247274,4.255970211079098,8.37670152408247,41.70799999998417
311865.5887,6.620637752381835,9.36405903625076,3.5085402515102735,8.140038947688613,41.709000000031665
311865.5897,5.831180242966794,8.280834310576342,2.60014104192643,7.668635844318991,41.710000000020955
311865.5907,4.857008666001227,6.889231424504181,1.5516401798126038,6.969980259596313,41.711000000010245
311865.5917,3.7373828303537318,5.232557946116065,0.39940753329840956,6.0695197863495585,41.711999999999534
311865.5927,2.526694775885835,3.3747088511715937,-0.806574539708814,5.009082251448334,41.712999999988824
311865.5937,1.2907510283931019,1.3961323681671345,-2.006023664380041,3.8437665354637196,41.71400000003632
311865.5947,0.10183923408984126,-0.6117185723685266,-3.132813212914489,2.6375838462162116,41.71500000002561
311865.5957,-0.9669839436115921,-2.5529695743447816,-4.120175516421753,1.4582506988793604,41.7160000000149
311865.5967,-1.8478648565132398,-4.334363611961082,-4.9061776428676644,0.37161729822695977,41.71700000000419
311865.5977,-2.4838335089598034,-5.872131573736366,-5.438961190681558,-0.5637490838213487,41.71799999999348
311865.5987,-2.8336618638016184,-7.098084775938778,-5.681252821531795,-1.3013203260186321,41.71899999998277
311865.5997,-2.875440534666898,-7.964391512876676,-5.613715288285687,-1.8102607950633336,41.72000000003027
311865.6007,-2.608530875397887,-8.446622302511583,-5.23681366639161,-2.0776409356321404,41.72100000001956
311865.6017,-2.053699421941002,-8.544810090867223,-4.571008429752128,-2.109012302588653,41.72200000000885
311865.6027,-1.251410941506248,-8.282456765398921,-3.655242841762446,-1.927302335762855,41.72299999999814
311865.6037,-0.2584287715543322,-7.703608107799699,-2.543851894126936,-1.5701480898168343,41.72399999998743
311865.6047,0.8569699010009333,-6.868297472519318,-1.3021683259462895,-1.0859372146567243,41.725000000034925
311865.6057,2.020726001699215,-5.846806938205274,-0.0012237656791067308,-0.5289472533575962,41.726000000024214
311865.6067,3.159151181532562,-4.713299279874581,1.2879721050940478,0.04594113416445343,41.727000000013504
311865.6077,4.204935740175235,-3.5394249640607804,2.5000525042016983,0.5884432905604801,41.728000000002794
311865.6087,5.102461589732502,-2.388500829161948,3.5803034910932134,1.0574802413533528,41.728999999992084
311865.6097,5.811937481650832,-1.3107922150192584,4.488611196929556,1.4247579337363565,41.72999999998137
311865.6107,6.3119871565828305,-0.3403146621558764,5.201997023543812,1.676978626001977,41.73100000002887
311865.6117,6.600469529619916,0.5065835516551517,5.715526931847736,1.8164832270599018,41.73200000001816
311865.6127,6.693479167962431,1.2307755063870387,6.041536328043286,1.8602788182727907,41.73300000000745
311865.6137,6.622648829015692,1.8481488457725161,6.207272353401999,1.837564989137168,41.73399999999674
311865.6147,6.431036964449015,2.385913691601171,6.251205089251665,1.7860203512153425,41.73499999998603
311865.6157,6.168016335931751,2.877845145732587,6.218383852718327,1.7472321879810109,41.73600000003353
311865.6167,5.883672433418084,3.358981645920442,6.155302391447851,1.7617357575069954,41.73700000002282
311865.6177,5.623263409644662,3.8603491306399205,6.10477902798926,1.8641671396741057,41.73800000001211
311865.6187,5.42228274339126,4.404272370821854,6.101350741022222,2.0790210999693515,41.7390000000014
311865.6197,5.30260302693437,5.0007700099267804,6.167624705768586,2.4174445097656387,41.73999999999069
311865.6207,5.270070432041341,5.64541542862503,6.311932579085723,2.8753924629756398,41.741000000038184
311865.6217,5.31377529855127,6.318893013739831,6.52750160115538,3.433338573705998,41.742000000027474
311865.6227,5.407059071148259,6.98830401180977,6.793205389546046,4.057576406530354,41.743000000016764
311865.6237,5.5101476630820905,7.610095383486583,7.075801035794919,4.702990810500312,41.744000000006054
311865.6247,5.574142865449419,8.134316970666003,7.333413144137266,5.3170316895817304,41.74499999999534
311865.6257,5.5459720735745135,8.509773621412979,7.519904082459,5.844502865818472,41.74599999998463
311865.6267,5.373805099146561,8.689543566881035,7.58968478921128,6.232697012287895,41.74700000003213
311865.6277,5.012403972221959,8.636291919595955,7.502480214233132,6.43637223741301,41.74800000002142
311865.6287,4.427881412407041,8.326823052731248,7.227571654910231,6.422080330302946,41.74900000001071
311865.6297,3.6014048862182118,7.755386551057996,6.747093874906355,6.171419567289749,41.75
311865.6307,2.5314896335891626,6.935371570558108,6.058062263828763,5.682890195397226,41.75099999998929
311865.6317,1.2346650678112054,5.899182085480731,5.172934593570145,4.972167929046352,41.75200000003679
311865.6327,-0.2555395273294054,4.696265164431012,4.118660184246453,4.070766524234275,41.75300000002608
311865.6337,-1.891178115095797,3.389448384021254,2.9343216812145423,3.0232193746878897,41.75400000001537
311865.6347,-3.6137740041252036,2.0499125386979644,1.6676159439165341,1.8830564017578328,41.75500000000466
311865.6357,-5.3591164121181505,0.75126500814328,0.3705366531884089,0.7079717753827643,41.755999999993946
311865.6367,-7.062488080748135,-0.43672646607059434,-0.9052994322121026,-0.44534166994542496,41.756999999983236
311865.6377,-8.663805961769057,-1.4541398758852235,-2.1132060187274315,-1.5261821376584666,41.758000000030734
311865.6387,-10.11217049328869,-2.256063942615781,-3.215397620124921,-2.4941606284550195,41.75900000002002
311865.6397,-11.36938309030059,-2.8164170289067854,-4.185974083825034,-3.322428733899039,41.76000000000931
311865.6407,-12.412099677482095,-3.130041092771319,-5.012617897411713,-3.9994950181531777,41.7609999999986
311865.6417,-13.232429482913059,-3.212855961062672,-5.696834812557992,-4.529453049801787,41.76199999998789
311865.6427,-13.836948654508538,-3.1000455143422085,-6.252717813024074,-4.930602783259555,41.76300000003539
311865.6437,-14.244261414501468,-2.8424377264112652,-6.704366524184645,-5.232608110428811,41.76400000002468
311865.6447,-14.48139098737757,-2.50141628734669,-7.082233544528156,-5.472481057185767,41.76500000001397
311865.6457,-14.579403315958796,-2.1428455053201603,-7.418781817749973,-5.689802603147626,41.76600000000326
311865.6467,-14.568746355997565,-1.830588122503846,-7.743911610154194,-5.921669494177189,41.76699999999255
311865.6477,-14.474818320587351,-1.6202378346425985,-8.080644216830486,-6.1978876391962485,41.76799999998184
311865.6487,-14.314256337240886,-1.5536703291455216,-8.44152902233927,-6.536912391037221,41.76900000002934
311865.6497,-14.092364524318375,-1.6549400642374712,-8.826172673548982,-6.942965913101158,41.77000000001863
311865.6507,-13.801984489008424,-1.9279220334921732,-9.220180276605966,-7.404648536318719,41.771000000007916
311865.6517,-13.423963073743161,-2.355930653288529,-9.595659193983053,-7.895215385626022,41.771999999997206
311865.6527,-12.929206473687282,-2.9033577715132135,-9.913279756550503,-8.374525685116563,41.772999999986496
311865.6537,-12.282143083367734,-3.5191769959928023,-10.125729342212871,-8.792505964048758,41.77400000003399
311865.6547,-11.445266280515444,-4.14198094179552,-10.182252389710337,-9.093816105871198,41.77500000002328
311865.6557,-10.384308057513762,-4.706069113072911,-10.03385333029483,-9.22328375056759,41.77600000001257
311865.6567,-9.073517260956327,-5.148001432755493,-9.638663774530858,-9.131590179921195,41.77700000000186
311865.6577,-7.500490331861814,-5.412985919865137,-8.966947406773256,-8.780657759530268,41.77799999999115
311865.6587,-5.670031012227799,-5.460483266213625,-8.00523913314529,-8.148208813780974,41.77900000003865
311865.6597,-3.60659635285024,-5.2684847826050545,-6.759187380177663,-7.231036909712926,41.78000000002794
311865.6607,-1.355012260487854,-4.836046319998712,-5.254783538638595,-6.046647406299929,41.78100000001723
311865.6617,1.020698935897051,-4.183827207389944,-3.5378096965073857,-4.633073931332501,41.78200000000652
311865.6627,3.440358854530506,-3.3525739764130646,-1.671501147188466,-3.0468470188604715,41.78299999999581
311865.6637,5.812342329045311,-2.3996853101224516,0.2674120057028204,-1.3592643662675823,41.7839999999851
311865.6647,8.039593283443697,-1.3941783378691177,2.193965531339822,0.3487274641578339,41.785000000032596
311865.6657,10.026453182052316,-0.4105294354498557,4.021079499958764,1.9925979048521048,41.786000000021886
311865.6667,11.685720677531533,0.47802962237490615,5.66600454408608,3.4907105176885276,41.787000000011176
311865.6677,12.945326864106638,1.2061272949901816,7.056529601066939,4.770639507129833,41.788000000000466
311865.6687,13.754033196362867,1.7221554436216555,8.136401018222696,5.774761859539181,41.788999999989755
311865.6697,14.085637023983768,1.99290412850726,8.869470544864186,6.464627200163628,41.79000000003725
311865.6707,13.941295949260617,2.006493568210669,9.242202628188279,6.823718912186323,41.79100000002654
311865.6717,13.34974536121672,1.7733315747057856,9.264319091469549,6.858367578517577,41.79200000001583
311865.6727,12.365368529668995,1.3250131868009418,8.967527891849343,6.59674739573362,41.79300000000512
311865.6737,11.064268426677572,0.7112751006939161,8.402456402953614,6.086061778448452,41.79399999999441
311865.6747,9.538667352510318,-0.004698009995535139,7.634072206586353,5.388189275562543,41.7949999999837
311865.6757,7.890108018523097,-0.7521627989629298,6.736010419514868,4.574199559838545,41.7960000000312
311865.6767,6.2220342523283225,-1.459338271665941,5.784323347846636,3.718248580555051,41.79700000002049
311865.6777,4.632381250852806,-2.0599377749369006,4.851216706643206,2.8914127389814754,41.79800000000978
311865.6787,3.2067995835882743,-2.499094215945377,3.9993323170178443,2.1560195973138327,41.79899999999907
311865.6797,2.0130746202518255,-2.7381231581601977,3.277080669016864,1.5609777174582693,41.79999999998836
311865.6807,1.097189746236754,-2.7576839438638108,2.7154235518763015,1.1385063480129856,41.801000000035856
311865.6817,0.4813284246322294,-2.5590562406530286,2.326367069342701,0.9025269283906696,41.802000000025146
311865.6827,0.1639313897358171,-2.163433018503726,2.103262212537984,0.8488163510690735,41.803000000014435
311865.6837,0.12173788625823262,-1.609323039731003,2.0228393698400446,0.9568523818189818,41.804000000003725
311865.6847,0.3135615102300176,-0.9483378260789997,2.0487410020127066,1.19312098587215,41.804999999993015
311865.6857,0.6853985288185052,-0.23979214491588646,2.1361786012370843,1.5155189914744662,41.805999999982305
311865.6867,1.1763536939434054,0.4553415190496196,2.2372390160755073,1.8783865346804411,41.8070000000298
311865.6877,1.7248057835637456,1.0805259172949269,2.30631067432354,2.2376513579486934,41.80800000001909
311865.6887,2.274227828564704,1.589201425028799,2.3050970696268838,2.5555659719565655,41.80900000000838
311865.6897,2.7781252932526432,1.949238863482813,2.2067330164996015,2.8045685926005075,41.80999999999767
311865.6907,3.2036541254759205,2.1458751151233124,1.9986135885011296,2.9698943104249853,41.81099999998696
311865.6917,3.5336195292882713,2.182856484427149,1.6836768510027615,3.0506943747833937,41.81200000003446
311865.6927,3.7667216803036974,2.081693459471133,1.2800364818364465,3.059575550602254,41.81300000002375
311865.6937,3.916090092018228,1.8791177010072,0.819023897780781,3.020632846931434,41.81400000001304
311865.6947,4.0063167838398135,1.6230093104169063,0.34185558078610706,2.966201502405326,41.81500000000233
311865.6957,4.069343448299238,1.3672123225185315,-0.10472525298063981,2.9326828639874054,41.81599999999162
311865.6967,4.139665522347749,1.1657642868966527,-0.47338555997812015,2.955891056481153,41.81699999998091
311865.6977,4.249376249719156,1.0671212656470321,-0.721217780790129,3.066414120176948,41.818000000028405
311865.6987,4.423581029273486,1.108957301244783,-0.8143300312759804,3.285480142979442,41.819000000017695
311865.6997,4.676666379386941,1.3140578119011832,-0.7315540059396017,3.621766350741903,41.820000000006985
311865.7007,5.009813758274966,1.6877155188186606,-0.46690457894786375,4.069492570079761,41.820999999996275
311865.7017,5.4100160383956,2.2168865076017785,-0.03055173263502242,4.6080097237197455,41.821999999985565
311865.7027,5.850697155826048,2.871187921492343,0.5517851768019214,5.202942220495265,41.82300000003306
311865.7037,6.293869250116281,3.605635074353355,1.2409536258425096,5.8087854884917975,41.82400000002235
311865.7047,6.693603190813013,4.364842675644806,1.9877780569385985,6.3727122498697035,41.82500000001164
311865.7057,7.000453613190255,5.0882695206793045,2.7374206335424693,6.839218210411368,41.82600000000093
311865.7067,7.166381888710139,5.715982791762487,3.4342575991842827,7.155151910615826,41.82699999999022
311865.7077,7.149669507584205,6.194367227661151,4.026788465253231,7.27463312727999,41.82800000003772
311865.7087,6.919315110844523,6.481210847191631,4.472095944615864,7.1633734386715515,41.82900000002701
311865.7097,6.458460641033515,6.5496619708731245,4.739423344909807,6.801970436067126,41.8300000000163
311865.7107,5.766490387650012,6.390665671077623,4.812527903693862,6.187847791989579,41.83100000000559
311865.7117,4.8595810806667625,6.013640203496912,4.690593897952826,5.335646924999864,41.83199999999488
311865.7127,3.769638028667032,5.445330264928301,4.3876355962235865,4.276029015206735,41.83299999998417
311865.7137,2.5417157714808054,4.726956545189311,3.9304725141814534,3.0530033750615666,41.834000000031665
311865.7147,1.2301753396392119,3.909951818038321,3.3555026946554474,1.7200440051110801,41.835000000020955
311865.7157,-0.1060414937531521,3.0507157334032176,2.7046195327001334,0.33537604626855305,41.836000000010245
311865.7167,-1.4085505500237536,2.2049193652835233,2.0207020601797248,-1.043104156614907,41.836999999999534
311865.7177,-2.624563074960199,1.4219365240002764,1.3431492107077645,-2.36277571370447,41.837999999988824
311865.7187,-3.711319001001624,0.7399671845905923,0.7039214118980677,-3.5806206116980714,41.83900000003632
311865.7197,-4.639471512463001,0.18235014917388984,0.12449868243304653,-4.666507987737442,41.84000000002561
311865.7207,-5.395083708032809,-0.2445561033574909,-0.3859312758498607,-5.605115638440402,41.8410000000149
311865.7217,-5.980037661699428,-0.5517019123925554,-0.8308690835542905,-6.396305400193152,41.84200000000419
311865.7227,-6.410816395100594,-0.7658411815360138,-1.2254445488569718,-7.053923800770844,41.84299999999348
311865.7237,-6.715784217589752,-0.926333807934519,-1.5940141847132838,-7.603157363853335,41.84399999998277
311865.7247,-6.931244079532284,-1.0805686135271393,-1.96666738330536,-8.076717515077139,41.84500000003027
311865.7257,-7.096676655552478,-1.2784607980008849,-2.375008518501757,-8.510248755826717,41.84600000001956
311865.7267,-7.249652109036149,-1.5665748373277397,-2.847660889527266,-8.937433818796386,41.84700000000885
311865.7277,-7.420943077700018,-1.9824665755624402,-3.4059723759643012,-9.385302853951268,41.84799999999814
311865.7287,-7.63035234190104,-2.5498225202286293,-4.06038830245364,-9.870236841045346,41.84899999998743
311865.7297,-7.8837020700173,-3.2749013274537946,-4.807895457378067,-10.395089828407102,41.850000000034925
311865.7307,-8.171319752254913,-4.144659069383215,-5.630838307853588,-10.947746485461392,41.851000000024214
311865.7317,-8.468209702034661,-5.126778006678724,-6.497274162430439,-11.501291243606024,41.852000000013504
311865.7327,-8.735932535846201,-6.171633955267206,-7.362881465317099,-12.015806582164814,41.853000000002794
311865.7337,-8.926044611027082,-7.216047935245251,-8.174279543746527,-12.441656250952386,41.853999999992084
311865.7347,-8.984791746436333,-8.188492139262838,-8.873474354667822,-12.723960225801315,41.85499999998137
311865.7357,-8.858622238461582,-9.015275581361461,-9.403027355944221,-12.8078466031148,41.85600000002887
311865.7367,-8.499996073094913,-9.627135321377581,-9.711465307937925,-12.643983475037073,41.85700000001816
311865.7377,-7.872929207412734,-9.965614752087372,-9.758415658773485,-12.193859313624372,41.85800000000745
311865.7387,-6.957727876584631,-9.988625573047841,-9.518968761164997,-11.43429714523864,41.85899999999674
311865.7397,-5.754436836193764,-9.674663436699822,-8.986833243100286,-10.360754451714726,41.85999999998603
311865.7407,-4.284640877653151,-9.025271836373642,-8.175958405614812,-8.989071068403188,41.86100000003353
311865.7417,-2.591409917086423,-8.065512609937999,-7.120437385760479,-7.355470869342576,41.86200000002282
311865.7427,-0.7373500325634093,-6.842388628015308,-5.872663664719138,-5.514785990189156,41.86300000001211
311865.7437,1.1991004914888075,-5.4213567156965325,-4.499876105219767,-3.5370390727750682,41.8640000000014
311865.7447,3.1288267350872228,-3.8812480100901756,-3.0793784578462593,-1.502673457712672,41.86499999999069
311865.7457,4.95820478947264,-2.308061486605875,-1.6928436947165417,0.5031514903001646,41.866000000038184
311865.7467,6.5957470073406705,-0.7882000028540741,-0.4201996564618344,2.396694936086409,41.867000000027474
311865.7477,7.958645758334793,0.5982329847919586,0.6663679268113236,4.101654118075095,41.868000000016764
311865.7487,8.978646481821396,1.783468420782925,1.5077697264673497,5.554535802388531,41.869000000006054
311865.7497,9.606744170141416,2.7168994020258417,2.062259088137205,6.708908872526174,41.86999999999534
311865.7507,9.816307982753502,3.368282569310765,2.308208354550769,7.538173981381365,41.87099999998463
311865.7517,9.604385715866423,3.7290532203542326,2.2451901298473835,8.03662689136978,41.87200000003213
311865.7527,8.991109077213233,3.8116771068649413,1.8932954468043437,8.218753152070917,41.87300000002142
311865.7537,8.017295792877498,3.6471505348553444,1.2907830319891884,8.11685750063471,41.87400000001071
311865.7547,6.7405086565935015,3.2809364110405124,0.490305738959366,7.777285792449966,41.875
311865.7557,5.229969019051138,2.7677701607250116,-0.44591271928034526,7.255625503804612,41.87599999998929
311865.7567,3.5608198720890942,2.1658718483294024,-1.4514873512779582,6.611360622743125,41.87700000003679
311865.7577,1.8082825089545116,1.5311495745550288,-2.461359314372076,5.90249958527334,41.87800000002608
311865.7587,0.04224644412379974,0.9119698179606819,-3.4168567682311237,5.180686967622585,41.87900000001537
311865.7597,-1.6772242256366654,0.34500407746266926,-4.2698770726816635,4.487252044933412,41.88000000000466
311865.7607,-3.303087517612943,-0.14745520150317296,-4.985833352330027,3.85054607035724,41.880999999993946
311865.7617,-4.802981150576652,-0.5584711104182455,-5.545136667454504,3.2847854761518636,41.881999999983236
311865.7627,-6.159258873148658,-0.895670327154517,-5.943133535014819,2.7904636522059882,41.883000000030734
311865.7637,-7.3674890424475565,-1.1788043996735058,-6.188572605677253,2.3562349231112374,41.88400000002002
311865.7647,-8.433653749943158,-1.4359552795581776,-6.300818736964475,1.962026608355762,41.88500000000931
311865.7657,-9.370415345379532,-1.6988154125725428,-6.306153357056023,1.5830132194068594,41.8859999999986
311865.7667,-10.1929068372402,-1.9975680250891583,-6.233585154300784,1.194002913502277,41.88699999998789
311865.7677,-10.914544576146582,-2.355935072855864,-6.110636582113298,0.7737484828897443,41.88800000003539
311865.7687,-11.543351864354488,-2.7869444025279853,-5.95956562028581,0.30870700910354504,41.88900000002468
311865.7697,-12.079221860403994,-3.289895504423362,-5.794429583384975,-0.20416749022434477,41.89000000001397
311865.7707,-12.512443593631481,-3.848881881833791,-5.6193040355503285,-0.7559116969336649,41.89100000000326
311865.7717,-12.823676728984653,-4.433069499139941,-5.427844645159847,-1.3254999225670114,41.89199999999255
311865.7727,-12.985402959211847,-4.998750691997715,-5.204235791755711,-1.881276711862325,41.89299999998184
311865.7737,-12.964720556938449,-5.493009203232892,-4.925421474362801,-2.383745808038289,41.89400000002934
311865.7747,-12.727200088100632,-5.858662945517074,-4.564376530137634,-2.789443040094901,41.89500000001863
311865.7757,-12.241398721993349,-6.040013603708694,-4.094063250297461,-3.0555045015936817,41.896000000007916
311865.7767,-11.483550370799211,-5.988840143129804,-3.491641624286452,-3.144463848590989,41.896999999997206
311865.7777,-10.441917461174496,-5.670036130081647,-2.742468517136339,-3.028781540435732,41.897999999986496
311865.7787,-9.120311054531895,-5.06631258136884,-1.843435585637698,-2.694627666753354,41.89900000003399
311865.7797,-7.540357658784931,-4.1814671492864735,-0.8052564423473997,-2.144507003091615,41.90000000002328
311865.7807,-5.742206720493415,-3.0418495036139506,0.34658534969010524,-1.3984237012906975,41.90100000001257
311865.7817,-3.783521344961025,-1.695819559775177,1.572384298048574,-0.49342299021836317,41.90200000000186
311865.7827,-1.7367618199819361,-0.2111837560514659,2.8202647455886423,0.518495229059486,41.90299999999115
311865.7837,0.3150593508534995,1.3292132460717163,4.0295921908538554,1.5739363983535208,41.90400000003865
311865.7847,2.283817655893816,2.8333868412522705,5.13546036575396,2.6028444094429948,41.90500000002794
311865.7857,4.082454188940998,4.207101042822395,6.073856927321086,3.53398925689491,41.90600000001723
311865.7867,5.631350742946083,5.361148769990847,6.7870349783398956,4.300712363570868,41.90700000000652
311865.7877,6.864331325469982,6.218382353615011,7.228587467133656,4.846401934178361,41.90799999999581
311865.7887,7.733742399692567,6.719870018914482,7.367740161466134,5.129190700148202,41.9089999999851
311865.7897,8.214140254772792,6.829630078619186,7.1924448894916795,5.1254374769841,41.910000000032596
311865.7907,8.304235841475043,6.5375220996716035,6.710961975131801,4.83166553969608,41.911000000021886
311865.7917,8.026903769291497,5.8600412739514,5.951759075407525,4.264774245961707,41.912000000011176
311865.7927,7.427238140962183,4.838952727215476,4.9617096788017525,3.460501788434097,41.913000000000466
311865.7937,6.56881671650341,3.537898397959594,3.802733285635359,2.4702808470986137,41.913999999989755
311865.7947,5.52849942459856,2.0372917852945096,2.547165391514284,1.3567793941188413,41.91500000003725
311865.7957,4.390221672357171,0.4279680014900685,1.2722646582586834,0.1885414252169266,41.91600000002654
311865.7967,3.2383343115912573,-1.1958361342167811,0.05434549786951937,-0.9657748814442791,41.91700000001583
311865.7977,2.151081701881598,-2.743544690246053,-1.0369411443441037,-2.0430291056330865,41.91800000000512
311865.7987,1.1947932650938073,-4.134727479955825,-1.9436711018221138,-2.9905842417040165,41.91899999999441
311865.7997,0.4192938187858846,-5.304451843170633,-2.6236099444502137,-3.770195176841354,41.9199999999837
311865.8007,-0.14507941127629181,-6.207062597957731,-3.0527364193747113,-4.360457513247785,41.9210000000312
311865.8017,-0.48861853292555546,-6.818107816419141,-3.2261243116998894,-4.757614967385404,41.92200000002049
311865.8027,-0.6214854188253384,-7.134308867813051,-3.1571362841720143,-4.974682829170437,41.92300000000978
311865.8037,-0.5711696496888414,-7.171660656219039,-2.8750423420397833,-5.039007228699922,41.92399999999907
311865.8047,-0.3784489117548924,-6.961923958713308,-2.421322764631783,-4.988529464663195,41.92499999998836
311865.8057,-0.09227428184350658,-6.547919307263889,-1.8450364900213057,-4.867146916982034,41.926000000035856
311865.8067,0.2359013396495454,-5.97813692331628,-1.1977194470158266,-4.719645320855658,41.927000000025146
311865.8077,0.557788181135674,-5.301230036238709,-0.5283153054239577,-4.586713492687285,41.928000000014435
311865.8087,0.8333639106876057,-4.560954910530373,0.12136988361894567,-4.500537654866425,41.929000000003725
311865.8097,1.0349260874413042,-3.7920610925592384,0.7202563334762572,-4.481409913650287,41.929999999993015
311865.8107,1.1497112793415825,-3.017526260520552,1.250289970282694,-4.535680561710243,41.930999999982305
311865.8117,1.180845103793636,-2.247382925044999,1.7072522370918537,-4.655247179795935,41.9320000000298
311865.8127,1.1465547844250106,-1.4792140620817547,2.100030490167981,-4.8186185559476895,41.93300000001909
311865.8137,1.0777483541063855,-0.700218731575072,2.448453721536356,-4.993433526614414,41.93400000000838
311865.8147,1.014225542543201,0.1094154976872266,2.7799414924532337,-5.140169515968566,41.93499999999767
311865.8157,0.9999190505162029,0.9722325283288537,3.125331750044954,-5.2166570723520955,41.93599999998696
311865.8167,1.0776584441783013,1.908813619443619,3.514334120327045,-5.1829366651557205,41.93700000003446
311865.8177,1.2839933857854229,2.9332058741786287,3.9710914534483104,-5.005960198651281,41.93800000002375
311865.8187,1.644604262774472,4.048997898411885,4.510320367483331,-4.663655348359038,41.93900000001304
311865.8197,2.170767605777146,5.246501028944526,5.134442556893297,-4.147934288326157,41.94000000000233
311865.8207,2.8572372028790616,6.501380996591051,5.832018573699933,-3.4663333109608647,41.94099999999162
311865.8217,3.681760190959915,7.774935401818611,6.577664563857379,-2.6421058286818995,41.94199999998091
311865.8227,4.606284712981635,9.01604194813151,7.333483027637268,-1.7127448268880539,41.943000000028405
311865.8237,5.579748072534283,10.1646281281526,8.051885849182822,-0.7270668293875991,41.944000000017695
311865.8247,6.542178232298901,11.156352536879686,8.679546734455132,0.2588675651312283,41.945000000006985
311865.8257,7.429712342509693,11.928057422533351,9.162104798753745,1.18660562618447,41.945999999996275
311865.8267,8.18004640414628,12.423464768341901,9.449162828018302,2.000458609614474,41.946999999985565
311865.8277,8.73778888600631,12.598553154452008,9.499090522970414,2.6524625473590384,41.94800000003306
311865.8287,9.05920204966519,12.42607372978957,9.283158211979908,3.1066622261053385,41.94900000002235
311865.8297,9.115876645300355,11.898739108390773,8.788588704251163,3.3423023200735344,41.95000000001164
311865.8307,8.896992239788828,11.030741753390108,8.020218121471979,3.3556160524494762,41.95100000000093
311865.8317,8.409956034254389,9.857416556160947,7.00059060795832,3.1600386324036123,41.95199999999022
311865.8327,7.679373587560404,8.433040422819007,5.768463623018862,2.7848265580801366,41.95300000003772
311865.8337,6.744469404100947,6.82694226035837,4.37585513697658,2.2722195351375674,41.95400000002701
311865.8347,5.655227524865707,5.118261998246212,2.883906252589621,1.6734239091255625,41.9550000000163
311865.8357,4.467646991229787,3.389830808559837,1.3579485235111437,1.0438111579639953,41.95600000000559
311865.8367,3.238591988241818,1.7217331719509374,-0.13775690847726044,0.43780085806761576,41.95699999999488
311865.8377,2.0207532389771825,0.18514592731225912,-1.5451090198195294,-0.09607283826700176,41.95799999998417
311865.8387,0.8582222230015724,-1.1629737395292894,-2.816602789204333,-0.519431708558612,41.959000000031665
311865.8397,-0.21688542031487976,-2.2838582987497635,-3.9186926000579794,-0.8072482086877859,41.960000000020955
311865.8407,-1.1864298344041262,-3.159191948076312,-4.833769632973453,-0.9496591533990262,41.961000000010245
311865.8417,-2.0466844621590514,-3.7914620333249065,-5.560575709907372,-0.9522305387008441,41.961999999999534
311865.8427,-2.807185729128196,-4.202380576672206,-6.113029588208886,-0.8346597895847956,41.962999999988824
311865.8437,-3.488132507478987,-4.429542598544771,-6.5175977242222825,-0.6280571646243645,41.96400000003632
311865.8447,-4.116622353272607,-4.521658163512093,-6.809484701467741,-0.37108954283453977,41.96500000002561
311865.8457,-4.722132261918248,-4.5328329793624125,-7.028034746916565,-0.10538338102723419,41.9660000000149
311865.8467,-5.331731630659311,-4.516464371741075,-7.211813555793983,0.12934199094482723,41.96700000000419
311865.8477,-5.96554607940892,-4.519356423426657,-7.393871271036868,0.29991179709775606,41.96799999999348
311865.8487,-6.632969415495589,-4.576636230581598,-7.597669688615624,0.38362671903684603,41.96899999998277
311865.8497,-7.330049158745932,-4.707974539665676,-7.834091190651115,0.37107920347788836,41.97000000003027
311865.8507,-8.038355505538135,-4.915485993172881,-8.099839840210672,0.26755709608910755,41.97100000001956
311865.8517,-8.725495595101371,-5.18351917016757,-8.377406885559461,0.09287666327291243,41.97200000000885
311865.8527,-9.34726891340231,-5.480360541906023,-8.63661707941836,-0.12035632533172738,41.97299999999814
311865.8537,-9.851291961571635,-5.761687449455919,-8.83761395715748,-0.329901034177261,41.97399999998743
311865.8547,-10.181767531642825,-5.975431660463279,-8.934997065834107,-0.4881517266247403,41.975000000034925
311865.8557,-10.284951322246913,-6.067573930045615,-8.882706400109258,-0.5471090344119017,41.976000000024214
311865.8567,-10.114788584390505,-5.988295119366508,-8.639170665672573,-0.46356286121837736,41.977000000013504
311865.8577,-9.63816432109169,-5.697870194156868,-8.172204369516095,-0.2039701704557271,41.978000000002794
311865.8587,-8.839235662777513,-5.171711829550628,-7.463157487300496,0.25146582780614785,41.978999999992084
311865.8597,-7.7223925121881,-4.404048600356863,-6.50988903963458,0.905936710196102,41.97999999998137
311865.8607,-6.313515382604246,-3.4098514322841096,-5.328246011850279,1.7446979398982154,41.98100000002887
311865.8617,-4.659356056014161,-2.2247888163022735,-3.9518711943948754,2.735429009983624,41.98200000001816
311865.8627,-2.825042401188519,-0.9031802112524085,-2.430324054099731,3.8302855361076924,41.98300000000745
311865.8637,-0.8898866040199438,0.48589012509028295,-0.8256621693191507,4.96948056870938,41.98399999999674
311865.8647,1.0581609634348625,1.8639585400122083,0.7922187778697881,6.086083059987621,41.98499999998603
311865.8657,2.9289377739508615,3.1495801244099404,2.3510656250301603,7.11160093835501,41.98600000003353
311865.8667,4.636812045026954,4.265152999542953,3.7820649786684575,7.9818364299050675,41.98700000002282
311865.8677,6.107143356930536,5.143537863593996,5.0254178596235555,8.642470046880364,41.98800000001211
311865.8687,7.28188194683743,5.733857715176619,6.035168838535499,9.053850285324334,41.9890000000014
311865.8697,8.123802361407385,6.005937107470468,6.782833311388537,9.194536780118929,41.98999999999069
311865.8707,8.618989626070794,5.952966222312953,7.259477164019099,9.063258848277417,41.991000000038184
311865.8717,8.777354849844068,5.592140395228437,7.476047258349292,8.679098183838574,41.992000000027474
311865.8727,8.631137256363568,4.963214590864397,7.4619152192120115,8.079869945575053,41.993000000016764
311865.8737,8.23153397342652,4.125106599792273,7.2617652431263755,7.3188447736477835,41.994000000006054
311865.8747,7.64377005491111,3.150863791080016,6.931112991534087,6.4601092645733456,41.99499999999534
311865.8757,6.941062935742976,2.1214588147200657,6.530872095193104,5.572989279931879,41.99599999998463
311865.8767,6.198034435195952,1.118985395777821,6.121474975946806,4.726047031655933,41.99700000003213
311865.8777,5.484170236078671,0.21987635711416428,5.757096944515246,3.9812009348134927,41.99800000002142
311865.8787,4.857917186114042,-0.5112423709260139,5.480522813894753,3.388503195119955,41.99900000001071
311865.8797,4.36194390822987,-1.026514613658776,5.319134518672772,2.9820454791644972,42.0
311865.8807,4.019976473504492,-1.2982046440340889,5.282392283275354,2.7773541554861634,42.00099999998929
311865.8817,3.8354693504046486,-1.3201645177115564,5.36104089262641,2.770494103260727,42.00200000003679
311865.8827,3.7921971454947117,-1.10732897055857,5.528110081788642,2.9389377878192695,42.00300000002608
311865.8837,3.8566716017411977,-0.6933373573888933,5.741609505448051,3.244089891197029,42.00400000001537
311865.8847,3.982118258143133,-0.12655879629520173,5.948660236535501,3.6352032934621676,42.00500000000466
311865.8857,4.113604288706098,0.5350555810062873,6.090671325581868,4.05429444040822,42.005999999993946
311865.8867,4.193806811424159,1.229764746105723,6.109074219295003,4.441577264913761,42.006999999983236
311865.8877,4.16885886817927,1.8978940865530607,5.951078715740571,4.740893184023938,42.008000000030734
311865.8887,3.99371289915114,2.4871817115209236,5.5749160416976125,4.904623975033614,42.00900000002002
311865.8897,3.636518117864622,2.9571030867467836,4.954087074047592,4.897633270147216,42.01000000000931
311865.8907,3.0816127513750313,3.281774844767407,4.080231340113845,4.699884892330672,42.0109999999986
311865.8917,2.3308740334551934,3.451189604967693,2.964365557363812,4.307521948383267,42.01199999998789
311865.8927,1.403333942600181,3.470707861590195,1.6363960861436897,3.7323459547170104,42.01300000003539
311865.8937,0.3331406018229092,3.3589129679107685,0.1429726600514886,2.999794876376659,42.01400000002468
311865.8947,-0.8338929238021703,3.1441029525171897,-1.4560945953758024,2.145667027720683,42.01500000001397
311865.8957,-2.0447748200612543,2.859831595006902,-3.0925013511756405,1.211959717379768,42.01600000000326
311865.8967,-3.244381361258809,2.540007015583417,-4.694749083222868,0.24227534248506397,42.01699999999255
311865.8977,-4.3805417290745465,2.214099420911697,-6.193578150267528,-0.7227148360134228,42.01799999998184
311865.8987,-5.408642698103144,1.9029962429144982,-7.527030860354419,-1.6492713585428989,42.01900000002934
311865.8997,-6.295291692117693,1.615974010559923,-8.644687838335976,-2.5136346595043966,42.02000000001863
311865.9007,-7.020679449255056,1.3491387472986633,-9.510711060231413,-3.30380676152793,42.021000000007916
311865.9017,-7.579421871096214,1.0855322023668723,-10.105451325844967,-4.019887849416567,42.021999999997206
311865.9027,-7.979820542995571,0.7969252448222411,-10.425524088366855,-4.672942421214832,42.022999999986496
311865.9037,-8.241646749886451,0.4471399302541895,-10.48241078919656,-5.2825259904108295,42.02400000003399
311865.9047,-8.392707896691833,-0.003423778029618369,-10.299787903212229,-5.873146654890126,42.02500000002328
311865.9057,-8.464582524647078,-0.5925150749630848,-9.9099084410945,-6.470051691313797,42.02600000001257
311865.9067,-8.487997710841057,-1.3505610990621326,-9.349448662105168,-7.094805790704379,42.02700000000186
311865.9077,-8.48836161271188,-2.2955804679792955,-8.655277707055982,-7.7611566017913205,42.02799999999115
311865.9087,-8.48195017854698,-3.429041171246048,-7.8606055844622755,-8.471661555594777,42.02900000003865
311865.9097,-8.473181755765982,-4.733142119719463,-6.991915983897405,-9.215479212180584,42.03000000002794
311865.9107,-8.453302817964307,-6.169867743976013,-6.066999965490227,-9.967615208834978,42.03100000001723
311865.9117,-8.40066317797937,-7.681997775651006,-5.094284036031712,-10.689768193949254,42.03200000000652
311865.9127,-8.282594227708532,-9.196065779068718,-4.0735040231885815,-11.332759036991597,42.03299999999581
311865.9137,-8.058735399172024,-10.62706841134859,-2.9976290020056555,-11.840363111359842,42.0339999999851
311865.9147,-7.68549909184871,-11.884551527583914,-1.8558023214676658,-12.154216851022786,42.035000000032596
311865.9157,-7.121238466021,-12.879556493412178,-0.6369535483441591,-12.219351071866013,42.036000000021886
311865.9167,-6.331598698027604,-13.531814719610779,0.6663424628919189,-11.98982691404555,42.037000000011176
311865.9177,-5.29449940227682,-13.776540293678647,2.054217045006022,-11.433923868969204,42.038000000000466
311865.9187,-4.004217849897174,-13.570193970884157,3.5165138067338635,-10.538356510954992,42.038999999989755
311865.9197,-2.4741178722433794,-12.894675085856576,5.030833308066837,-9.311075343365129,42.04000000003725
311865.9207,-0.7376911699270721,-11.759533728808373,6.5618993541772355,-7.782330601385034,42.04100000002654
311865.9217,1.1522652520531014,-10.201971253167798,8.062397928949219,-6.003834511233845,42.04200000001583
311865.9227,3.1263346000213788,-8.284596375369528,9.475289660085044,-4.046032631580426,42.04300000000512
311865.9237,5.10284750847662,-6.0911079817364415,10.737443328651521,-1.993671821913536,42.04399999999441
311865.9247,6.993583789901007,-3.7202649321430696,11.7842966314008,0.059985883346848214,42.0449999999837
311865.9257,8.710326312786496,-1.2786596474788041,12.555135444819022,2.0198232953773867,42.0460000000312
311865.9267,10.171693466888653,1.1270788249586166,12.998506026680706,3.795834431803187,42.04700000002049
311865.9277,11.309638877712931,3.3979756384607698,13.077244075428363,5.309794503767543,42.04800000000978
311865.9287,12.075026713659058,5.44963011536135,12.77262402460367,6.501051505747092,42.04899999999907
311865.9297,12.441766703037732,7.217773633588034,12.087200184979169,7.3309322418733425,42.04999999998836
311865.9307,12.409118044973416,8.662002324571732,11.046022382972724,7.785377775637791,42.051000000035856
311865.9317,12.001934184513136,9.767391912952116,9.696052372027742,7.875581336928823,42.052000000025146
311865.9327,11.26880568500128,10.543898499148044,8.103770045854278,7.636580822811925,42.053000000014435
311865.9337,10.278248720125301,11.023652861861155,6.351124924731721,7.1239413377998755,42.054000000003725
311865.9347,9.113264046342303,11.25644758109479,4.530142609774233,6.408833497159133,42.054999999993015
311865.9357,7.8647389301225346,11.303877833863465,2.7366230653148667,5.571954491097025,42.055999999982305
311865.9367,6.624268440735567,11.232712957082288,1.0634553704018181,4.696838005158817,42.0570000000298
311865.9377,5.477022990148942,11.108136100018074,-0.40588663024794724,3.863146898125513,42.05800000001909
311865.9387,4.495281325113568,10.987488245787091,-1.6031155889284998,3.140534863139934,42.05900000000838
311865.9397,3.7331832240762775,10.915091245445343,-2.479679990699799,2.5836012643545225,42.05999999999767
311865.9407,3.2231402578937316,10.918608799331793,-3.0097113461742424,2.2283532622059496,42.06099999998696
311865.9417,2.9741873183789655,11.007246242275652,-3.191132759680764,2.090442089555437,42.06200000003446
311865.9427,2.972377141883299,11.171905269210317,-3.0448576970694456,2.165270288003826,42.06300000002375
311865.9437,3.183132007254659,11.387216578066106,-2.612179048089462,2.429890321505902,42.06400000001304
311865.9447,3.5552890614563952,11.615190700904527,-1.950609642231648,2.8464492072838334,42.06500000000233
311865.9457,4.02642512784293,11.810072780299816,-1.1285710579809949,3.3667944427046237,42.06599999999162
311865.9467,4.528937480325407,11.923875581461349,-0.21942514719906184,3.9377566800881865,42.06699999998091
311865.9477,4.996298958574728,11.912007144055355,0.7046068512147297,4.506573483632332,42.068000000028405
311865.9487,5.3689039737182656,11.73841036814952,1.5780938862139027,5.0259204493140945,42.069000000017695
311865.9497,5.598975944661576,11.379690871281499,2.3471218865120886,5.458070115754065,42.070000000006985
311865.9507,5.654110630830841,10.827820288073658,2.9727042197463325,5.777799469243383,42.070999999996275
311865.9517,5.519172989112002,10.091153364495216,3.4326160513984583,5.973802980295802,42.071999999985565
311865.9527,5.196433133104849,9.193673343840763,3.7215492507811887,6.048526087864313,42.07300000003306
311865.9537,4.704002947540636,8.172563466614168,3.849648192304833,6.016497899190349,42.07400000002235
311865.9547,4.072801487632414,7.074374493494897,3.8396418268468873,5.90139515705018,42.07500000001164
311865.9557,3.342418111037299,5.950201784266053,3.722918738531294,5.732196962192835,42.07600000000093
311865.9567,2.5563436598428306,4.850386300030888,3.534986960267217,5.538878721452216,42.07699999999022
311865.9577,1.7570922579233164,3.8193019307212728,3.3108101430334402,5.348135634749123,42.07800000003772
311865.9587,0.9817346999359858,2.890782076339047,3.080511813542414,5.1796168224439025,42.07900000002701
311865.9597,0.25830967415422823,2.084672481774763,2.865890395528815,5.04309216240744,42.0800000000163
311865.9607,-0.396522807943354,1.4048816439114395,2.678094756322562,4.936871299339603,42.08100000000559
311865.9617,-0.9783596975725624,0.8391463550185689,2.516682933096531,4.8476587272785165,42.08199999999488
311865.9627,-1.4943992294106003,0.3605536073876955,2.370138397125986,4.751874251506036,42.08299999998417
311865.9637,-1.96135160039908,-0.06932108379253527,2.217763778880041,4.618310330300361,42.084000000031665
311865.9647,-2.402170931014696,-0.4959666263144595,2.0327269955956826,4.4118529137836076,42.085000000020955
311865.9657,-2.8419908159096496,-0.9666256408461785,1.7859137830730796,4.097875263061726,42.086000000010245
311865.9667,-3.303732897226497,-1.524658280088911,1.4501558656363844,3.6468368813474865,42.086999999999534
311865.9677,-3.803895813299111,-2.204158071031499,1.0043638741522831,3.0385901538895124,42.087999999988824
311865.9687,-4.349016621594713,-3.0253786120948827,0.4371026163098817,2.26591880400252,42.08900000003632
311865.9697,-4.933229785704278,-3.991454932403908,-0.25079749557276665,1.3369029252595241,42.09000000002561
311865.9707,-5.537236715614169,-5.086779168876162,-1.0449008463002978,0.2758182953984137,42.0910000000149
311865.9717,-6.128852904472355,-6.277229092136109,-1.9172765363627473,-0.8775782026735893,42.09200000000419
311865.9727,-6.66513462085455,-7.51226578825032,-2.82808624814689,-2.07036421817671,42.09299999999348
311865.9737,-7.09591959417362,-8.728731504346818,-3.728525322119668,-3.2401939293345063,42.09399999998277
311865.9747,-7.368463199743576,-9.856008682303724,-4.564850677454226,-4.3201451748202455,42.09500000003027
311865.9757,-7.432728961041738,-10.822063467366,-5.283113445687927,-5.244234049170106,42.09600000001956
311865.9767,-7.24681244898094,-11.559805278437468,-5.834136045686683,-5.953084753354791,42.09700000000885
311865.9777,-6.781949359950718,-12.013157639886083,-6.17824094743313,-6.3992175916130565,42.09799999999814
311865.9787,-6.026585102295282,-12.142258233446396,-6.289255053351294,-6.551445601475208,42.09899999998743
311865.9797,-4.98906257915095,-11.92728603085833,-6.157378086569988,-6.397948083245924,42.100000000034925
311865.9807,-3.6986097248529526,-11.37054276193895,-5.790609478455332,-5.947709987663227,42.101000000024214
311865.9817,-2.204466868737944,-10.4965823038795,-5.214565701175713,-5.230168198865177,42.102000000013504
311865.9827,-0.5731708882224745,-9.350368618676871,-4.470675360089324,-4.293074552229361,42.103000000002794
311865.9837,1.115808823426183,-7.993632314029081,-3.612897389860307,-3.1987545889063758,42.103999999992084
311865.9847,2.7757257408444302,-6.499769183527315,-2.703252814820623,-2.0190941069653556,42.10499999998137
311865.9857,4.319016507587843,-4.947764178354037,-1.8065783846667893,-0.8297075739195744,42.10600000002887
311865.9867,5.663995231242841,-3.415717396279591,-0.9849892638119008,0.2961785493089751,42.10700000001816
311865.9877,6.741180052141324,-1.9745856629949852,-0.2925699138117108,1.293566364185939,42.10800000000745
311865.9887,7.4986765627998135,-0.6827304478759384,0.2292059798734755,2.110715307220576,42.10899999999674
311865.9897,7.9061239268458845,0.4182176083897481,0.5548926514342815,2.712900388954434,42.10999999998603
311865.9907,7.956838337776449,1.305797526972907,0.6770018884167954,3.0845620956432223,42.11100000003353
311865.9917,7.66795269274327,1.9772474587953097,0.6062617292524127,3.2296635153995488,42.11200000002282
311865.9927,7.078535495683046,2.448100038255651,0.37018017918146295,3.1702412615454816,42.11300000001211
311865.9937,6.2458585430219635,2.7490091140348705,0.010052081218597936,2.9433089266102717,42.1140000000014
311865.9947,5.240154102104563,2.9211472027370142,-0.4233034654045644,2.596428493170014,42.11499999999069
311865.9957,4.138341724461134,3.010653420586342,-0.8746659145228878,2.1823912257821663,42.116000000038184
311865.9967,3.017299217060881,3.0627048117110407,-1.2899045307831862,1.753532903222522,42.117000000027474
311865.9977,1.9472926034786995,3.1158207168518754,-1.6213110962511683,1.3562407922558875,42.118000000016764
311865.9987,0.9861622993881402,3.196986432343078,-1.8322626513557199,1.0261884005214001,42.119000000006054
311865.9997,0.17478890923206408,3.318101089248405,-1.9007677908679117,0.7847608826658998,42.11999999999534
311866.0007,-0.46576088310461855,3.4741232961192687,-1.8215580759155736,0.6370161305652923,42.12099999998463
311866.0017,-0.9351681099327869,3.6431194010503694,-1.6065268356594191,0.5713754986568962,42.12200000003213
311866.0027,-1.2528169914882974,3.7882296711411185,-1.2834774062132184,0.5610684558912437,42.12300000002142
311866.0037,-1.4549007943200996,3.8613757610564736,-0.8933062198531422,0.5671836655152438,42.12400000001071
311866.0047,-1.5899801761339312,3.808357317091545,-0.4858972875334376,0.5430217187589355,42.125
311866.0057,-1.713439655867198,3.5748436496450435,-0.1151288662708961,0.43931721762973586,42.12599999998929
311866.0067,-1.881387934280612,3.112672078274849,0.16652156969479048,0.20981245191304163,42.12700000003679
311866.0077,-2.1445950462776358,2.3858271801438944,0.31324978964860495,-0.18337020426946157,42.12800000002608
311866.0087,-2.5430494934487,1.3754986051580367,0.29056314708466646,-0.7650914744176742,42.12900000001537
311866.0097,-3.101652843735961,0.08369730871587713,0.07883554955905059,-1.5437578050066316,42.13000000000466
311866.0107,-3.827454434118561,-1.4649567635647214,-0.3245643947778565,-2.5094318712608854,42.130999999993946
311866.0117,-4.708676131966478,-3.2234910458214068,-0.904776533762297,-3.633690191740212,42.131999999983236
