TimeStamp,ECR,FCR,ECU,FCU,time_index
311839.8797,-31.85063955981133,-22.84533525129541,-97.3524887918876,-47.84742290278463,16.0
311839.8807,-38.854576724614546,-26.96791524283442,-95.86922778684612,-51.680855447869014,16.00099999998929
311839.8817,-46.12911648243527,-31.041842045093976,-93.56286815074122,-54.91164348682483,16.002000000036787
311839.8827,-53.482873926179515,-34.96796260819462,-90.46052554083658,-57.46418680739685,16.003000000026077
311839.8837,-60.71439070372638,-38.651701439293454,-86.59811978483502,-59.28041647149003,16.004000000015367
311839.8847,-67.62257730313738,-42.009811725181116,-82.02447676264299,-60.324529371908106,16.005000000004657
311839.8857,-74.01661324771764,-44.97606490438693,-76.80491651002878,-60.58651639714166,16.005999999993946
311839.8867,-79.724621355783,-47.50535227211363,-71.02383325257522,-60.08410402856893,16.006999999983236
311839.8877,-84.60056878742424,-49.575827353223865,-64.7858683675944,-58.86286189615033,16.008000000030734
311839.8887,-88.52902373240138,-51.188906115619034,-58.2154077750889,-56.99438558557235,16.009000000020023
311839.8897,-91.42759496476552,-52.367145419437215,-51.45428816251794,-54.57263012706096,16.010000000009313
311839.8907,-93.24708343928826,-53.1502190463498,-44.657757463082696,-51.70862965861143,16.010999999998603
311839.8917,-93.96956244293101,-53.58938656667711,-37.98888973053671,-48.52397803438748,16.011999999987893
311839.8927,-93.60475953434556,-53.74098698997999,-31.611789771507347,-45.14355106479931,16.01300000003539
311839.8937,-92.1852272148584,-53.65957439874468,-25.684027707488074,-41.68801435194661,16.01400000002468
311839.8947,-89.7608522143042,-53.391339460268526,-20.348810299949125,-38.26667617634878,16.01500000001397
311839.8957,-86.3932628134257,-52.968427398585355,-15.727420308057416,-34.971211993403664,16.01600000000326
311839.8967,-82.1506522185514,-52.404673937717135,-11.912437102784233,-31.870709710625224,16.01699999999255
311839.8977,-77.10345064997554,-51.69314532543702,-8.96219460375464,-29.008370972901186,16.01799999998184
311839.8987,-71.32116007385655,-50.805700394655425,-6.896842839975172,-26.400064302944624,16.019000000029337
311839.8997,-64.87052630044977,-49.69460805835844,-5.696265968902061,-24.034774304454334,16.020000000018626
311839.9007,-57.815077354274756,-48.29607013744278,-5.299982830499158,-21.876841173269572,16.021000000007916
311839.9017,-50.21591808587705,-46.535333905605505,-5.609026989654848,-19.869749840639965,16.021999999997206
311839.9027,-42.13355088399581,-44.33294597481208,-6.489682173740297,-17.94111973814901,16.022999999986496
311839.9037,-33.63040054078962,-41.6116104330778,-7.778845074279842,-16.008473110691092,16.024000000033993
311839.9047,-24.773664227951443,-38.303076332199225,-9.290707502945233,-13.98532708705851,16.025000000023283
311839.9057,-15.638088199881064,-34.354494589032484,-10.824397999571495,-11.7871634187678,16.026000000012573
311839.9067,-6.3082909310947075,-29.733748983519924,-12.172200334949578,-9.336876979487155,16.027000000001863
311839.9077,3.1196955083184648,-24.433372500780038,-13.12797117455462,-6.569383213461141,16.027999999991152
311839.9087,12.537914006319923,-18.472797324968766,-13.49540717881035,-3.435166265006705,16.02900000003865
311839.9097,21.827149199954196,-11.898840337321294,-13.095856832435128,0.09733784599102965,16.03000000002794
311839.9107,30.858810529195807,-4.784480817764392,-11.77542709582878,4.0405169754571855,16.03100000001723
311839.9117,39.49795878911997,2.7738716726598027,-9.411192220079286,8.387412321676807,16.03200000000652
311839.9127,47.60730173861701,10.660306673892968,-5.916365231224132,13.11241945183555,16.03299999999581
311839.9137,55.051900305062766,18.744149187757195,-1.2443367177377516,18.17263104768884,16.0339999999851
311839.9147,61.70426734675021,26.88507806294542,4.6084821753944984,23.509576661995762,16.035000000032596
311839.9157,67.44951026850396,34.938211571905335,11.601055681229436,29.051132493181985,16.036000000021886
311839.9167,72.1901688260235,42.75879738920524,19.647391909550134,34.713420524017984,16.037000000011176
311839.9177,75.850429183853,50.20623100436249,28.6175147495739,40.402584114816264,16.038000000000466
311839.9187,78.37945098851316,57.1472375595306,38.339768884265105,46.016406643135554,16.038999999989755
311839.9197,79.75361981215917,63.45817414029472,48.60448261445113,51.445820041771086,16.040000000037253
311839.9207,79.97762498111454,69.02652855477935,59.168999101635826,56.576419990120606,16.041000000026543
311839.9217,79.08435370643528,73.75179290801199,69.76405939350578,61.290154080663584,16.042000000015832
311839.9227,77.13367766064088,77.54596395779662,80.10147790032518,65.46737080583856,16.043000000005122
311839.9237,74.21027959848698,80.3339585878324,89.88299277574122,68.98940616727792,16.043999999994412
311839.9247,70.42071887486327,82.05422711027062,98.81010227621687,71.74184034119521,16.044999999983702
311839.9257,65.88996169789355,82.65979953452555,106.59461832866357,73.61848234221273,16.0460000000312
311839.9267,60.75760338361368,82.11991519479209,112.96958692623713,74.52604295248729,16.04700000002049
311839.9277,55.173987377019266,80.42227336134172,117.70014971662991,74.38934537915976,16.04800000000978
311839.9287,49.29638371790544,77.57581431188191,120.59386101056425,73.15681137476393,16.04899999999907
311839.9297,43.28533452027377,73.61381168529921,121.50993793588295,70.80586102978828,16.04999999998836
311839.9307,37.30121392028862,68.5969433552588,120.36691592262683,67.34778980990245,16.051000000035856
311839.9317,31.500993369972555,62.615924156344434,117.14821237896625,62.831647534021414,16.052000000025146
311839.9327,26.035158160008248,55.793241601969044,111.90517073677296,57.34664869026267,16.053000000014435
311839.9337,21.044694224959244,48.283543304458995,104.7572640982924,51.02269555074645,16.054000000003725
311839.9347,16.65805990486697,40.27228519594865,95.88927802956785,44.02869412685296,16.054999999993015
311839.9357,12.988076829434652,31.972360381188263,85.5454577092423,36.568482477581426,16.055999999982305
311839.9367,10.128715760643148,23.618581577988074,74.02078477456668,28.87436117586724,16.057000000029802
311839.9377,8.151812376415243,15.460072812822498,61.64973076863829,21.19840314362979,16.058000000019092
311839.9387,7.103817354308647,7.750821832145335,48.79300295000684,13.801908442310198,16.059000000008382
311839.9397,7.002755684665335,0.7388349216923882,35.82294039414247,6.943541857958778,16.05999999999767
311839.9407,7.8356320626705,-5.345498463277021,23.108321262891184,0.8668308291569446,16.06099999998696
311839.9417,9.556562921570931,-10.30110005068888,10.999395989855568,-4.212205710929646,16.06200000003446
311839.9427,12.085933008467407,-13.967157027382441,-0.1860402155924963,-8.11649111731287,16.06300000002375
311839.9437,15.310859590286135,-16.23253449636164,-10.174780416109844,-10.717607878065673,16.06400000001304
311839.9447,19.087197804798144,-17.042910240394345,-18.747901571679225,-11.943107845933374,16.06500000000233
311839.9457,23.243237394843778,-16.405027382673225,-25.747538119766716,-11.780873645787864,16.065999999991618
311839.9467,27.585128923705742,-14.387648456411235,-31.080441672606774,-10.280183430983703,16.066999999980908
311839.9477,31.903944922548227,-11.119024158516995,-34.718247336886726,-7.549357424861932,16.068000000028405
311839.9487,35.984139485301334,-6.780942848421543,-36.69458235877544,-3.7501046889831544,16.069000000017695
311839.9497,39.613031692929944,-1.5996813176390154,-37.09935379877126,0.9110773355932401,16.070000000006985
311839.9507,42.59081764578015,4.165588426801217,-36.07072288195561,6.193889161581534,16.070999999996275
311839.9517,44.74052581373468,10.2361881374816,-33.7854013073981,11.836874010692828,16.071999999985565
311839.9527,45.91728180686624,16.328234221416395,-30.447979709462338,17.570883982769416,16.073000000033062
311839.9537,46.01624916988582,22.16690115978435,-26.280015871049834,23.132486630679267,16.07400000002235
311839.9547,44.978665843212845,27.49970861825338,-21.50957047575535,28.276455846812333,16.07500000001164
311839.9557,42.79550017056084,32.107979425187445,-16.36178641511286,32.7865821920629,16.07600000000093
311839.9567,39.5083995376687,35.81576967824095,-11.050973647199589,36.484187000986296,16.07699999999022
311839.9577,35.20778813651489,38.49578093164925,-5.774498544999823,39.233918465208085,16.07800000003772
311839.9587,30.02817348328088,40.07200936713299,-0.7086000314091278,40.946629342705634,16.07900000002701
311839.9597,24.14092719698367,40.51914648307098,3.9939191846864217,41.57936564434549,16.080000000016298
311839.9607,17.744996218232792,39.858997318118156,8.204333760666229,41.132713811504004,16.081000000005588
311839.9617,11.056158892373306,38.15440358176145,11.8173010031174,39.645942034268536,16.081999999994878
311839.9627,4.295551374841072,35.5013312243817,14.749244699321473,37.190513970020774,16.082999999984168
311839.9637,-2.3217571690264047,32.019890562603635,16.936267189168145,33.862639087349876,16.084000000031665
311839.9647,-8.597372741772517,27.845093738575876,18.332026055508496,29.77554741579913,16.085000000020955
311839.9657,-14.35867431179963,23.11811749673568,18.90595334245806,25.052137685158456,16.086000000010245
311839.9667,-19.465838746838998,17.978734386488338,18.642099189659483,19.8185524800386,16.086999999999534
311839.9677,-23.816407153593357,12.559414273674802,17.538759145816154,14.199093011916402,16.087999999988824
311839.9687,-27.347212993913303,6.981397366594191,15.60890840077933,8.312714317240431,16.08900000003632
311839.9697,-30.033708790389447,1.352820218660285,12.881330951695709,2.2711565547579142,16.09000000002561
311839.9707,-31.886935035383843,-4.231240785086915,9.402211179544173,-3.8214121257915274,16.0910000000149
311839.9717,-32.94855312043863,-9.687136937348273,5.236861769840003,-9.867523553483423,16.09200000000419
311839.9727,-33.284497703255816,-14.939904773631255,0.47120500000010274,-15.774711454887877,16.09299999999348
311839.9737,-32.97788150247474,-19.919987002532295,-4.787389772752939,-21.453462980575278,16.09399999998277
311839.9747,-32.12180135666455,-24.5600199331795,-10.410279061421523,-26.815313801587653,16.095000000030268
311839.9757,-30.81264905893116,-28.79225437620116,-16.249022328877725,-31.771544091476503,16.096000000019558
311839.9767,-29.144430648142777,-32.54707991846096,-22.138347919780895,-36.23284579555167,16.097000000008848
311839.9777,-27.204455478525123,-35.752975547902096,-27.900657508789948,-40.11020396590948,16.097999999998137
311839.9787,-25.070587434336574,-38.33802874306811,-33.351970156147075,-43.31708007827872,16.098999999987427
311839.9797,-22.810073250401764,-40.23296945325518,-38.309059045897214,-45.77281920258453,16.100000000034925
311839.9807,-20.47979546831415,-41.37547526809829,-42.59740079125272,-47.40704276416853,16.101000000024214
311839.9817,-18.127656908241992,-41.71533915631391,-46.05945195496019,-48.164650888186685,16.102000000013504
311839.9827,-15.79470318385098,-41.219968428486844,-48.56270089278485,-48.01095725824928,16.103000000002794
311839.9837,-13.517538682130118,-39.87961573450602,-50.00692250076186,-46.936425771132086,16.103999999992084
311839.9847,-11.33059317779877,-37.711737117190545,-50.330092085217856,-44.9604781539845,16.104999999981374
311839.9857,-9.267848896898046,-34.763929395829344,-49.512491016179986,-42.13389602535864,16.10600000002887
311839.9867,-7.363734195551638,-31.11501416129783,-47.57865525599613,-38.53944517008808,16.10700000001816
311839.9877,-5.653018482147085,-26.873997390144336,-44.596968497134434,-34.29049463448985,16.10800000000745
311839.9887,-4.169688821902494,-22.176826413782354,-40.67687162378838,-29.527575107279883,16.10899999999674
311839.9897,-2.9449354191033668,-17.181070854661378,-35.96383474856318,-24.413003594132768,16.10999999998603
311839.9907,-2.0045045027572144,-12.058851019520752,-30.632401865807108,-19.123877052119113,16.111000000033528
311839.9917,-1.3657783669992767,-6.98850667960908,-24.877756849256098,-13.843889358560372,16.112000000022817
311839.9927,-1.0350019440730829,-2.145624365589878,-18.906361080837883,-8.754538886739946,16.113000000012107
311839.9937,-1.005086183074081,2.305890226370612,-12.926268911412434,-4.026356890811236,16.114000000001397
311839.9947,-1.2543786449942524,6.222003302497056,-7.137733228913475,0.1892064594663146,16.114999999990687
311839.9957,-1.746704412543576,9.485375597581134,-1.7246701542213543,3.7666520548540587,16.116000000038184
311839.9967,-2.4328539875253274,12.010302817040797,3.15253559055037,6.611574425420629,16.117000000027474
311839.9977,-3.2535418557040594,13.745425626177594,7.362525656763912,8.663739092013993,16.118000000016764
311839.9987,-4.1436953556707365,14.674057739250063,10.806549861632332,9.897931227938338,16.119000000006054
311839.9997,-5.037775342733986,14.812189897416086,13.420075670442204,10.322598793365891,16.119999999995343
311840.0007,-5.875694591133398,14.204429145026054,15.172515270836898,9.976494637605734,16.120999999984633
311840.0017,-6.608801720584184,12.918307659824347,16.065290587609386,8.923681274182343,16.12200000003213
311840.0027,-7.205349075416208,11.037527044891227,16.128557606851775,7.2473846526785435,16.12300000002142
311840.0037,-7.65486929592506,8.654780346631718,15.416975505861531,5.0432585567075545,16.12400000001071
311840.0047,-7.970948903139224,5.864808478631712,14.004929844089803,2.4126432593844602,16.125
311840.0057,-8.192004166080702,2.7582996111718567,11.98160315443258,-0.5436299913323857,16.12599999998929
311840.0067,-8.379825700573834,-0.5828651161004847,9.446235288385047,-3.730418759953471,16.127000000036787
311840.0077,-8.61585005591179,-4.088667573727317,6.503837686474347,-7.062085771026111,16.128000000026077
311840.0087,-8.995322081232526,-7.702140611544523,3.2615305725650243,-10.464754019089304,16.129000000015367
311840.0097,-9.619712426694145,-11.378713405212789,-0.17442867295348952,-13.876965348576515,16.130000000004657
311840.0107,-10.587931307401146,-15.083928290533482,-3.700952570739081,-17.24886632060452,16.130999999993946
311840.0117,-11.987015440756702,-18.789907142556068,-7.219871292408662,-20.540185612578043,16.131999999983236
311840.0127,-13.883045918498135,-22.471068645091606,-10.639280600136786,-23.717375809584237,16.133000000030734
311840.0137,-16.31307140352128,-26.099668578422126,-13.874674023407776,-26.75035946798215,16.134000000020023
311840.0147,-19.278759822751834,-29.641746837574967,-16.850036374601878,-29.60933921708635,16.135000000009313
311840.0157,-22.742385211009278,-33.054016381877375,-19.499039105341694,-32.26210356052673,16.135999999998603
311840.0167,-26.625583211308886,-36.28212568835819,-21.766417072916003,-34.67218779199537,16.136999999987893
311840.0177,-30.811093073509213,-39.260577918799214,-23.60952927765653,-36.79814116459176,16.13800000003539
311840.0187,-35.147464174421096,-41.91441169821137,-25.000023361692822,-38.59401869307251,16.13900000002468
311840.0197,-39.456462041030036,-44.16255789988737,-25.925446360693083,-40.01107254097107,16.14000000001397
311840.0207,-43.54268414559661,-45.92260314479466,-26.39058325003748,-41.00047857265357,16.14100000000326
311840.0217,-47.20470948191566,-47.116532249400144,-26.418269476054057,-41.51681251928689,16.14199999999255
311840.0227,-50.24697490229616,-47.676904586982346,-26.049420426238612,-41.52189958545684,16.14299999998184
311840.0237,-52.49150722400383,-47.55285527887489,-25.34205263592537,-40.988610377196245,16.144000000029337
311840.0247,-53.78864897162249,-46.715308164504535,-24.36913745327023,-39.904169954412986,16.145000000018626
311840.0257,-54.025996500219335,-45.16084464062854,-23.21522295041417,-38.272586331394116,16.146000000007916
311840.0267,-53.13491487633523,-42.9137857956653,-21.97187565616319,-36.115886080399136,16.146999999997206
311840.0277,-51.09419128180363,-40.02620439857379,-20.732119124696577,-33.47395990300492,16.147999999986496
311840.0287,-47.930620370855785,-36.57577334281816,-19.58416882996585,-30.402958808690734,16.149000000033993
311840.0297,-43.71656063069464,-32.66156011923376,-18.60486947772477,-26.972328266307326,16.150000000023283
311840.0307,-38.56473905597904,-28.398073433516586,-17.8533196271631,-23.260708753331517,16.151000000012573
311840.0317,-32.62079194065925,-23.908039266062904,-17.36520973280059,-19.35105229317297,16.152000000001863
311840.0327,-26.05419458576583,-19.314512783909077,-17.14839669173272,-15.32539337707981,16.152999999991152
311840.0337,-19.04833866759732,-14.733006649059087,-17.18018784802996,-11.259759633871163,16.15400000003865
311840.0347,-11.790554655074107,-10.264327564268642,-17.406711452604945,-7.2197072047731705,16.15500000002794
311840.0357,-4.462845716462428,-5.988759336855821,-17.744614242436974,-3.256917025531441,16.15600000001723
311840.0367,2.7659971550475704,-1.9621164112670872,-18.085159336656446,0.5928051178300607,16.15700000000652
311840.0377,9.746381935135638,1.7859733765465693,-18.300611452812028,4.309911560873459,16.15799999999581
311840.0387,16.35168189870715,5.251399262541296,-18.25260616338366,7.889819541542353,16.1589999999851
311840.0397,22.479676974057583,8.452572348778482,-17.802021285359913,11.340046177553246,16.160000000032596
311840.0407,28.051786585932636,11.42538154934964,-16.819717110918084,14.67603331196283,16.161000000021886
311840.0417,33.01041402609999,14.216569810906654,-15.197402155843298,17.916059220789947,16.162000000011176
311840.0427,37.314889720984546,16.87615017399226,-12.857823791324732,21.07573378985832,16.163000000000466
311840.0437,40.93661648229943,19.449575188854812,-9.763486049185934,24.162627240106275,16.163999999989755
311840.0447,43.854073520944404,21.970401308613507,-5.923162877745631,27.171583800547523,16.165000000037253
311840.0457,46.04832327084982,24.45414907356768,-1.3956018490615099,30.081219967520926,16.166000000026543
311840.0467,47.49958795528116,26.893953700882882,3.71000673090468,32.852006440612,16.167000000015832
311840.0477,48.18532963824847,29.258438918841367,9.236999439683437,35.42619260165847,16.168000000005122
311840.0487,48.0800919686627,31.49204468177985,14.9876064684323,37.72966553748344,16.168999999994412
311840.0497,47.157161717544625,33.517815763032296,20.732422053975117,39.67565776309515,16.169999999983702
311840.0507,45.3919035547964,35.24243412295949,26.222447256811815,41.17004572783168,16.1710000000312
311840.0517,42.76643258496323,36.56307429980288,31.202969009228692,42.117831078545365,16.17200000002049
311840.0527,39.27513446844624,37.375496705084586,35.42838505687459,42.43028259610677,16.17300000000978
311840.0537,34.93043742382686,37.58268358221859,38.67699403630909,42.03214935362596,16.17399999999907
311840.0547,29.76819395624121,37.103276197429594,40.76475203549775,40.86834117540892,16.17499999998836
311840.0557,23.85204678795531,35.8790931274899,41.55705434715891,38.90951213042481,16.176000000035856
311840.0567,17.276230971942674,33.88109543541728,40.97773034446926,36.15607274008299,16.177000000025146
311840.0577,10.166394467709505,31.11330618020885,39.014631055508175,32.64028832672335,16.178000000014435
311840.0587,2.6781895264477025,27.614375074423567,35.72142831929274,28.42628216202088,16.179000000003725
311840.0597,-5.006419495635665,23.456686474429997,31.2155124585166,23.607937841300735,16.179999999993015
311840.0607,-12.684988187057531,18.743120613990126,25.672150743922327,18.30486944495311,16.180999999982305
311840.0617,-20.142235735980375,13.601774400139357,19.315329419504923,12.656784701049068,16.182000000029802
311840.0627,-27.15901747933553,8.179111369407103,12.40592685915394,6.816691486784658,16.183000000019092
311840.0637,-33.52203250343353,2.6321262728451624,5.22803683219476,0.9434806664265308,16.184000000008382
311840.0647,-39.03361340612066,-2.879831227850258,-1.9256341140938533,-4.805548353887782,16.18499999999767
311840.0657,-43.52094202421933,-8.202930922169275,-8.768339620777962,-10.281670952837183,16.18599999998696
311840.0667,-46.844085794388086,-13.195851878145225,-15.032923968223935,-15.35074764069232,16.18700000003446
311840.0677,-48.90234803987366,-17.73541633129174,-20.483708288400877,-19.897887299415192,16.18800000002375
311840.0687,-49.63856143214215,-21.720546032109553,-24.925998898383973,-23.830526939366102,16.18900000001304
311840.0697,-49.041113875642054,-25.074392122338853,-28.212792951809817,-27.079845490634803,16.19000000000233
311840.0707,-47.143665312106684,-27.744667614828767,-30.248486904210733,-29.600583997528567,16.190999999991618
311840.0717,-44.02267755961664,-29.702377292819623,-30.989624474575738,-31.369485375216513,16.191999999980908
311840.0727,-39.79302367663385,-30.939277389822458,-30.442932907435882,-32.38268023700763,16.193000000028405
311840.0737,-34.60205727941498,-31.46449401687463,-28.6610718837708,-32.65242075206335,16.194000000017695
311840.0747,-28.622597846201348,-31.300776598472357,-25.736644875307388,-32.20359550366266,16.195000000006985
311840.0757,-22.04532124618357,-30.480857301766648,-21.795089715081776,-31.070442856536722,16.195999999996275
311840.0767,-15.071035463561087,-29.04433167453347,-16.98707110150572,-29.29382103972064,16.196999999985565
311840.0777,-7.903273479888531,-27.035376570106656,-11.480946000699431,-26.919296996930807,16.198000000033062
311840.0787,-0.7415555610539769,-24.501490325219017,-5.455772240881928,-23.99619366892776,16.19900000002235
311840.0797,6.224428668332422,-21.493291558291574,0.9048057529540118,-20.57759993327423,16.20000000001164
311840.0807,12.819580838815241,-18.065263002613555,7.417615842045169,-16.72121337523906,16.20100000000093
311840.0817,18.887071771144658,-14.27719166339869,13.903940796095169,-12.4907676798406,16.20199999999022
311840.0827,24.291011645227854,-10.195950939139207,20.19254550808449,-7.957706446619357,16.20300000003772
311840.0837,28.91826606852061,-5.897205858080446,26.12198062916751,-3.2027135625465233,16.20400000002701
311840.0847,32.679621688568986,-1.4666068073790608,31.54246322830439,1.683296938080646,16.205000000016298
311840.0857,35.51052203415425,2.9999272690800183,36.317655053160344,6.5990896374717956,16.206000000005588
311840.0867,37.37157770291323,7.397150828192345,40.32662900982299,11.434191058229157,16.206999999994878
311840.0877,38.24900778085324,11.612847889514791,43.46623903621563,16.07130549959062,16.207999999984168
311840.0887,38.15509779771878,15.531636726499348,45.653997154132696,20.390078759621225,16.209000000031665
311840.0897,37.12867271392731,19.04008886473231,46.831427761061036,24.272071944233574,16.210000000020955
311840.0907,35.2354924515109,22.032862971943352,46.967729415548725,27.606659260989645,16.211000000010245
311840.0917,32.56839419621629,24.419409748861835,46.06344564417127,30.297435688694797,16.211999999999534
311840.0927,29.2469415682365,26.130695992306162,44.153744910102816,32.268626555927746,16.212999999988824
311840.0937,25.416305585410793,27.125337263760265,41.310849441244784,33.4709422145459,16.21400000003632
311840.0947,21.24510315011189,27.394527216634877,37.64514260699266,33.88632387220582,16.21500000002561
311840.0957,16.92195895294057,26.965210338392627,33.304529263614945,33.531083046920145,16.2160000000149
311840.0967,12.650635387984313,25.90106052523331,28.471721545104266,32.457043604367705,16.21700000000419
311840.0977,8.643687181269668,24.30099170402034,23.359266859320275,30.750443507641485,16.21799999999348
311840.0987,5.1147337956885774,22.295124842317335,18.20231317956183,28.528530532919028,16.21899999998277
311840.0997,2.2695908550678947,20.03835057577658,13.249302967299537,25.933976436615833,16.220000000030268
311840.1007,0.2966472083438174,17.701838626184358,8.750982675975727,23.12741991790967,16.221000000019558
311840.1017,-0.6429985784105776,15.463034207108317,4.9482906135733185,20.27861277415133,16.222000000008848
311840.1027,-0.4250342108124073,13.494829410930226,2.0598241197455103,17.556770227299626,16.222999999998137
311840.1037,1.0295950613938323,11.954689322419567,0.2696727770937612,15.120803165335307,16.223999999987427
311840.1047,3.7478923809979374,10.974538492320828,-0.2835724069046067,13.11012923419144,16.225000000034925
311840.1057,7.700282608250405,10.652169665512856,0.4841323603985902,11.636718973145097,16.226000000024214
311840.1067,12.798824957042841,11.044826059620583,2.5958346157403946,10.778935840170746,16.227000000013504
311840.1077,18.89846991577407,12.165440176703372,6.01022788077115,10.577583772780164,16.228000000002794
311840.1087,25.80146216316085,13.981800842603716,10.621667827251379,11.034396229063038,16.228999999992084
311840.1097,33.264768120291926,16.418684892294333,16.26361059448047,12.113003130709686,16.229999999981374
311840.1107,41.01018306751089,19.3627520970287,22.71528220760906,13.742215155861699,16.23100000002887
311840.1117,48.73656840132732,22.66978339044896,29.711164993392483,15.821286651458713,16.23200000001816
311840.1127,56.13350347948929,26.173663272484962,36.95269964798819,18.226675351455242,16.23300000000745
311840.1137,62.89552439484289,29.69638377341991,44.12146628287505,20.8197218105707,16.23399999999674
311840.1147,68.73607496393457,33.058290461918894,50.893035345451715,23.454631837091352,16.23499999998603
311840.1157,73.40031825026234,36.08780507215142,56.9506745316185,25.986163431141275,16.236000000033528
311840.1167,76.6760484711447,38.62994181906088,61.99815873939526,28.2764921759146,16.237000000022817
311840.1177,78.40209500520328,40.55307606967492,65.77104839635061,30.200846664268205,16.238000000012107
311840.1187,78.47380848091929,41.75360970724443,68.04596332663586,31.65165496305887,16.239000000001397
311840.1197,76.84544525958299,42.15838806616148,68.64756702822498,32.54110799674197,16.239999999990687
311840.1207,73.52950019418277,41.72493736960478,67.45317022665034,32.80220858326418,16.241000000038184
311840.1217,68.59325713349511,40.439787853487374,64.39504350823708,32.38851887722112,16.242000000027474
311840.1227,62.15301278418704,38.31530710827493,59.46067963975092,31.272929782218622,16.243000000016764
311840.1237,54.36656643939333,35.38557563244719,52.69135378129242,29.44584295462539,16.244000000006054
311840.1247,45.424645071964214,31.701882755245876,44.17938635843306,26.913173659906768,16.244999999995343
311840.1257,35.54194578927832,27.328402970887595,34.064516905330976,23.69455062761903,16.245999999984633
311840.1267,24.948427441114546,22.33853398664856,22.529751607865542,19.822012126792995,16.24700000003213
311840.1277,13.881378089946658,16.812248258615522,9.79696169835549,15.33938538440821,16.24800000002142
311840.1287,2.578638056175984,10.834644430450458,-3.8776024583374245,10.302402478781435,16.24900000001071
311840.1297,-8.726813939177152,4.495702437841922,-18.20783991005661,4.779465501379134,16.25
311840.1307,-19.810882617685003,-2.1089336781282895,-32.88244585199549,-1.1471566959575292,16.25099999998929
311840.1317,-30.46112311485506,-8.876478115235289,-47.56984752893927,-7.380023247705668,16.252000000036787
311840.1327,-40.47852644999633,-15.695280261674396,-61.923660564700405,-13.80549824200212,16.253000000026077
311840.1337,-49.67868935065943,-22.443368588568966,-75.5889127738167,-20.293421729187394,16.254000000015367
311840.1347,-57.89277386049245,-28.987775163518187,-88.20924947286296,-26.697857134223653,16.255000000004657
311840.1357,-64.96864531207413,-35.185092828372326,-99.43525363184068,-32.85921870983008,16.255999999993946
311840.1367,-70.77250651845472,-40.88359764477619,-108.93389262972426,-38.60796119415251,16.256999999983236
311840.1377,-75.19122981209391,-45.927103350467725,-116.39895264188857,-43.76986080477959,16.258000000030734
311840.1387,-78.13544027606709,-50.16051881241001,-121.56215746569205,-48.17274691843943,16.259000000020023
311840.1397,-79.54324034424025,-53.436873875423395,-124.20450898954388,-51.654374252390284,16.260000000009313
311840.1407,-79.38430706763262,-55.62538519911678,-124.16725024865266,-54.0709735955888,16.260999999998603
311840.1417,-77.66395793264326,-56.619972617042734,-121.36175645710344,-55.3059014127564,16.261999999987893
311840.1427,-74.42668631134786,-56.347526391565616,-115.77761867810665,-55.27773834144534,16.26300000003539
311840.1437,-69.758626634753,-54.77517989696417,-107.48820811884728,-53.94717280576885,16.26400000002468
311840.1447,-63.78842996753096,-51.91586796967599,-96.65309956867605,-51.322052483197254,16.26500000001397
311840.1457,-56.68611415489037,-47.8315486012905,-83.51688674720181,-47.46009122718687,16.26600000000326
311840.1467,-48.65959367430875,-42.63362780910108,-68.40413026382613,-42.46887464287056,16.26699999999255
311840.1477,-39.948780937259244,-36.48034078501217,-51.710424753643544,-36.50300118868446,16.26799999998184
311840.1487,-30.81736590355662,-29.57108783211922,-33.88983548355267,-29.758410914245495,16.269000000029337
311840.1497,-21.542603667228693,-22.13797865002137,-15.439213849788334,-22.464171890667274,16.270000000018626
311840.1507,-12.403647708212914,-14.435079377088927,3.119866987629561,-14.872195634173277,16.271000000007916
311840.1517,-3.6691380059577137,-6.72606058305558,21.260631297396365,-7.245519243572164,16.271999999997206
311840.1527,4.415130669542597,0.7289084849997561,38.471030756297395,0.15409154556054377,16.272999999986496
311840.1537,11.637588163037924,7.686098095434241,54.27299813044536,7.078408303682736,16.274000000033993
311840.1547,17.830473881694303,13.930070269984615,68.23997503079312,13.304074672038952,16.275000000023283
311840.1557,22.876892009694302,19.28360892402037,80.0117795824115,18.642284718849417,16.276000000012573
311840.1567,26.714778101923002,23.615046317527895,89.30606404726291,22.94621299078015,16.277000000001863
311840.1577,29.337449734604917,26.842517256688836,95.92585018122982,26.115784195469267,16.277999999991152
311840.1587,30.790680660408057,28.93492471739901,99.76290166753601,28.099580765314535,16.27900000003865
311840.1597,31.16651614366379,29.909669099952353,100.79697587436674,28.89390871975423,16.28000000002794
311840.1607,30.594311589703402,29.827453845780614,99.09126819785058,28.539256760909236,16.28100000001723
311840.1617,29.229702918690105,28.784709209821877,94.78459941772648,27.114571841363045,16.28200000000652
311840.1627,27.242384357154226,26.90435323232893,88.08108105213172,24.729920611005785,16.28299999999581
311840.1637,24.803661771376085,24.32571902622685,79.23811170538762,21.518198342102345,16.2839999999851
311840.1647,22.07475857510574,21.194511421240986,68.55360091607345,17.626578431108744,16.285000000032596
311840.1657,19.196775589046762,17.653611997939958,56.353284741658705,13.208365337399863,16.286000000021886
311840.1667,16.28305284422148,13.835435096400104,42.97889467607879,8.415826480189233,16.287000000011176
311840.1677,13.414464229700043,9.856360668262914,28.777780062089523,3.3944439711999275,16.288000000000466
311840.1687,10.637914940104272,5.813550481367897,14.09438056400522,-1.7211409344247028,16.288999999989755
311840.1697,7.968030640943821,1.7842135229169838,-0.7362803520358953,-6.809402397861356,16.290000000037253
311840.1707,5.391751526357338,-2.1728525316286005,-15.393135839954693,-11.76251862272776,16.291000000026543
311840.1717,2.8752985920773453,-6.01383177282858,-29.571909573972256,-16.48553427712841,16.292000000015832
311840.1727,0.3727849964293955,-9.705131382835601,-42.986667058881906,-20.894487244045813,16.293000000005122
311840.1737,-2.1643812017458393,-13.217964559043796,-55.37061724063301,-24.913975483448233,16.293999999994412
311840.1747,-4.778205367682187,-16.522988935315894,-66.47674116561373,-28.474672372414037,16.294999999983702
311840.1757,-7.4957962497894615,-19.585686184998472,-76.07879972411499,-31.51127683376453,16.2960000000312
311840.1767,-10.32280025781694,-22.36307288779465,-83.9731822788034,-33.96131113315466,16.29700000002049
311840.1777,-13.239170108707592,-24.80218003493514,-89.98191149756315,-35.76506252083946,16.29800000000978
311840.1787,-16.197637253994287,-26.840544214741307,-93.95693164161226,-36.86681702304912,16.29899999999907
311840.1797,-19.125009423656163,-28.40873670355651,-95.78559663988256,-37.21736957741439,16.29999999998836
311840.1807,-21.926161506509622,-29.43473834156265,-95.39706165585675,-36.77763069448239,16.301000000035856
311840.1817,-24.490352058479402,-29.84976900512882,-92.76908919787091,-35.52300214362831,16.302000000025146
311840.1827,-26.699299079972757,-29.59501944291326,-87.93462838979224,-33.44807744639503,16.303000000014435
311840.1837,-28.43630361147345,-28.628625224492207,-80.98743077204622,-30.571148936278185,16.304000000003725
311840.1847,-29.595629335760105,-26.932177502913692,-72.08594000425397,-26.937979559034243,16.304999999993015
311840.1857,-30.09133600233637,-24.516087265428684,-61.454742013213654,-22.624327512375835,16.305999999982305
311840.1867,-29.864823164312778,-21.423206593509132,-49.38298553418121,-17.73679336439731,16.307000000029802
311840.1877,-28.89046155850213,-17.73025408900816,-36.21937269987445,-12.411685740282135,16.308000000019092
311840.1887,-27.178860397511,-13.546778806688678,-22.363560930907447,-6.811762091502401,16.309000000008382
311840.1897,-24.777523800715485,-9.0116106027211,-8.254091117363908,-1.1208812620020032,16.30999999999767
311840.1907,-21.76886997671213,-4.2869652605175546,5.646760466797993,4.463211651969507,16.31099999998696
311840.1917,-18.265803155249387,0.449419974233739,18.8705428944954,9.73757701293864,16.31200000003446
311840.1927,-14.405222109338053,5.013569523279711,30.961714657132532,14.503716020241994,16.31300000002375
311840.1937,-10.340004364898094,9.225292839837913,41.49719771993803,18.577517222001017,16.31400000001304
311840.1947,-6.23010968692346,12.918201252058621,50.10526172145663,21.79883369792331,16.31500000000233
311840.1957,-2.2334928375891345,15.948968316284827,56.48259869296574,24.040019145064434,16.315999999991618
311840.1967,1.5024980047537138,18.20514554358669,60.408536940343566,25.212816213823466,16.316999999980908
311840.1977,4.848630905964213,19.61096621857916,61.755512449763096,25.27310662252835,16.318000000028405
311840.1987,7.699719878937536,20.13073850841207,60.49515342545073,24.223189800429164,16.319000000017695
311840.1997,9.978640468508674,19.769629487626148,56.69961846176082,22.111441304965048,16.320000000006985
311840.2007,11.638271415460181,18.571855634318208,50.53813751177875,19.029397822301757,16.320999999996275
311840.2017,12.661381021255027,16.61650332695435,42.26901168897594,15.106505078909002,16.321999999985565
311840.2027,13.058643228874464,14.011386268395134,32.227608254927894,10.502932072862981,16.323000000033062
311840.2037,12.865108483283258,10.885489551834993,20.81111921895089,5.400985541953973,16.32400000002235
311840.2047,12.135556849633643,7.3806403010120345,8.461019128936282,-0.004258050386511455,16.32500000001164
311840.2057,10.939218300910884,3.6430756441549055,-4.3557504464938575,-5.514455581853884,16.32600000000093
311840.2067,9.354354648464962,-0.1844509022570245,-17.16582883841987,-10.937012112914287,16.32699999999022
311840.2077,7.463160936016304,-3.969469175983569,-29.50773710039873,-16.09305878032192,16.32800000003772
311840.2087,5.347367133826733,-7.595074576014825,-40.94857847206174,-20.823961579473195,16.32900000002701
311840.2097,3.084813074252089,-10.963433196422026,-51.098461298861245,-24.99607543436398,16.330000000016298
311840.2107,0.7471427316169842,-13.997430200149882,-59.62217478084971,-28.50362012122216,16.331000000005588
311840.2117,-1.6013685023192445,-16.640559637063827,-66.2478671075121,-31.26971700000128,16.331999999994878
311840.2127,-3.9039645529876466,-18.855312776653392,-70.77268688892441,-33.24577320414524,16.332999999984168
311840.2137,-6.110753048831801,-20.62044704493616,-73.0655350030543,-34.409519882774006,16.334000000031665
311840.2147,-8.177533694575471,-21.927597633819442,-73.06722133292023,-34.76209324896382,16.335000000020955
311840.2157,-10.064439008456958,-22.777722244281446,-70.78842030995433,-34.32458543345204,16.336000000010245
311840.2167,-11.734714265505707,-23.177844901809195,-66.30586689969452,-33.13448474661019,16.336999999999534
311840.2177,-13.1539234923268,-23.138491294807338,-59.757232190140755,-31.242374674338475,16.337999999988824
311840.2187,-14.289794911427482,-22.672094433388526,-51.33507155160601,-28.709174701112186,16.33900000003632
311840.2197,-15.112820750012089,-21.79250836202595,-41.28015903866502,-25.60409424513074,16.34000000002561
311840.2207,-15.597613809004805,-20.515614625334933,-29.874422849649974,-22.00334640526659,16.3410000000149
311840.2217,-15.724909136871485,-18.860857772209645,-17.43359328320369,-17.98954480504108,16.34200000000419
311840.2227,-15.483996326871814,-16.85341846887882,-4.29958165967461,-13.651598276778527,16.34299999999348
311840.2237,-14.87528805667596,-14.526639712097856,9.167460676216004,-9.084836524438098,16.34399999998277
311840.2247,-13.912682921823128,-11.924273539636928,22.597489822966164,-4.391054414948562,16.345000000030268
311840.2257,-12.625371455554268,-9.102118186533618,35.61940602647704,0.32184151244196835,16.346000000019558
311840.2267,-11.058765513849172,-6.128669159335466,47.87041837734064,4.940862515982002,16.347000000008848
311840.2277,-9.274300639274252,-3.0845070875283462,59.00589642725984,9.349844581271526,16.347999999998137
311840.2287,-7.347962138117637,-0.06028037654381398,68.70956118854517,13.432327127753972,16.348999999987427
311840.2297,-5.367508406478402,2.846702441911298,76.70374792659142,17.075371746412095,16.350000000034925
311840.2307,-3.4284969887066805,5.537093824650341,82.75935500764147,20.174158133760923,16.351000000024214
311840.2317,-1.6293461853888118,7.91501542974823,86.7049930739473,22.637073014817553,16.352000000013504
311840.2327,-0.06577420805347287,9.894006437954276,88.43478215210224,24.390910241679364,16.353000000002794
311840.2337,1.17496297834914,11.402887027124176,87.9142232751785,25.385738241479565,16.353999999992084
311840.2347,2.019573829452389,12.390986237378762,85.18360379002861,25.59897285377535,16.354999999981374
311840.2357,2.413516005358777,12.832214008057985,80.35848430749007,25.038223127800553,16.35600000002887
311840.2367,2.3246548839808185,12.727542416613478,73.6269569306653,23.74255363966866,16.35700000001816
311840.2377,1.7454761207102287,12.105593716455418,65.24354990808543,21.781923188470977,16.35800000000745
311840.2387,0.6936542901715342,11.021200222264916,55.51986914005327,19.254705821856476,16.35899999999674
311840.2397,-0.7890776414717471,9.551987183093775,44.81229422843163,16.283362196173158,16.35999999998603
311840.2407,-2.639663317543456,7.793216099441225,33.50726617665093,13.008491562096012,16.361000000033528
311840.2417,-4.777825209106642,5.851293762605527,22.004895475341726,9.581641167101363,16.362000000022817
311840.2427,-7.111175660000652,3.836484508906172,10.701765045066903,6.157365924458736,16.363000000012107
311840.2437,-9.540890725986973,1.8554460215993205,-0.026112126234812193,2.885105017514822,16.364000000001397
311840.2447,-11.967455525250527,0.004233468635520168,-9.839205219884365,-0.09853404974002657,16.364999999990687
311840.2457,-14.295991799579765,-1.63762048616802,-18.448329805501135,-2.676522475160833,16.366000000038184
311840.2467,-16.440727867023416,-3.0114384745898266,-25.62567374207746,-4.756706434922333,16.367000000027474
311840.2477,-18.328263737119695,-4.081779282308358,-31.212382780203164,-6.2752939223925015,16.368000000016764
311840.2487,-19.89941116407168,-4.836685353790237,-35.12233814498221,-7.198328653757287,16.369000000006054
311840.2497,-21.109537599055116,-5.285818141786147,-37.342019618072484,-7.521120279346581,16.369999999995343
311840.2507,-21.927499718663277,-5.456704875357787,-37.92661440313323,-7.265774151802445,16.370999999984633
311840.2517,-22.333400758157772,-5.389502668696506,-36.99278234759569,-6.477122770365191,16.37200000003213
311840.2527,-22.315531042859604,-5.13083011812852,-34.708701360096896,-5.217489755843143,16.37300000002142
311840.2537,-21.86693965074016,-4.727308026845824,-31.28217592034724,-3.5608037229686507,16.37400000001071
311840.2547,-20.98212717030786,-4.2194800200440215,-26.947684198105684,-1.5866157098395486,16.375
311840.2557,-19.65433959813553,-3.636746932978676,-21.953259346340165,0.6254431979619285,16.37599999998929
311840.2567,-17.873881236684102,-2.9938487938583904,-16.548048519546533,3.00029561478973,16.377000000036787
311840.2577,-15.627755021513222,-2.2892740857645526,-10.971276137690406,5.470786751269667,16.378000000026077
311840.2587,-12.900792041656445,-1.5057823334063252,-5.443168695671893,7.979576935996586,16.379000000015367
311840.2597,-9.678262273836076,-0.6130116001669209,-0.15819428204433875,10.479508701445303,16.380000000004657
311840.2607,-5.949782708061315,0.42807182822711154,4.719249124972886,12.932563141641571,16.380999999993946
311840.2617,-1.7141752298347548,1.659317255527425,9.056775944745263,15.307668791735859,16.381999999983236
311840.2627,3.0152077292467223,3.118714867508174,12.753853729280747,17.577744660337903,16.383000000030734
311840.2637,8.205261778959347,4.833586684020563,15.739957752078734,19.71643543871793,16.384000000020023
311840.2647,13.79862039699006,6.814357414097236,17.971550084237148,21.69502379832872,16.385000000009313
311840.2657,19.710437695542907,9.049579852597216,19.428430975020937,23.479979612300074,16.385999999998603
311840.2667,25.82696105081106,11.502783505938446,20.10998970566122,25.031531732607643,16.386999999987893
311840.2677,32.006253181694916,14.111552710594449,20.031809453420077,26.30353243372,16.38800000003539
311840.2687,38.08124574073668,16.789037045032426,19.222966712058533,27.244739754923717,16.38900000002468
311840.2697,43.86510533672451,19.427871771614434,17.72422457107631,27.801483594974815,16.39000000001397
311840.2707,49.15868718914604,21.9062608634503,15.587166689069818,27.921523755828616,16.39100000000326
311840.2717,53.75966085862967,24.095771252309916,12.874171412542383,27.558768128702816,16.39199999999255
311840.2727,57.472734720495914,25.87022344269565,9.658998206026785,26.67841091153815,16.39299999998184
311840.2737,60.120295720997696,27.11495567349612,6.02766374902144,25.261984930506518,16.394000000029337
311840.2747,61.55272837755427,27.73569600250199,2.0792314318377523,23.31180533048052,16.395000000018626
311840.2757,61.657686202216276,27.666302377618436,-2.0738700466290245,20.85431579720582,16.396000000007916
311840.2767,60.36765807226352,26.874721806116366,-6.306345836207143,17.94192988615435,16.396999999997206
311840.2777,57.66529431299567,25.366666988794567,-10.481620278058665,14.653081293550219,16.397999999986496
311840.2787,53.58612051123422,23.18669810753344,-14.454665745219984,11.090346700014816,16.399000000033993
311840.2797,48.21845614055308,20.416611176788447,-18.076099743497917,7.3766693275902115,16.400000000023283
311840.2807,41.70055303098827,17.17125305363233,-21.197434193347654,3.649875587999863,16.401000000012573
311840.2817,34.215158611809706,13.592087491263538,-23.677225492465805,0.05582640336169044,16.402000000001863
311840.2827,25.98187532748712,9.839009024455171,-25.38775740443654,-3.2593342520889346,16.402999999991152
311840.2837,17.24781823738787,6.081027901684968,-26.221802546997193,-6.157288806307005,16.40400000003865
311840.2847,8.277159038701713,2.486520204770828,-26.098961055370047,-8.515432176568385,16.40500000002794
311840.2857,-0.6598174644464448,-0.7862515339616364,-24.971072181218876,-10.233965016590648,16.40600000001723
311840.2867,-9.297528622004942,-3.5976892967366934,-22.826237518346712,-11.241683567885595,16.40700000000652
311840.2877,-17.38521867017839,-5.833923819129447,-19.691080491919625,-11.500056015553687,16.40799999999581
311840.2887,-24.695919579754744,-7.411974919036736,-15.63098907194006,-11.005308268481556,16.4089999999851
311840.2897,-31.03388848986646,-8.28275941878978,-10.74823733896328,-9.788396043198148,16.410000000032596
311840.2907,-36.240289296281176,-8.431878591221338,-5.178043909829974,-7.9129017976394325,16.411000000021886
311840.2917,-40.19701465678855,-7.878293026729534,0.917212855994399,-5.4710507504363886,16.412000000011176
311840.2927,-42.82866433771181,-6.671149200850831,7.355256008416136,-2.578176965233383,16.413000000000466
311840.2937,-44.102797781993054,-4.885146092367626,13.942162210817704,0.633922878520758,16.413999999989755
311840.2947,-44.02865693738671,-2.614912680090096,20.481040994778105,4.024242281477498,16.415000000037253
311840.2957,-42.654606547397826,0.03109708936861229,26.780545962370283,7.449893910087284,16.416000000026543
311840.2967,-40.06456298377118,2.936696865866208,32.662642883326576,10.773004401864952,16.417000000015832
311840.2977,-36.37368161407906,5.983608213266986,37.969129614995175,13.866726492748978,16.418000000005122
311840.2987,-31.723551087603997,9.056300108829793,42.56651665374613,16.620017287299564,16.418999999994412
311840.2997,-26.277106667906317,12.045795545088426,46.34902454239075,18.940954768576717,16.419999999983702
311840.3007,-20.213430428322916,14.852342243333391,49.23962156312701,20.75850218497752,16.4210000000312
311840.3017,-13.722560320688235,17.38697274897281,51.1891963570957,22.022768927070285,16.42200000002049
311840.3027,-7.000388713530765,19.57209374991329,52.17411910199193,22.703944142744525,16.42300000000978
311840.3037,-0.243698653009099,21.341334264519567,52.19257662959357,22.790184110280773,16.42399999999907
311840.3047,6.354634074130245,22.638939144953262,51.26015909246807,22.284807118638014,16.42499999998836
311840.3057,12.610251693645901,23.419013496900845,49.40522017219777,21.203184336760728,16.426000000035856
311840.3067,18.35171037822364,23.64490450810627,46.66452579620602,19.56970971833753,16.427000000025146
311840.3077,23.424616769222613,23.28895322071329,43.0796493807601,17.41518818319518,16.428000000014435
311840.3087,27.695436516274828,22.332767035494104,38.6944710482741,14.774904686875757,16.429000000003725
311840.3097,31.054879998511392,20.76806413813054,33.554004497384,11.687536022968974,16.429999999993015
311840.3107,33.420747062383136,18.59803534071976,27.704621676227816,8.194953201750469,16.430999999982305
311840.3117,34.74009734525665,15.839069343699247,21.195587227181555,4.342846991265401,16.432000000029802
311840.3127,34.990609942914375,12.522605694041797,14.081667118627879,0.18200451352074992,16.433000000019092
311840.3137,34.18100890155371,8.696825305979342,6.426452961451432,-4.230018865405445,16.434000000008382
311840.3147,32.350460579828685,4.427867881143223,-1.6940433411243312,-8.827142613947165,16.43499999999767
311840.3157,29.566894602536888,-0.19971821059101663,-10.188012890500334,-13.533249692249923,16.43599999998696
311840.3167,25.92425910202939,-5.083536153363715,-18.945174702221745,-18.26123611207211,16.43700000003446
311840.3177,21.538788525905925,-10.105070996914206,-27.835234579141023,-22.91288789473173,16.43800000002375
311840.3187,16.544432344454798,-15.132645021530582,-36.70781741593238,-27.379774903115457,16.43900000001304
311840.3197,11.087658555132032,-20.025536347967655,-45.39408681083777,-31.545253812363008,16.44000000000233
311840.3207,5.321899898703423,-24.639082473465912,-53.7101192663279,-35.28756487282245,16.440999999991618
311840.3217,-0.5980531997963106,-28.830486251881776,-61.461946093486844,-38.48389969643162,16.441999999980908
311840.3227,-6.52139573024673,-32.464960934463605,-68.45202828829882,-41.01522040271565,16.443000000028405
311840.3237,-12.306082590347863,-35.42180187163773,-74.48680119275821,-42.77153319031276,16.444000000017695
311840.3247,-17.8227687129931,-37.59996079325555,-79.38482774814084,-43.65726876184846,16.445000000006985
311840.3257,-22.957712111530906,-38.92272594321309,-82.98503965407616,-43.59640231516679,16.445999999996275
311840.3267,-27.614519630162174,-39.341175525184,-85.15452915217007,-42.536958247659946,16.446999999985565
311840.3277,-31.71471025550465,-38.83616698319092,-85.79538085975192,-40.45458741974654,16.448000000033062
311840.3287,-35.1971699793202,-37.418741529732124,-84.85009959520933,-37.35497306219551,16.44900000002235
311840.3297,-38.01666609663906,-35.12895076580583,-82.30528954151984,-33.27490816282028,16.45000000001164
311840.3307,-40.141668292216714,-32.033237862634095,-78.19336283080717,-28.28198386474498,16.45100000000093
311840.3317,-41.55178079974097,-28.220617438027226,-72.59219051874766,-22.472925845978093,16.45199999999022
311840.3327,-42.2351181556838,-23.79798524463854,-65.62274427513377,-15.97070492925821,16.45300000003772
311840.3337,-42.18595311617152,-18.884942916532548,-57.444901885997,-8.920621588515989,16.45400000002701
311840.3347,-41.402928768368795,-13.608539496105037,-48.25169439474947,-1.4856158090011178,16.455000000016298
311840.3357,-39.88806058934798,-8.098309351050904,-38.26235034754946,6.158919382975325,16.456000000005588
311840.3367,-37.64666405524997,-2.4819284036851066,-27.71453899181196,13.830541075334578,16.456999999994878
311840.3377,-34.688237756612644,3.11827603546716,-16.856228345284208,21.34511880238215,16.457999999984168
311840.3387,-31.02822092282042,8.587832564655033,-5.937557736577807,28.52193975603467,16.459000000031665
311840.3397,-26.69043863227947,13.8216348210383,4.7969177541550065,35.18839470942793,16.460000000020955
311840.3407,-21.70995830004469,18.724546891110837,15.115315055035142,41.184142369776396,16.461000000010245
311840.3417,-16.136016451951768,23.21129336438617,24.80462038004408,46.36470815895815,16.461999999999534
311840.3427,-10.03464221189926,27.205890635932665,33.675850282722,50.60452338214542,16.462999999988824
311840.3437,-3.490607291669164,30.64091156395218,41.56810401401883,53.799447034512944,16.46400000003632
311840.3447,3.391627834809476,33.45687478055575,48.35149822832492,55.86883168867116,16.46500000002561
311840.3457,10.48822833320353,35.60201314166896,53.929024625398434,56.75719584664538,16.4660000000149
311840.3467,17.65771560632118,37.03260713961319,58.23740463148687,56.43554904169404,16.46700000000419
311840.3477,24.744149757007666,37.713976184622005,61.247032842632926,54.9023862563429,16.46799999999348
311840.3487,31.581671519962683,37.62211376950805,62.96110476222548,52.184330113474665,16.46899999998277
311840.3497,38.000186749898376,36.745843595531106,63.41401795195055,48.33635923764505,16.470000000030268
311840.3507,43.831867175807574,35.08927512243449,62.66912357748403,43.44152607880866,16.471000000019558
311840.3517,48.91805734053397,32.674260230090944,60.815892214141094,37.610043890225946,16.472000000008848
311840.3527,53.11612776018095,29.542507194888625,57.96654803736894,30.977615846254714,16.472999999998137
311840.3537,56.30580371943565,25.757000341916218,54.252222565288285,23.7028930036456,16.473999999987427
311840.3547,58.394529580396636,21.402406047330413,49.81868499134138,15.963983110762328,16.475000000034925
311840.3557,59.32149801032093,16.58421655142377,44.82172129204128,7.953987685111188,16.476000000024214
311840.3567,59.06007635658754,11.426486490201755,39.42225752225356,-0.12438374772828459,16.477000000013504
311840.3577,57.6184894208687,6.068143714245577,33.78135132515113,-8.064992148915197,16.478000000002794
311840.3587,55.03875747026374,0.657993633023855,28.05520581122024,-15.665027119142414,16.478999999992084
311840.3597,51.39402735266714,-4.651328780875228,22.39038699630262,-22.732055742396646,16.479999999981374
311840.3607,46.78455971924867,-9.710087055434395,16.919445141408485,-29.09101311155543,16.48100000002887
311840.3617,41.3327343790986,-14.378390460148019,11.757147208535859,-34.590749076219964,16.48200000001816
311840.3627,35.17749889855709,-18.53285062651826,6.997518793070504,-39.10973872239133,16.48300000000745
311840.3637,28.468706371971415,-22.07243506019698,2.711867312495597,-42.56058967467411,16.48399999999674
311840.3647,21.361764737987503,-24.92305062856934,-1.0520862767806296,-44.8930375880785,16.48499999998603
311840.3657,14.01295458756346,-27.04048118902836,-4.2699006081267035,-46.09520897890307,16.486000000033528
311840.3667,6.575672043758881,-28.41143271241615,-6.938938275192214,-46.19304154569743,16.487000000022817
311840.3677,-0.8022712544636263,-29.052595132022084,-9.07580774769048,-45.24787747592485,16.488000000012107
311840.3687,-7.980294248114832,-29.007798331422926,-10.712889151842354,-43.35237425564914,16.489000000001397
311840.3697,-14.825772826634525,-28.3435042250239,-11.894182924664346,-40.624998755024514,16.489999999990687
311840.3707,-21.21409281177441,-27.143021843391875,-12.67077836319069,-37.20347275473651,16.491000000038184
311840.3717,-27.028356359880245,-25.499943388288784,-13.09627593995248,-33.23761197583567,16.492000000027474
311840.3727,-32.159107785813035,-23.51136513411167,-13.222508073279716,-28.882038905835284,16.493000000016764
311840.3737,-36.504437557145565,-21.27147085500749,-13.095885186028715,-24.289248332308567,16.494000000006054
311840.3747,-39.970769338083684,-18.866015213225463,-12.754647370079939,-19.603463236527197,16.494999999995343
311840.3757,-42.4745394775795,-16.368153611302123,-12.227229613162903,-14.955641066896186,16.495999999984633
311840.3767,-43.94485095337394,-13.835931766642767,-11.53185581987192,-10.459883381764458,16.49700000003213
311840.3777,-44.327037975953466,-11.311585323616761,-10.677371473171725,-6.211375222402964,16.49800000002142
311840.3787,-43.586929058993796,-8.822622794239539,-9.665215957484934,-2.285846025961763,16.49900000001071
311840.3797,-41.71546190377853,-6.384491100443638,-8.492333145721199,1.259586169057262,16.5
311840.3807,-38.73319838138569,-4.004468841629412,-7.154732330448203,4.384439090616161,16.50099999998929
311840.3817,-34.69422495435977,-1.6863131035534118,-5.6513491333794335,7.062097898414606,16.502000000036787
311840.3827,-29.688911683279546,0.5648872262710021,-3.987823706914108,9.276645250720327,16.503000000026077
311840.3837,-23.845045101977245,2.7382179311181956,-2.179814668475567,11.01969437185391,16.504000000015367
311840.3847,-17.326944872165974,4.813335706109187,-0.2555020574133664,12.287603615271866,16.505000000004657
311840.3857,-10.33231412828958,6.758195596437263,1.7430016181495274,13.079388319854306,16.505999999993946
311840.3867,-3.086747107934687,8.528418581785047,3.7595220638158557,13.395552879167562,16.506999999983236
311840.3877,4.163990091607069,10.068444328541032,5.725056850767411,13.237952089135614,16.508000000030734
311840.3887,11.163596095283017,11.31443422406793,7.560336655664612,12.610667147627657,16.509000000020023
311840.3897,17.65630098567514,12.19871093201109,9.179564167251874,11.521760202269054,16.510000000009313
311840.3907,23.3987306757881,12.655359846315951,10.495078192973335,9.985663944976752,16.510999999998603
311840.3917,28.171836982692895,12.626490359048233,11.422608769649484,8.025880020548236,16.511999999987893
311840.3927,31.792117667520447,12.068573157128935,11.886735123091928,5.677610275112837,16.51300000003539
311840.3937,34.121367519325744,10.958242012062684,11.826136619292512,2.9899333805779666,16.51400000002468
311840.3947,35.07427881320711,9.296977948876885,11.198239052488605,0.027167804151505416,16.51500000001397
311840.3957,34.62334184879241,7.114178200893241,9.982903418347293,-3.1308716810923394,16.51600000000326
311840.3967,32.80067375031434,4.4682447505438425,8.184877616384854,-6.389918512006701,16.51699999999255
311840.3977,29.69661239709527,1.4454957774988941,5.834826799301806,-9.643673145507094,16.51799999998184
311840.3987,25.455135675799262,-1.8431072237503385,2.988867014328448,-12.777536375099718,16.519000000029337
311840.3997,20.266386342030515,-5.267230810001645,-0.2733600231755163,-15.67346517571781,16.520000000018626
311840.4007,14.356782026139044,-8.684074608703362,-3.8519253440875514,-18.215640526666316,16.521000000007916
311840.4017,7.977352438120386,-11.946396837437769,-7.630925193192334,-20.29654337531706,16.521999999997206
311840.4027,1.3910588405363207,-14.911043332124073,-11.483557011497414,-21.82297635754355,16.522999999986496
311840.4037,-5.140094230305926,-17.447313526029784,-15.277604700588592,-22.721551402223866,16.524000000033993
311840.4047,-11.367351909563142,-19.444506352901087,-18.880966133357468,-22.9431894592058,16.525000000023283
311840.4057,-17.066170764038812,-20.818057076916677,-22.166874401562882,-22.466246785768767,16.526000000012573
311840.4067,-22.0452346280472,-21.513796592938206,-25.01851180299155,-21.297987022126883,16.527000000001863
311840.4077,-26.15307391859234,-21.51002695296424,-27.332787135014097,-19.474250694295076,16.527999999991152
311840.4087,-29.282030747526765,-20.817296045055695,-29.02313535910634,-17.05732210071596,16.52900000003865
311840.4097,-31.36951740971346,-19.47595322537768,-30.02129543323168,-14.132144397410622,16.53000000002794
311840.4107,-32.396716258640275,-17.551758058906966,-30.278117555662025,-10.801173269560868,16.53100000001723
311840.4117,-32.38504811351037,-15.129978637344326,-29.763535750838763,-7.178274859038061,16.53200000000652
311840.4127,-31.390879797837236,-12.308539017793139,-28.465907135388466,-3.382153646452826,16.53299999999581
311840.4137,-29.49903811890308,-9.190845729065908,-26.39095863339971,0.4701670858956225,16.5339999999851
311840.4147,-26.815740737015044,-5.878934466289373,-23.56059123123555,4.269299688128483,16.535000000032596
311840.4157,-23.461541956367174,-2.4675290379682204,-20.011770029635695,7.918425642538801,16.536000000021886
311840.4167,-19.564826524885078,0.960499929838524,-15.795677647053285,11.336850697731348,16.537000000011176
311840.4177,-15.2562748462428,4.336939006530377,-10.97723446204229,14.461955380909949,16.538000000000466
311840.4187,-10.664580437123881,7.60914201785118,-5.635000041260588,17.249466370052005,16.538999999989755
311840.4197,-5.913539844300931,10.739083571775797,0.1386238211366636,19.672132145494476,16.540000000037253
311840.4207,-1.1204729992873694,13.700781719060133,6.237055450612802,21.717035332941226,16.541000000026543
311840.4217,3.604215426411863,16.476479220997973,12.539297882894749,23.381899751084077,16.542000000015832
311840.4227,8.156640871395407,19.052095939468426,18.91008522793593,24.670840084236982,16.543000000005122
311840.4237,12.438593571879046,21.412534799659635,25.200698799215573,25.59004741200405,16.543999999994412
311840.4247,16.356654461543698,23.537433505810725,31.250711759051335,26.143899979982027,16.544999999983702
311840.4257,19.821660541280195,25.397902635414628,36.89085471529241,26.331935871960702,16.5460000000312
311840.4267,22.74883726418057,26.954683000703195,41.9470962212856,26.147027799996298,16.54700000002049
311840.4277,25.058805582130127,28.15800206388497,46.24591032716974,25.57496961325436,16.54800000000978
311840.4287,26.679534902659444,28.949226189154572,49.620570184562354,24.59553234932079,16.54899999999907
311840.4297,27.549165932565646,29.264211168995082,51.918176113917454,23.18488988489032,16.54999999998836
311840.4307,27.619486115883646,29.0380675436356,53.00701283609337,21.3191662924454,16.551000000035856
311840.4317,26.859721404216607,28.21089870238044,52.78374694144279,18.97873371745754,16.552000000025146
311840.4327,25.260225362774673,26.733954833006752,51.17993269915078,16.152803335097325,16.553000000014435
311840.4337,22.835610170239136,24.575586298782852,48.167298748204956,12.843811399413873,16.554000000003725
311840.4347,19.62687899684337,21.726382220423616,43.76134217930972,9.071111672485602,16.554999999993015
311840.4357,15.702185106791866,18.202943981464173,38.02285718664912,4.8735437782689015,16.555999999982305
311840.4367,11.155953924246795,14.049862953101698,31.057165263536792,0.3105485937274159,16.557000000029802
311840.4377,6.106249481341042,9.339635318117951,23.010981197225487,-4.538363242878443,16.558000000019092
311840.4387,0.6904316681085123,4.170438493041777,14.067029277388727,-9.575828404942921,16.559000000008382
311840.4397,-4.940681165589569,-1.3381054103538674,4.436700983671092,-14.69041182575994,16.55999999999767
311840.4407,-10.629775673514532,-7.050862991668684,-5.648797256995993,-19.761679752763555,16.56099999998696
311840.4417,-16.220640550599708,-12.824341983603558,-15.948234546755057,-24.666167893546422,16.56200000003446
311840.4427,-21.565824091248672,-18.514467756736654,-26.220435400861106,-29.283759264789985,16.56300000002375
311840.4437,-26.533751092706197,-23.984328040002957,-36.23397673920363,-33.50394334258066,16.56400000001304
311840.4447,-31.01472628015265,-29.111231233085075,-45.77586270216185,-37.23143460469178,16.56500000000233
311840.4457,-34.9253347862059,-33.792487136561455,-54.65862519061422,-40.39068397119666,16.565999999991618
311840.4467,-38.2108816774227,-37.94943859352318,-62.72543205050994,-42.928915754350314,16.566999999980908
311840.4477,-40.845680356082646,-41.529436988058634,-69.85295397429154,-44.817456140262195,16.568000000028405
311840.4487,-42.83118839814553,-44.50564799471502,-75.95193043136427,-46.05127431173672,16.569000000017695
311840.4497,-44.192181250584966,-46.87477779872254,-80.96556725576862,-46.646819406243424,16.570000000006985
311840.4507,-44.97133086270715,-48.653004557132135,-84.86607650388383,-46.6383902608636,16.570999999996275
311840.4517,-45.22270065631326,-49.87056637123168,-87.6498166781148,-46.07340581659526,16.571999999985565
311840.4527,-45.004766080774104,-50.56557942453537,-89.33159499610952,-45.007039822342456,16.573000000033062
311840.4537,-44.373611567168155,-50.77772642176741,-89.93874373083614,-43.496735142881015,16.57400000002235
311840.4547,-43.376935604894896,-50.54245968853492,-89.50557538725465,-41.59711578986466,16.57500000001164
311840.4557,-42.04941740105719,-49.8863049557874,-88.0687576608094,-39.35576865798109,16.57600000000093
311840.4567,-40.40986838270279,-48.82373672804963,-85.66403512096812,-36.810276392023795,16.57699999999022
311840.4577,-38.46042193874375,-47.35593548881389,-82.32457150020518,-33.98675655542638,16.57800000003772
311840.4587,-36.18782136421437,-45.471546486348345,-78.08100915046484,-30.90001238714961,16.57900000002701
311840.4597,-33.566667276794746,-43.14935797636997,-72.96315772788601,-27.55524119516316,16.580000000016298
311840.4607,-30.56430055306351,-40.36262313014644,-67.00305018517274,-23.95109297115478,16.581000000005588
311840.4617,-27.14684240462779,-37.084583055661845,-60.23895732817587,-20.08373868784662,16.581999999994878
311840.4627,-23.285803848703683,-33.294624582972915,-52.719846519251554,-15.951507591036279,16.582999999984168
311840.4637,-18.96462240295841,-28.984437501192566,-44.50971560391429,-11.559595136276739,16.584000000031665
311840.4647,-14.184488959039447,-24.16352835484322,-35.69123490999876,-6.924333535869305,16.585000000020955
311840.4657,-8.968891439232257,-18.86350233483739,-26.36818795574252,-2.0765561159410257,16.586000000010245
311840.4667,-3.366417541878195,-13.140635894185683,-16.666309710169347,2.9363288750941785,16.586999999999534
311840.4677,2.548484593443285,-7.076419720847078,-6.732269499966777,8.049817736179433,16.587999999988824
311840.4687,8.676906465698586,-0.775939496820433,3.269280204304427,13.183459544404078,16.58900000003632
311840.4697,14.898967229631682,5.635837519721194,13.160484441440666,18.2436297836841,16.59000000002561
311840.4707,21.079133954334306,12.01960773673572,22.756615826486364,23.127730683225067,16.5910000000149
311840.4717,27.07296057449986,18.22867629683954,31.87352334876797,27.729482548276202,16.59200000000419
311840.4727,32.73471301947971,24.116740892322643,40.335657418357016,31.944864641036222,16.59299999999348
311840.4737,37.92527794181317,29.54587663490824,47.98406613420907,35.678199747855345,16.59399999998277
311840.4747,42.51973663460554,34.39406695308073,54.68375010148914,38.84785948252469,16.595000000030268
311840.4757,46.414024361392165,38.56166852927459,60.329810742689254,41.39109912037593,16.596000000019558
311840.4767,49.530183642623854,41.97629703806052,64.85192502111313,43.26760816265018,16.597000000008848
311840.4777,51.819848802372846,44.595764979231916,68.21681818814302,44.46147837880593,16.597999999998137
311840.4787,53.26575552789125,46.4088790431028,70.42857222022926,44.981433649810256,16.598999999987427
311840.4797,53.881238364713894,47.43409519651074,71.52678532493034,44.85932191508245,16.600000000034925
311840.4807,53.70784524314286,47.71621688517323,71.582770797983,44.14702411249292,16.601000000024214
311840.4817,52.811346346850705,47.321487882833935,70.69413597872348,42.91207366072934,16.602000000013504
311840.4827,51.27653207694173,46.331561160286064,68.97820076697612,41.23238989411079,16.603000000002794
311840.4837,49.201272009151104,44.83690721691493,66.56479032157658,39.19059993138813,16.603999999992084
311840.4847,46.69033813869377,42.93025290932414,63.58896265476525,36.86844955797866,16.604999999981374
311840.4857,43.849480360064604,40.70061354929179,60.18420802767718,34.34178298778373,16.60600000002887
311840.4867,40.78018344150214,38.22840090261969,56.476587074609746,31.67650646712869,16.60700000001816
311840.4877,37.57544007400359,35.58196654068137,52.580166247389776,28.925848351063955,16.60800000000745
311840.4887,34.31675439514587,32.81578654010616,48.59397352413168,26.12909871717737,16.60899999999674
311840.4897,31.072457283560357,29.97032518917327,44.600547574549715,23.311867396491746,16.60999999998603
311840.4907,27.89728212408588,27.073448662410872,40.66600385618683,20.487754297927967,16.611000000033528
311840.4917,24.833030669063493,24.14311062669173,36.84140524165549,17.661193761501284,16.612000000022817
311840.4927,21.910064437026023,21.190914526274238,33.16511501885516,14.83112767229361,16.613000000012107
311840.4937,19.149296461849403,18.226082662810683,29.66573614279291,11.995089949047458,16.614000000001397
311840.4947,16.564336293758796,15.259336679893172,26.365208706465335,9.153254131388481,16.614999999990687
311840.4957,14.163459143991876,12.306219391283948,23.281650043484863,6.3120085230246765,16.616000000038184
311840.4967,11.95112507532026,9.389460830600939,20.43157683542083,3.48667797732504,16.617000000027474
311840.4977,9.92885951608934,6.540104138181072,17.83124024992477,0.7031022929970804,16.618000000016764
311840.4987,8.095412345413722,3.7972478263109637,15.49692418844597,-2.0021006778866353,16.619000000006054
311840.4997,6.446227436498015,1.206415792549946,13.444191225970851,-4.582625215717979,16.619999999995343
311840.5007,4.972364952201361,-1.183280402770696,11.686197231805167,-6.984822487255459,16.620999999984633
311840.5017,3.659112272617414,-3.3228864124102535,10.231320037835612,-9.15107470696585,16.62200000003213
311840.5027,2.484585202046981,-5.16785130273826,9.080446831723016,-11.023869548192446,16.62300000002142
311840.5037,1.4186508004245628,-6.6823055865244845,8.224328296128672,-12.550174100034592,16.62400000001071
311840.5047,0.42249221535017395,-7.842886248953056,7.6414272251098625,-13.685675508795073,16.625
311840.5057,-0.5509161120586005,-8.641658922479344,7.29666184543264,-14.398465867409998,16.62599999998929
311840.5067,-1.555243499803956,-9.087769770514122,7.141370370804641,-14.671801033079648,16.627000000036787
311840.5077,-2.6480868136622626,-9.207581788784184,7.114709129834337,-14.505651935286638,16.628000000026077
311840.5087,-3.8871765560585048,-9.043200408361296,7.146551973364713,-13.91688404734649,16.629000000015367
311840.5097,-5.3257171872328275,-8.649456800177063,7.161797140424993,-12.93803467314824,16.630000000004657
311840.5107,-7.0072002957252435,-8.089577881193959,7.085825207972502,-11.614795433178195,16.630999999993946
311840.5117,-8.96012978637895,-7.429913460828183,6.850704835084166,-10.002435219281486,16.631999999983236
311840.5127,-11.193160261674658,-6.734198619241111,6.401627555330387,-8.161504173749877,16.633000000030734
311840.5137,-13.691164249997732,-6.05789176347738,5.70298220463714,-6.153231307866541,16.634000000020023
311840.5147,-16.412706407877227,-5.443138669392877,4.743463096476313,-4.035059791325668,16.635000000009313
311840.5157,-19.289313997095157,-4.914868115031888,3.539648139404258,-1.8567512924748701,16.635999999998603
311840.5167,-22.226798852999764,-4.4784287982925015,2.1375824435416853,0.3425650117917108,16.636999999987893
311840.5177,-25.108717700245755,-4.119038649285674,0.6120525672105149,2.536116716672147,16.63800000003539
311840.5187,-27.801870030500556,-3.803149354983701,-0.9365758108638929,4.709825984160903,16.63900000002468
311840.5197,-30.163543447223383,-3.4816470557828687,-2.3878747114648107,6.861239939049225,16.64000000001397
311840.5207,-32.05004391752339,-3.0946325032010344,-3.608931119620719,8.997174386824378,16.64100000000326
311840.5217,-33.3259102818177,-2.5773680772506857,-4.463495818353925,11.130321793741155,16.64199999999255
311840.5227,-33.873123371166486,-1.866860604912931,-4.82205590176524,13.275180178923998,16.64299999998184
311840.5237,-33.59959046655793,-0.908480010237923,-4.572075576412131,15.443730093008918,16.644000000029337
311840.5247,-32.44622030960119,0.33799822566531695,-3.6276050106021605,17.641315033341442,16.645000000018626
311840.5257,-30.3920009384931,1.8934922786385484,-1.9374802391790416,19.863163548329812,16.646000000007916
311840.5267,-27.45664458990066,3.75631929254544,0.508572348357079,22.091930525506605,16.646999999997206
311840.5277,-23.700557571934088,5.900825121381186,3.676462670437868,24.29653672094066,16.647999999986496
311840.5287,-19.22211090293272,8.278079717640109,7.487232180759642,26.432459214787542,16.649000000033993
311840.5297,-14.152409588662774,10.81858835278657,11.81962620621442,28.44348368848658,16.650000000023283
311840.5307,-8.64796405817032,13.43678245193701,16.51561235848529,30.264786250646377,16.651000000012573
311840.5317,-2.881837349086541,16.036890149170233,21.388484463020447,31.827082139910566,16.652000000001863
311840.5327,2.9660396378416656,18.519661579445266,26.23299177950735,33.06147385108803,16.652999999991152
311840.5337,8.718635922335348,20.789349442663493,30.836780428783545,33.90456232934391,16.65400000003865
311840.5347,14.210932760890067,22.760328496798277,34.9923404713171,34.30335851473107,16.65500000002794
311840.5357,19.29771768715073,24.362779629103386,38.508625074094724,34.219551088813645,16.65600000001723
311840.5367,23.859530581243835,25.546960454003884,41.22154863976562,33.63274767359214,16.65700000000652
311840.5377,27.806409307449456,26.2857250795407,43.002673569033796,32.54240458498475,16.65799999999581
311840.5387,31.07928648352096,26.575126526791234,43.765549942591484,30.96828455728254,16.6589999999851
311840.5397,33.64910013802922,26.433119155382645,43.46936397524262,28.94942004697335,16.660000000032596
311840.5407,35.51387940836301,25.896557075042526,42.119761942755105,26.541697903658637,16.661000000021886
311840.5417,36.694233662038556,25.016840334447146,39.766927686954865,23.81430558525367,16.662000000011176
311840.5427,37.22779446428928,23.854678553649862,36.50118577676073,20.845377437360952,16.663000000000466
311840.5437,37.16322437597834,22.474510437782726,32.44656333996046,17.717242365855057,16.663999999989755
311840.5447,36.554409989428365,20.93913115576032,27.752859628002188,14.511695753238147,16.665000000037253
311840.5457,35.45540019876522,19.30503738731723,22.586836374167106,11.305697256151586,16.666000000026543
311840.5467,33.916541465918414,17.61890705790633,17.12315194802077,8.167835158604625,16.667000000015832
311840.5477,31.982111705772837,15.91549757697563,11.535621288482242,5.15580432246691,16.668000000005122
311840.5487,29.6895789679447,14.217086945613957,5.989299260547306,2.3150288825225305,16.668999999994412
311840.5497,27.070428050144546,12.534413109986295,0.6337686608759294,-0.32156469480448147,16.669999999983702
311840.5507,24.152325656208927,10.868905941001113,-4.402120864238201,-2.732740226232292,16.6710000000312
311840.5517,20.96224951945232,9.215869806863367,-9.0139558451262,-4.90733096413687,16.67200000002049
311840.5527,17.53010298667494,7.568176849051309,-13.12392636453652,-6.842103104101753,16.67300000000978
311840.5537,13.892283689170016,5.919981736735365,-16.681588465151833,-8.539442569900539,16.67399999999907
311840.5547,10.094677874352321,4.269972815942812,-19.663430718667676,-10.005205183176312,16.67499999998836
311840.5557,6.194610060920213,2.6237316459025197,-22.071498026002846,-11.247031836782892,16.676000000035856
311840.5567,2.261384914105603,0.9948769459820088,-23.931334634888916,-12.273356657197697,16.677000000025146
311840.5577,-1.6247960857672954,-0.5951908488342758,-25.28948571644336,-13.093235682370599,16.678000000014435
311840.5587,-5.375590822163175,-2.1189664565450186,-26.21074945327091,-13.717007521904685,16.679000000003725
311840.5597,-8.898815862947574,-3.5457935232974123,-26.775308661984727,-14.15767874750612,16.679999999993015
311840.5607,-12.103991456794907,-4.845796835773724,-27.075802906436632,-14.432818674229644,16.680999999982305
311840.5617,-14.908692660278472,-5.99436933613489,-27.214339199975292,-14.566662981280855,16.682000000029802
311840.5627,-17.245164184480515,-6.9767072932217395,-27.299390851660448,-14.592073201326361,16.683000000019092
311840.5637,-19.06660264464211,-7.791855332934047,-27.442506669640473,-14.551986036129504,16.684000000008382
311840.5647,-20.35251009288569,-8.455746872448753,-27.754750576078408,-14.500015250820793,16.68499999999767
311840.5657,-21.112577183463866,-9.002803485133205,-28.34281543927895,-14.49993776901236,16.68599999998696
311840.5667,-21.3886583633028,-9.485782137285621,-29.30480205912682,-14.623898599733115,16.68700000003446
311840.5677,-21.254546051437735,-9.973720657103957,-30.7257192758997,-14.949296853496099,16.68800000002375
311840.5687,-20.81342334885649,-10.548014151366045,-32.672836273442826,-15.554455142555323,16.68900000001304
311840.5697,-20.193060545431553,-11.296841075441069,-35.191093916125666,-16.51331336945077,16.69000000000233
311840.5707,-19.539003663409467,-12.308329371734201,-38.29884838179344,-17.889511312869395,16.690999999991618
311840.5717,-19.00616792355832,-13.662993671722685,-41.984267834537626,-19.73031964426247,16.691999999980908
311840.5727,-18.74938142326844,-15.426069827033372,-46.20272327806541,-22.060935529798414,16.693000000028405
311840.5737,-18.913513408548827,-17.64041286260555,-50.87550229962802,-24.879669683694424,16.694000000017695
311840.5747,-19.6238600446343,-20.320603772125157,-55.89012657908866,-28.154513719926946,16.695000000006985
311840.5757,-20.977445724400994,-23.448829992540063,-61.102471876734256,-31.821491558626473,16.695999999996275
311840.5767,-23.035831563783915,-26.972970187361287,-66.34077759491579,-35.78507268670729,16.696999999985565
311840.5777,-25.819911178699975,-30.807137624745305,-71.41150031742431,-39.92076852769231,16.698000000033062
311840.5787,-29.307027364886395,-34.834733630838,-76.10682318484218,-44.079859507832666,16.69900000002235
311840.5797,-33.430575058502264,-38.91385174795215,-80.21349356771015,-48.096025039529856,16.70000000001164
311840.5807,-38.08208072070855,-42.88467374057917,-83.52253872993641,-51.793487510472445,16.70100000000093
311840.5817,-43.11558104342498,-46.57832899124734,-85.83931555229422,-54.99614936554924,16.70199999999022
311840.5827,-48.353978350145375,-49.82656492002005,-86.99329608898576,-57.537111891113355,16.70300000003772
311840.5837,-53.59693744514524,-52.471509360162585,-86.84698243281457,-59.26792399824357,16.70400000002701
311840.5847,-58.629816542407816,-54.3748023864045,-85.30338443645044,-60.06692315523279,16.705000000016298
311840.5857,-63.23309665374014,-55.425434904796774,-82.31158001322653,-59.846097576002045,16.706000000005588
311840.5867,-67.19178840169532,-55.54574828033494,-77.87000329764611,-58.55601278616549,16.706999999994878
311840.5877,-70.30434750944437,-54.695211847096886,-72.02726036567208,-56.188496329647805,16.707999999984168
311840.5887,-72.39071170162023,-52.8717874807826,-64.88044225217719,-52.776947865337306,16.709000000031665
311840.5897,-73.29917164205465,-50.11089401097728,-56.57107602260962,-48.3943224818665,16.710000000020955
311840.5907,-72.91189507400661,-46.4821798110653,-47.279012087364286,-43.14900656592485,16.711000000010245
311840.5917,-71.14902513836365,-42.08448126967933,-37.214676690063115,-37.17895300341171,16.711999999999534
311840.5927,-67.97136118956045,-37.039472794949575,-26.610212135546504,-30.644553484807744,16.712999999988824
311840.5937,-63.38169622071777,-31.48458970515843,-15.710077013941001,-23.720791580231534,16.71400000003632
311840.5947,-57.424925458951385,-25.565823377525373,-4.7616816938495115,-16.589236879519483,16.71500000002561
311840.5957,-50.187055535553135,-19.430948735537243,5.993407806625717,-9.430408449624519,16.7160000000149
311840.5967,-41.79323594218679,-13.223653579473707,16.327246366499104,-2.416960303272101,16.71700000000419
311840.5977,-32.40491008099538,-7.078908358842162,26.031928393183076,4.291968399965295,16.71799999999348
311840.5987,-22.216149827320777,-1.119758441455071,34.92444282782812,10.555028022167692,16.71899999998277
311840.5997,-11.449203728188868,4.5444443526955896,42.84989859706091,16.251488468953944,16.720000000030268
311840.6007,-0.3492630994297178,9.818510837760295,49.68318872266118,21.282690341501134,16.721000000019558
311840.6017,10.821560565698771,14.620855959917833,55.32927793068347,25.57229957724442,16.722000000008848
311840.6027,21.791044355526807,18.882278404430338,59.72238784790264,29.065634975706335,16.722999999998137
311840.6037,32.28441507333999,22.544490822213348,62.82440871685646,31.72838798729973,16.723999999987427
311840.6047,42.03257636587078,25.558808851966987,64.6228834365698,33.5450635756143,16.725000000034925
311840.6057,50.78084547265016,27.885352995293367,65.12888881493339,34.51744067753624,16.726000000024214
311840.6067,58.29796245669352,29.49302011581145,64.37508404010433,34.66328580429942,16.727000000013504
311840.6077,64.385052009759,30.360352063482722,62.41411464157162,34.01546231849566,16.728000000002794
311840.6087,68.88414321241545,30.477282279990394,59.31746126200352,32.621472279485964,16.728999999992084
311840.6097,71.68579630468805,29.847593757136433,55.17471763654505,30.543360384212455,16.729999999981374
311840.6107,72.73535710540101,28.491790164232718,50.093183002719805,27.857813501690487,16.73100000002887
311840.6117,72.03736682939858,26.44998158928143,44.197571802186545,24.656216414752254,16.73200000001816
311840.6127,69.6577024565822,23.78432929690573,37.6295872876868,21.044383913573828,16.73300000000745
311840.6137,65.72311167755174,20.580587923946364,30.54708213004425,17.141687039625495,16.73399999999674
311840.6147,60.41793393756398,16.94833106469533,23.122541585175995,13.079328539570438,16.73499999998603
311840.6157,53.97795833137909,13.019544087536504,15.540672767862638,8.997596501246425,16.736000000033528
311840.6167,46.68154949013656,8.945407752333834,7.994962909530255,5.042028572678873,16.737000000022817
311840.6177,38.83836064947042,4.891264668511542,0.6831726149722123,1.358541502315088,16.738000000012107
311840.6187,30.776133477000354,1.0299414473591977,-6.19815312972569,-1.912291009064575,16.739000000001397
311840.6197,22.826241178317098,-2.4662255269477025,-12.45995502419848,-4.64150901321968,16.739999999990687
311840.6207,15.308750113811993,-5.434161415131974,-17.92740178037044,-6.71818399565099,16.741000000038184
311840.6217,8.517843341890607,-7.72901038586068,-22.446710792175704,-8.055516883625335,16.742000000027474
311840.6227,2.708458642350627,-9.232608767068973,-25.891600501643307,-8.596126571947204,16.743000000016764
311840.6237,-1.915060052044427,-9.860803577591847,-28.16891428421394,-8.316062332462918,16.744000000006054
311840.6247,-5.20761361520542,-9.569007750944092,-29.22298438456545,-7.22714277812218,16.744999999995343
311840.6257,-7.0887855850775425,-8.355502296253519,-29.038374221210436,-5.3773346050395805,16.745999999984633
311840.6267,-7.54476199112385,-6.2621621159983505,-27.640742918722697,-2.8490270143177274,16.74700000003213
311840.6277,-6.626664501700957,-3.372481746419225,-25.09570821465114,0.2447799689034444,16.74800000002142
311840.6287,-4.445471451842401,0.193007879145414,-21.505731120690406,3.7661877475101684,16.74900000001071
311840.6297,-1.1639317280767905,4.283629811628651,-17.005194477160128,7.559669493739814,16.75
311840.6307,3.0139247743898605,8.727269295668986,-11.753984141909866,11.46042410908749,16.75099999998929
311840.6317,7.854925654204912,13.340263343147944,-5.929993408562267,15.303244736494463,16.752000000036787
311840.6327,13.109698472543805,17.937741830784343,0.2789519115639045,18.93128464451381,16.753000000026077
311840.6337,18.52554894919146,22.34365921592586,6.683215442972835,22.204106565435147,16.754000000015367
311840.6347,23.85845190285605,26.399790075215343,13.098997042866328,25.004456455212672,16.755000000004657
311840.6357,28.883440977500783,29.973057896039737,19.355036115938837,27.2433047258812,16.755999999993946
311840.6367,33.40284572563835,32.96071618420247,25.297995446080044,28.86283857484038,16.756999999983236
311840.6377,37.25202577110234,35.29309043388941,30.796271466065203,29.837255890039568,16.758000000030734
311840.6387,40.302473387191846,36.9338016571456,35.74211684682833,30.1713897210232,16.759000000020023
311840.6397,42.462378102994506,37.87760775305235,40.052106149876536,29.897366743568625,16.760000000009313
311840.6407,43.67495025241967,38.14619848203235,43.6661116116794,29.069658096163145,16.760999999998603
311840.6417,43.91496701639314,37.782445180153466,46.54507148406593,27.759002738070773,16.761999999987893
311840.6427,43.18412034922601,36.8437227753373,48.66791751282837,26.045761369264273,16.76300000003539
311840.6437,41.50580194262415,35.394978913099344,50.028074049731835,24.01328625843197,16.76400000002468
311840.6447,38.91995246647227,33.5022183881814,50.6299457346876,21.741866990646717,16.76500000001397
311840.6457,35.47853312957362,31.227001952522006,50.48577450208504,19.303736982664216,16.76600000000326
311840.6467,31.242055267487434,28.62243417257537,49.61317462089841,16.7595080601412,16.76699999999255
311840.6477,26.277441293227355,25.730947799190496,48.033554709397265,14.156251828086113,16.76799999998184
311840.6487,20.657304759884383,22.583998575400074,45.7715188236006,11.527281245534926,16.769000000029337
311840.6497,14.460547419026007,19.20358346720751,42.85521688368067,8.893519506515677,16.770000000018626
311840.6507,7.773996267697585,15.605306504190686,39.317500181657124,6.266191811005341,16.771000000007916
311840.6517,0.6946613941971073,11.802558040900399,35.19764184578796,3.6504531616499993,16.771999999997206
311840.6527,-6.667899520055048,7.811260555042047,30.54331421519254,1.049483360704891,16.772999999986496
311840.6537,-14.189661992829173,3.654577858194481,25.4124814905984,-1.531453626272633,16.774000000033993
311840.6547,-21.731189091598484,-0.6330099284679993,19.874869690388206,-4.081472014010116,16.775000000023283
311840.6557,-29.13810408376646,-5.002796833341559,14.012716070944123,-6.581468890799177,16.776000000012573
311840.6567,-36.243290311758514,-9.3905173863018,7.920572400226851,-9.0027845927138,16.777000000001863
311840.6577,-42.8709518642307,-13.716836250171198,1.7040333047826608,-11.30729373241801,16.777999999991152
311840.6587,-48.8424705327701,-17.88971922804081,-4.5226275515190695,-13.448946285887152,16.77900000003865
311840.6597,-53.983793046635725,-21.80854694396535,-10.639815784365865,-15.376620864802485,16.78000000002794
311840.6607,-58.13389767887056,-25.369647701219613,-16.52676480456393,-17.038009010711665,16.78100000001723
311840.6617,-61.15373982841534,-28.47277166031402,-22.066182758216065,-18.38413439038649,16.78200000000652
311840.6627,-62.934977895543554,-31.027920082641852,-27.149046752574364,-19.37403575921348,16.78299999999581
311840.6637,-63.40774487678048,-32.961892055085485,-31.67916813702283,-19.97911520583278,16.7839999999851
311840.6647,-62.54676303938855,-34.22392238582091,-35.57716450440705,-20.186676533480473,16.785000000032596
311840.6657,-60.37519781688351,-34.78985763081455,-38.78352192952814,-20.002250698428384,16.786000000021886
311840.6667,-56.96580527873689,-34.664445726715684,-41.26051007653166,-19.450419190571438,16.787000000011176
311840.6677,-52.43913190866862,-33.88148621308369,-42.99281529590387,-18.57399107591524,16.788000000000466
311840.6687,-46.95875805526487,-32.501785945859766,-43.98687240600014,-17.431550955380466,16.788999999989755
311840.6697,-40.72381637949679,-30.609070259174917,-44.268992871186015,-16.093557403315508,16.790000000037253
311840.6707,-33.95924199466786,-28.304191658059327,-43.8824937381621,-14.637318416508794,16.791000000026543
311840.6717,-26.904400967034693,-25.698138455257176,-42.88411719602759,-13.141287313534773,16.792000000015832
311840.6727,-19.800880754160424,-22.904458510977463,-41.34008633361416,-11.67919751251749,16.793000000005122
311840.6737,-12.880297210576742,-20.031767247113308,-39.32216293507005,-10.314579852362138,16.793999999994412
311840.6747,-6.352971317875053,-17.17699898485271,-36.9040559196826,-9.096178594557129,16.794999999983702
311840.6757,-0.3982548949532579,-14.419987270440416,-34.15847603481368,-8.054704069386839,16.7960000000312
311840.6767,4.84285495599326,-11.819830266653613,-31.155049037290354,-7.201238182424019,16.79700000002049
311840.6777,9.272365137560067,-9.41332404094802,-27.959194363726034,-6.527455033328204,16.79800000000978
311840.6787,12.83697935406743,-7.215546469929,-24.631960015150856,-6.007647287054327,16.79899999999907
311840.6797,15.52685587278967,-5.222466906496088,-21.230689143224247,-5.602376062419442,16.79999999998836
311840.6807,17.371685980736014,-3.415261842506764,-17.810291782539682,-5.263404596006011,16.801000000035856
311840.6817,18.43455493348749,-1.7658534375287107,-14.424817377037199,-4.939449081153308,16.802000000025146
311840.6827,18.804207141862644,-0.2430718129283064,-11.128979049628747,-4.582196332015453,16.803000000014435
311840.6837,18.5864377903032,1.181215300796158,-7.9792747163933555,-4.1520057193174775,16.804000000003725
311840.6847,17.8953663333837,2.526655002757708,-5.0343851797948025,-3.622735766213397,16.804999999993015
311840.6857,16.845311993362746,3.8002224813314127,-2.3546032556196725,-2.9852122803664165,16.805999999982305
311840.6867,15.5438924474126,4.993746066201487,-0.00015483659327612006,-2.2489782656707953,16.807000000029802
311840.6877,14.086815107481623,6.08342238172337,1.9715969313083854,-1.442124974140318,16.808000000019092
311840.6887,12.55464123676394,7.031398846089878,3.5099317694081864,-0.6091837498430912,16.809000000008382
311840.6897,11.01159531430494,7.789290573407062,4.575265545192121,0.19275690247893418,16.80999999999767
311840.6907,9.506285694254712,8.30329966641485,5.143964352843312,0.8993725814387415,16.81099999998696
311840.6917,8.074017388896932,8.520436224074826,5.212996695234545,1.4453831447772225,16.81200000003446
311840.6927,6.740231106285176,8.395218631672199,4.803892864398247,1.7712120390089232,16.81300000002375
311840.6937,5.524507934753336,7.896167985426432,3.9654823308030314,1.82939741309021,16.81400000001304
311840.6947,4.444544555090021,7.011414419376101,2.7749349249420727,1.5901376612504634,16.81500000000233
311840.6957,3.5195319270395595,5.752802038649847,1.3367381803646008,1.0454215770860533,16.815999999991618
311840.6967,2.772457299186837,4.158008234976307,-0.22060533354395698,0.21131278907468407,16.816999999980908
311840.6977,2.230985709221795,2.29037073042343,-1.750191961909083,-0.871880850635437,16.818000000028405
311840.6987,1.926748727082863,0.23632544639601022,-3.0944703797247195,-2.141634138464308,16.819000000017695
311840.6997,1.893057571202096,-1.8994192504427547,-4.09475912960963,-3.517310700246483,16.820000000006985
311840.7007,2.161245803039266,-4.000632024809402,-4.60196764141418,-4.906041453307558,16.820999999996275
311840.7017,2.7560147118123886,-5.947705806748149,-4.487810819803231,-6.209903875773679,16.821999999985565
311840.7027,3.6902854160539618,-7.626536670805919,-3.655709235264367,-7.3338070643216495,16.823000000033062
311840.7037,4.960142452115086,-8.937387426605648,-2.0505311951676193,-8.193416471850615,16.82400000002235
311840.7047,6.5404759001645285,-9.802975382301755,0.3336347088180607,-8.722440299861082,16.82500000001164
311840.7057,8.381890279537442,-10.175078963165022,3.448387730573785,-8.878648000857304,16.82600000000093
311840.7067,10.40935177279476,-10.039077069081275,7.189152913056906,-8.648095823989136,16.82699999999022
311840.7077,12.522899604553503,-9.416007390069025,11.396885878811958,-8.047185205837353,16.82800000003772
311840.7087,14.600566090974414,-8.361939550181571,15.86343549368138,-7.12236318233389,16.82900000002701
311840.7097,16.50344986852151,-6.964686643028952,20.340394773934772,-5.9474730605509585,16.830000000016298
311840.7107,18.082686773188698,-5.338103575982487,24.5510157389577,-4.618960223195018,16.831000000005588
311840.7117,19.187881458953083,-3.6144221717672678,28.204535458602017,-3.2493144737671615,16.831999999994878
311840.7127,19.676417058432012,-1.9352330586800888,31.01207639687757,-1.959271228682805,16.832999999984168
311840.7137,19.422963610228386,-0.4418289619843365,32.70315875466437,-0.869387171811329,16.834000000031665
311840.7147,18.32846762250495,0.7343355803827786,33.04180548922357,-0.09164441636499915,16.835000000020955
311840.7157,16.327928612956903,1.4803393332673318,31.841236111668554,0.27828126203030085,16.836000000010245
311840.7167,13.396351649690052,1.7090047453667834,28.976231512191095,0.16752465111773074,16.836999999999534
311840.7177,9.55240023662097,1.3641264792330736,24.392401669651942,-0.4691381485304159,16.837999999988824
311840.7187,4.859449060650949,0.42340225369385653,18.11178907383716,-1.646427536279188,16.83900000003632
311840.7197,-0.5760646299812175,-1.1010474841550406,10.234477212393232,-3.3477925100544437,16.84000000002561
311840.7207,-6.608886665261014,-3.1644804029116482,0.9361274041531088,-5.526690874721387,16.8410000000149
311840.7217,-13.061490384505774,-5.693375993324945,-9.538380346837082,-8.109712530775008,16.84200000000419
311840.7227,-19.73245609917077,-8.590891356261524,-20.884794137032348,-11.001208725733683,16.84299999999348
311840.7237,-26.406098349096574,-11.743392015315239,-32.75221931352407,-14.088995441284945,16.84399999998277
311840.7247,-32.86268186049779,-15.027469339422272,-44.757976111593806,-17.250648371604647,16.845000000030268
311840.7257,-38.88855150387398,-18.316862218420606,-56.50373994720986,-20.35990235578845,16.846000000019558
311840.7267,-44.28554152250663,-21.488760935463304,-67.59208672554897,-23.292707281855666,16.847000000008848
311840.7277,-48.879119095043066,-24.42907733546141,-77.64259246036974,-25.932568893096704,16.847999999998137
311840.7287,-52.524846706101904,-27.036404741351042,-86.3067161711964,-28.174906784430657,16.848999999987427
311840.7297,-55.11290326244444,-29.22454804232454,-93.28081755466448,-29.930281114610967,16.850000000034925
311840.7307,-56.5705698750808,-30.92366208275437,-98.31681360033505,-31.12646113785411,16.851000000024214
311840.7317,-56.86274679628016,-32.08017843767188,-101.23014688292804,-31.70941988681649,16.852000000013504
311840.7327,-55.99070841498283,-32.65581245705442,-101.90490831516091,-31.64342915113333,16.853000000002794
311840.7337,-53.989411383655735,-32.626013189048635,-100.29611552950463,-30.910488934154415,16.853999999992084
311840.7347,-50.92373859925308,-31.978242128000534,-96.4292840599605,-29.50935098640602,16.854999999981374
311840.7357,-46.88408518659844,-30.710441547593845,-90.39753475128342,-27.45438590483971,16.85600000002887
311840.7367,-41.98167296218258,-28.829983616193065,-82.35655381298962,-24.77450072468025,16.85700000001816
311840.7377,-36.3439227892055,-26.35328650259332,-72.51776202277364,-21.51224558190075,16.85800000000745
311840.7387,-30.11012928824274,-23.306156062493734,-61.140060600823176,-17.72316339274941,16.85899999999674
311840.7397,-23.42758171942455,-19.72477672414352,-48.5205097178688,-13.475346868703545,16.85999999998603
311840.7407,-16.448171904917434,-15.657148988520529,-34.984269540821536,-8.8490843842058,16.861000000033528
311840.7417,-9.325437897415398,-11.164668768301953,-20.874101604882892,-3.9364112938506155,16.862000000022817
311840.7427,-2.2119219954133906,-6.323478329183809,-6.539697765613128,1.1596546937036682,16.863000000012107
311840.7437,4.743318138266071,-1.2251986688573089,7.672919136843829,6.326420514337971,16.864000000001397
311840.7447,11.397211850411283,4.023317332351379,21.431691128700578,11.443563352609345,16.864999999990687
311840.7457,17.615328997420445,9.301494227572725,34.428286742208385,16.386047437673597,16.866000000038184
311840.7467,23.274763448800464,14.477970483732525,46.387089616646385,21.027953255774314,16.867000000027474
311840.7477,28.267245226196575,19.414978672089212,57.0731624447176,25.247150487989174,16.868000000016764
311840.7487,32.502389284097795,23.974023217583206,66.29892323834676,28.930629196426967,16.869000000006054
311840.7497,35.91090055493697,28.022549432890223,73.92926767391229,31.980193157642194,16.869999999995343
311840.7507,38.44748142154618,31.441157452054068,79.88488290608053,34.318127810953136,16.870999999984633
311840.7517,40.09314051807846,34.130810535526514,84.14353028392632,35.89239471174581,16.87200000003213
311840.7527,40.85658924304695,36.01943184151956,86.73913055179838,36.68088367536386,16.87300000002142
311840.7537,40.774439373438476,37.06728539823325,87.75856652897255,36.694278308483945,16.87400000001071
311840.7547,39.90998205350287,37.27059840873664,87.33622313879286,35.977161318264,16.875
311840.7557,38.35043093179405,36.662999972781975,85.64640809181812,34.60709916823598,16.87599999998929
311840.7567,36.2026417331002,35.314516817910864,82.89393065768722,32.69159311941441,16.877000000036787
311840.7577,33.587464884056736,33.328065622517634,79.3032504615808,30.362953380591357,16.878000000026077
311840.7587,30.633032328031685,30.83359608547051,75.10673113369774,27.771330065910654,16.879000000015367
311840.7597,27.467408748027992,27.980248985203477,70.53263237732783,25.076302496758892,16.880000000004657
311840.7607,24.211136090762565,24.92707877423688,65.79353676583928,22.43757073434436,16.880999999993946
311840.7617,20.97025585438763,21.83303224522416,61.07592454539892,20.005395432026333,16.881999999983236
311840.7627,17.83039711839157,18.84695862013958,56.53157442805823,17.911482719615364,16.883000000030734
311840.7637,14.852465692684572,16.098442434993476,52.27137864114614,16.261002929131486,16.884000000020023
311840.7647,12.07036252513753,13.690195526509065,48.362019116404284,15.12636393750105,16.885000000009313
311840.7657,9.491004757754279,11.692621781232479,44.825766475852085,14.543235812572973,16.885999999998603
311840.7667,7.09673283471571,10.140988177506989,41.643446869672886,14.50915283553963,16.886999999987893
311840.7677,4.849978214912773,9.03541384093029,38.76038994044857,14.984816034104686,16.88800000003539
311840.7687,2.699857502912932,8.343645387157895,36.09494280051741,15.898001685817409,16.88900000002468
311840.7697,0.5901699634347641,8.006344112318613,33.548929218802954,17.149768177046276,16.89000000001397
311840.7707,-1.5318749121146882,7.944391151482338,31.0192684798155,18.622464374063856,16.89100000000326
311840.7717,-3.7069691601380597,8.067541089293007,28.40986008882657,20.188894578993875,16.89199999999255
311840.7727,-5.955857429342166,8.283639206984331,25.642799859796934,21.721901890776287,16.89299999998184
311840.7737,-8.273087220501935,8.507573527404007,22.668025713070506,23.103602117211754,16.894000000029337
311840.7747,-10.623008093317917,8.669164369502749,19.470597397889417,24.233537248223765,16.895000000018626
311840.7757,-12.938497283472223,8.71929847752321,16.07498676078636,25.03511777719807,16.896000000007916
311840.7767,-15.12266788881638,8.633782365964786,12.545981683316022,25.459877911605478,16.896999999997206
311840.7777,-17.053563905416983,8.414604812854813,8.986070075042596,25.48926301797276,16.897999999986496
311840.7787,-18.591585562700775,8.088541451662492,5.529449453385726,25.133886855154174,16.899000000033993
311840.7797,-19.589141672314177,7.703282545199285,2.333079966475393,24.430417520708044,16.900000000023283
311840.7807,-19.901815436615287,7.321495149754068,-0.43455840064951906,23.436455537885212,16.901000000012573
311840.7817,-19.40017596764666,7.013421524517083,-2.6061508343830804,22.22393667020251,16.902000000001863
311840.7827,-17.981284618859554,6.848749015021931,-4.0286951972707215,20.871710653530595,16.902999999991152
311840.7837,-15.578941984648525,6.888550309037185,-4.5760842783906766,19.458004547117255,16.90400000003865
311840.7847,-12.171799872202458,7.178081058475651,-4.160129952348766,18.05347096325261,16.90500000002794
311840.7857,-7.788617135238442,7.741135656064876,-2.739152113258201,16.715448328603923,16.90600000001723
311840.7867,-2.5101564546737283,8.576509780806857,-0.32344263280880453,15.483929902774545,16.90700000000652
311840.7877,3.532517471631939,9.65691480086334,3.0228417221839856,14.379563263954381,16.90799999999581
311840.7887,10.163291998694483,10.930453774021396,7.183523855217585,13.403799298017136,16.9089999999851
311840.7897,17.169483041010032,12.324524178279301,11.995862868031306,12.541098912915437,16.910000000032596
311840.7907,24.312947808464113,13.751782051302008,17.259217440548877,11.762906964307927,16.911000000021886
311840.7917,31.343040539384706,15.117607890909952,22.746267310030564,11.032935170605365,16.912000000011176
311840.7927,38.01047800493653,16.328374845695947,28.215956656554376,10.313174934921484,16.913000000000466
311840.7937,44.08112002997106,17.29974738341594,33.427207026599355,9.56999811397425,16.913999999989755
311840.7947,49.34869138147703,17.964240091202075,38.15241102787476,8.779704257907847,16.915000000037253
311840.7957,53.64557173537655,18.277340636475255,42.18976266957307,7.932935827281572,16.916000000026543
311840.7967,56.85094957935734,18.221640238333457,45.37359994403072,7.0375014275636385,16.917000000015832
311840.7977,58.895857449317994,17.808605114710392,47.582117599439215,6.11930893017487,16.918000000005122
311840.7987,59.76485921005385,17.07784442271127,48.742035435869134,5.221299199275928,16.918999999994412
311840.7997,59.49442238505453,16.093962559959255,48.8300588908512,4.400468395407669,16.919999999983702
311840.8007,58.168257033157296,14.941304088680075,47.87122183877284,3.723253378024051,16.9210000000312
311840.8017,55.9101166774203,13.717087287285707,45.93443479552244,3.2597128574119187,16.92200000002049
311840.8027,52.874719529717794,12.523560265723065,43.12575609675959,3.0770519927794497,16.92300000000978
311840.8037,49.237548197422704,11.459889653924439,39.580044299176045,3.2330998374639153,16.92399999999907
311840.8047,45.184317753725594,10.614500197761213,35.45172755769976,3.7703524104698967,16.92499999998836
311840.8057,40.900866346992565,10.058524862705427,30.90543651024944,4.711139863580575,16.926000000035856
311840.8067,36.56412620695873,9.840906294768514,26.107193706731724,6.054370272933232,16.927000000025146
311840.8077,32.33468783336491,9.98552428949534,21.21674284398226,7.774155781499354,16.928000000014435
311840.8087,28.351291954364225,10.490527031967712,16.381447633648737,9.820453501065735,16.929000000003725
311840.8097,24.72739033897734,11.329835547687388,11.732009005001428,12.121670243344528,16.929999999993015
311840.8107,21.549726047619075,12.456590910907362,7.380058327417364,14.589003848286087,16.930999999982305
311840.8117,18.878713327250217,13.808140884861553,3.4175014264669117,17.122140654010302,16.932000000029802
311840.8127,16.75026154451888,15.312032426696762,-0.08267003413308911,19.615812093058818,16.933000000019092
311840.8137,15.178596881757588,16.892400127307567,-3.064502949689728,21.966643468641283,16.934000000008382
311840.8147,14.15959593218795,18.476124127406003,-5.48661753082526,24.079710200762296,16.93499999999767
311840.8157,13.674157775501662,19.9981745982686,-7.319645108837029,25.874251960758937,16.93599999998696
311840.8167,13.69120168078537,21.40565814355268,-8.54402652453928,27.288079092999357,16.93700000003446
311840.8177,14.169978028153368,22.660224133739558,-9.148545271572994,28.280330208784907,16.93800000002375
311840.8187,15.061508679782996,23.73866176498682,-9.129847508627455,28.832393001903867,16.93900000001304
311840.8197,16.309115892214397,24.631704723268882,-8.493053349516162,28.946967971074866,16.94000000000233
311840.8207,17.84814099294409,25.341241932844042,-7.253405824123023,28.64542154365857,16.940999999991618
311840.8217,19.60508087455927,25.876292819197616,-5.438751772690697,27.963726051030818,16.941999999980908
311840.8227,21.496468998779108,26.24822885412982,-3.0925182288632396,26.94740568022518,16.943000000028405
311840.8237,23.427887980050127,26.4657984335021,-0.27675198574880777,25.64598926848094,16.944000000017695
311840.8247,25.29351657037225,26.530532465898435,2.9252609358753996,24.10750568015894,16.945000000006985
311840.8257,26.976582903293554,26.43307167195886,6.407279584444239,22.373542892246874,16.945999999996275
311840.8267,28.351020552792132,26.150867055346225,10.039728788706771,20.475329738767652,16.946999999985565
311840.8277,29.284510971452093,25.64757082026491,13.670990669855422,18.4311957965792,16.948000000033062
311840.8287,29.642955538655613,24.874268873616558,17.130564586032786,16.24563015833719,16.94900000002235
311840.8297,29.29626590696892,23.77252366989447,20.23413040757896,13.910006660532908,16.95000000001164
311840.8307,28.125207330117558,22.279014794136902,22.790376397468563,11.404885933342886,16.95100000000093
311840.8317,26.028891209010883,20.331401532247344,24.609284664745402,8.703658054361453,16.95199999999022
311840.8327,22.932404106617934,17.874902268048405,25.51141993342143,5.777167091675692,16.95300000003772
311840.8337,18.793992429855834,14.869002239603656,25.337655019421607,2.5988714399031805,16.95400000002701
311840.8347,13.611202782157704,11.293672017087758,23.958699429760646,-0.8499508682849203,16.955000000016298
311840.8357,7.425411229486882,7.154506958199909,21.283782097882266,-4.575441378844911,16.956000000005588
311840.8367,0.32425921482866077,2.4862803920228114,17.267876813326396,-8.567288190315091,16.956999999994878
311840.8377,-7.558356296904804,-2.6454672388452067,11.91694586160792,-12.796098035375275,16.957999999984168
311840.8387,-16.04492579236364,-8.145016622177492,5.290805767558047,-17.21225438821619,16.959000000031665
311840.8397,-24.919603836633836,-13.889264472902925,-2.496622754226091,-21.74636732607894,16.960000000020955
311840.8407,-33.93592694412581,-19.732567700362594,-11.27974446996633,-26.311280256166572,16.961000000010245
311840.8417,-42.826597543137126,-25.51330746434151,-20.84628777931595,-30.80546609315887,16.961999999999534
311840.8427,-51.31480191011455,-31.061702103323608,-30.944598831357666,-35.117533398021166,16.962999999988824
311840.8437,-59.12641211396286,-36.208299356943385,-41.29282394872543,-39.13148135650745,16.96400000003632
311840.8447,-66.00235326758425,-40.79253131843467,-51.58947350702982,-42.73229795127531,16.96500000002561
311840.8457,-71.71040336537045,-44.67072364764103,-61.5248031001693,-45.811490998896524,16.9660000000149
311840.8467,-76.05573449816902,-47.72301196002581,-70.79243418018824,-48.27217548753561,16.96700000000419
311840.8477,-78.88959721074818,-49.85872611333662,-79.10066407070263,-50.03340756939151,16.96799999999348
311840.8487,-80.11568565899537,-51.019946110441715,-86.18297831840799,-51.033547074794726,16.96899999998277
311840.8497,-79.69388784552912,-51.18309707449117,-91.80736788994103,-51.23253566420531,16.970000000030268
311840.8507,-77.64130788886112,-50.3586190177665,-95.78415903892473,-50.61308476332507,16.971000000019558
311840.8517,-74.03063024325986,-48.588903565547675,-97.9721734361716,-49.18086448255554,16.972000000008848
311840.8527,-68.9860636524043,-45.94481954809321,-98.28313964976978,-46.963861524795604,16.972999999998137
311840.8537,-62.67724183104139,-42.52124053709568,-96.68436526599608,-44.011122924257855,16.973999999987427
311840.8547,-55.31155793989804,-38.43203220961086,-93.19974543699863,-40.391119002871285,16.975000000034925
311840.8557,-47.125464384762545,-33.8049529864808,-87.90922517470459,-36.18994266921541,16.976000000024214
311840.8567,-38.37527643587272,-28.776869965495166,-80.94684940272116,-31.50951645242353,16.977000000013504
311840.8577,-29.327980400573008,-23.489600876463378,-72.49752994662573,-26.46591025087371,16.978000000002794
311840.8587,-20.252471657754135,-18.08657286167962,-62.79263827272275,-21.187791168481546,16.978999999992084
311840.8597,-11.411545327821313,-12.71035449306991,-52.10450470417261,-15.814943137175204,16.979999999981374
311840.8607,-3.0548455672069936,-7.500984173209357,-40.7398776949753,-10.496719813915279,16.98100000002887
311840.8617,4.5871378076981095,-2.5949013121844122,-29.03237886523851,-5.390240135732818,16.98200000001816
311840.8627,11.308041318163404,1.8758000492868199,-17.333987839684255,-0.658110451520441,16.98300000000745
311840.8637,16.929665355267954,5.784121978135656,-6.0056101009340335,3.5345342575520315,16.98399999999674
311840.8647,21.305223626308983,9.009245017438303,4.59317731259927,7.023833300310332,16.98499999998603
311840.8657,24.32196515514076,11.438223222138538,14.115045070369689,9.65193315750353,16.986000000033528
311840.8667,25.90330926257407,12.96848452077244,22.236260430675124,11.27263205309965,16.987000000022817
311840.8677,26.010584289661725,13.511207877490909,28.668144227807204,11.757797087255648,16.988000000012107
311840.8687,24.644390385788792,12.995507930302606,33.16823007285883,11.004289561016178,16.989000000001397
311840.8697,21.845526733963688,11.373213055695505,35.550648088195125,8.941018143669915,16.989999999990687
311840.8707,17.695346654700295,8.623890703030936,35.695206951205954,5.53564634460307,16.991000000038184
311840.8717,12.31534242887313,4.7596700192294135,33.554632026186255,0.8004223485139204,16.992000000027474
311840.8727,5.865726059935969,-0.1706506392133768,29.159440787776436,-5.203415172674941,16.993000000016764
311840.8737,-1.4572297095644329,-6.078735588418313,22.620003151655478,-12.36316684478726,16.994000000006054
311840.8747,-9.42529011985557,-12.835564557648281,14.125443411214818,-20.514564730788308,16.994999999995343
311840.8757,-17.783924032382963,-20.272391602468,3.9391878218038134,-29.444322827136308,16.995999999984633
311840.8767,-26.25955859501579,-28.184052861774468,-7.608860844343473,-38.895473880988554,16.99700000003213
311840.8777,-34.56831654437722,-36.33468841403994,-20.13334489068466,-48.57542774536101,16.99800000002142
311840.8787,-42.42598973907816,-44.46574681346179,-33.20729281102363,-58.16648446525032,16.99900000001071
311840.8797,-49.55886480886004,-52.30594279249111,-46.378214726366004,-67.33834091532131,17.0
311840.8807,-55.71489575620671,-59.5826575667887,-59.18572483163443,-75.76195999552345,17.00099999998929
311840.8817,-60.67462740081269,-66.03412449443294,-71.17984176488679,-83.12404147866232,17.002000000036787
311840.8827,-64.26122388934378,-71.42164504483937,-81.93904756710118,-89.1412559575072,17.003000000026077
311840.8837,-66.34895586666175,-75.54104144580192,-91.08717463805182,-93.57338617759923,17.004000000015367
311840.8847,-66.86955183506706,-78.23257810818703,-98.3082407657625,-96.23456663015718,17.005000000004657
311840.8857,-65.81592252715791,-79.38867333727758,-103.35846297716654,-97.00192054443535,17.005999999993946
311840.8867,-63.24291585985259,-78.95886952556131,-106.07484481511196,-95.8210560284911,17.006999999983236
311840.8877,-59.26494394822243,-76.95172233021042,-106.37993743051784,-92.70808800754044,17.008000000030734
311840.8887,-54.05052890393835,-73.43349135659808,-104.28260768934535,-87.74808398092166,17.009000000020023
311840.8897,-47.81402445865572,-68.5237478163645,-99.87488894977264,-81.09007118207876,17.010000000009313
311840.8907,-40.80496852550482,-62.38823853102491,-93.32522382227197,-72.9389712881488,17.010999999998603
311840.8917,-33.29569081581035,-55.229541156501675,-84.86861516686278,-63.54502794762906,17.011999999987893
311840.8927,-25.56792477252768,-47.27619566943898,-74.79436603416424,-53.19144603261645,17.01300000003539
311840.8937,-17.899243036692187,-38.77108905967196,-63.43219908161643,-42.181057495760186,17.01400000002468
311840.8947,-10.55014371662689,-29.959896170128165,-51.13759388838613,-30.822859853426735,17.01500000001397
311840.8957,-3.7525595470201463,-21.080338131290098,-38.277164832875116,-19.419238177317883,17.01600000000326
311840.8967,2.299552092182183,-12.352915535585732,-25.214826845748426,-8.254584503819732,17.01699999999255
311840.8977,7.457043736401946,-3.973616930924888,-12.299370833712654,2.414120288751789,17.01799999998184
311840.8987,11.619540978540758,3.8910902163063175,0.1460913220256967,12.364383325099686,17.019000000029337
311840.8997,14.736454597205123,11.106890474703333,11.832533862104487,21.4127624556641,17.020000000018626
311840.9007,16.80517749512732,17.5719870946924,22.51118144629843,29.416948624408683,17.021000000007916
311840.9017,17.866798202422817,23.2155056355722,31.97750397131669,36.2755902716431,17.021999999997206
311840.9027,17.99982274130142,27.994384224320633,40.073253593977476,41.92623641034594,17.022999999986496
311840.9037,17.312508063627885,31.88929621590714,46.68685340461325,46.341882309679555,17.024000000033993
311840.9047,15.934465142626609,34.90018720868777,51.752498401691106,49.526654435154526,17.025000000023283
311840.9057,14.008185682588854,37.041983034824675,55.248333330775594,51.51116738655842,17.026000000012573
311840.9067,11.681086437197173,38.34094308737845,57.194032884818405,52.34802863869737,17.027000000001863
311840.9077,9.098557557039273,38.832004389326634,57.64803643168364,52.10786566305141,17.027999999991152
311840.9087,6.398358677925841,38.557300925107825,56.70459387630086,50.87611737137271,17.02900000003865
311840.9097,3.706543964385724,37.56586773167893,54.49067547178866,48.75068341673144,17.03000000002794
311840.9107,1.1349317303117803,35.91436908678601,51.162700788321295,45.840377488980934,17.03100000001723
311840.9117,-1.2200180377751977,33.66854314206753,46.90296394257785,42.264000549359444,17.03200000000652
311840.9127,-3.277179425475034,30.90494729809045,41.915584377909724,38.14975095936177,17.03299999999581
311840.9137,-4.969936228873003,27.71253115979691,36.421802093882036,33.634631078287896,17.0339999999851
311840.9147,-6.244943591169432,24.193563401656206,30.65446594078407,28.863499932899668,17.035000000032596
311840.9157,-7.060853225876998,20.463495722179864,24.851631342303133,23.98745965120623,17.036000000021886
311840.9167,-7.387326317903565,16.649455680051346,19.249282911745716,19.16134497501443,17.037000000011176
311840.9177,-7.204567381571694,12.887209518619246,14.07331726101487,14.540201120590782,17.038000000000466
311840.9187,-6.503495693551397,9.31661067921438,9.531048378531766,10.27477263782128,17.038999999989755
311840.9197,-5.2865424444692986,6.075731343190743,5.802617327556399,6.506169464735611,17.040000000037253
311840.9207,-3.5689365801686894,3.294043832088222,3.0327848832087945,3.3600100582342676,17.041000000026543
311840.9217,-1.3802350304636946,1.0851578348004454,1.323647027061964,0.9404501726318526,17.042000000015832
311840.9227,1.234223801351573,-0.46028711968712654,0.7288290931695203,-0.675423109954429,17.043000000005122
311840.9237,4.212301600220677,-1.2809376675277664,1.2496792740684406,-1.4423280089856254,17.043999999994412
311840.9247,7.474827724292726,-1.3496398878331244,2.8338956153524246,-1.3501775062445625,17.044999999983702
311840.9257,10.92645182727388,-0.6764248577927073,5.376887171588018,-0.4257198808967736,17.0460000000312
311840.9267,14.457788641861175,0.6908180232237578,8.72599905516683,1.2678515332779878,17.04700000002049
311840.9277,17.94893918154913,2.668181959371234,12.68753598146721,3.6334479166197156,17.04800000000978
311840.9287,21.27433106791412,5.140091955819577,17.03631556104917,6.544749568181457,17.04899999999907
311840.9297,24.308674825293398,7.965941924298327,21.527288154995226,9.852764822517889,17.04999999998836
311840.9307,26.933697800560584,10.988598457009305,25.90859134415932,13.39389898955421,17.051000000035856
311840.9317,29.04520699224478,14.044181435786122,29.935278820646893,16.999013729727842,17.052000000025146
311840.9327,30.559958382060998,16.972411194447023,33.382887438803216,20.502863104432343,17.053000000014435
311840.9337,31.4217818069661,19.626751105279236,36.05998970437891,23.753248599715437,17.054000000003725
311840.9347,31.60643120738544,21.883579205024553,37.81892474473078,26.619246210323112,17.054999999993015
311840.9357,31.124699806933936,23.649692795733426,38.564006363813995,28.997923690896705,17.055999999982305
311840.9367,30.023453377852103,24.86757986154309,38.25666489594018,30.81907990654961,17.057000000029802
311840.9377,28.384383035252142,25.518069257878985,36.917178769840746,32.04769103417066,17.058000000019092
311840.9387,26.320449494739332,25.62018227278069,34.622877243149894,32.68392691518969,17.059000000008382
311840.9397,23.970168782926773,25.22823280666251,31.502930848939595,32.76078966347252,17.05999999999767
311840.9407,21.49005955483955,24.42644240730378,27.73007315829889,32.33960941883763,17.06099999998696
311840.9417,19.04571958323729,23.32153072883738,23.509799616618995,31.503793315526384,17.06200000003446
311840.9427,16.80211072026561,22.033895027014204,19.067751566928514,30.35134978118748,17.06300000002375
311840.9437,14.913697884997848,20.68809128622359,14.636104417975899,28.98679092586036,17.06400000001304
311840.9447,13.515102606205444,19.403366707942567,10.439830631581245,27.513044892266656,17.06500000000233
311840.9457,12.712894099345421,18.28496643479449,6.6836978642188525,26.023986136115365,17.065999999991618
311840.9467,12.579054199275284,17.41685019126306,3.540792165257535,24.598117939882513,17.066999999980908
311840.9477,13.146524482261244,16.856316045764608,1.1432322589614818,23.293825678509,17.068000000028405
311840.9487,14.407086006421737,16.630852304257758,-0.4244256493973426,22.146472740311747,17.069000000017695
311840.9497,16.311648261160354,16.73734139653806,-1.1287885449095607,21.167447417441412,17.070000000006985
311840.9507,18.772849375286015,17.14353986650039,-0.9881372899218019,20.345103623463814,17.070999999996275
311840.9517,21.669709431243195,17.79157441981071,-0.06995719956262993,19.64738589701051,17.071999999985565
311840.9527,24.853946300143644,18.60304172572872,1.5142149299930572,19.025803150312296,17.073000000033062
311840.9537,28.157469316288747,19.48519221247237,3.616176039523266,18.42032652978638,17.07400000002235
311840.9547,31.400517091010208,20.33762374165094,6.060110305781712,17.76474128936221,17.07500000001164
311840.9557,34.39990415973205,21.058912781555417,8.652682539460628,16.991983072484278,17.07600000000093
311840.9567,36.97688475418326,21.55266598712929,11.193528771167513,16.03903325933688,17.07699999999022
311840.9577,38.96422434390664,21.732576225602568,13.485534576099177,14.851029628660838,17.07800000003772
311840.9587,40.212180717430456,21.52620202218246,15.344366081342693,13.384357554570771,17.07900000002701
311840.9597,40.59322380447978,20.87734304022761,16.606824428570437,11.608610896984466,17.080000000016298
311840.9607,40.00545348775325,19.747039955179105,17.13771980643313,9.507437086016713,17.081000000005588
311840.9617,38.37479378580359,18.113368530447865,16.835093081456666,7.078394342452756,17.081999999994878
311840.9627,35.65613799371486,15.970310324635932,15.633738886535042,4.332038851220493,17.082999999984168
311840.9637,31.833683359279437,13.326055063933907,13.507092658645243,1.2905171802912108,17.084000000031665
311840.9647,26.920720035261134,10.201115584147495,10.467627071445527,-2.0140407891127694,17.085000000020955
311840.9657,20.959126020959346,6.626613805436055,6.565955530309777,-5.541051559354432,17.086000000010245
311840.9667,14.018770624541855,2.6430291443860057,1.888860666385046,-9.242706861357576,17.086999999999534
311840.9677,6.196950761960578,-1.700402355849971,-3.443543336773125,-13.064759263264797,17.087999999988824
311840.9687,-2.382112387041379,-6.345576603392899,-9.281338307327548,-16.94682064797488,17.08900000003632
311840.9697,-11.567791549619423,-11.224771386199578,-15.448890857368264,-20.822233324312233,17.09000000002561
311840.9707,-21.183756637994286,-16.25945897261428,-21.749426506665202,-24.61766957350509,17.0910000000149
311840.9717,-31.029108024199424,-21.358987542742845,-27.970061414088452,-28.252691886254812,17.09200000000419
311840.9727,-40.880228005725286,-26.419506693072503,-33.88729852131623,-31.63955319502256,17.09299999999348
311840.9737,-50.49364313887821,-31.323536458552447,-39.27300922131814,-34.68352744846916,17.09399999998277
311840.9747,-59.610152440288225,-35.94055427364692,-43.90091202858673,-37.28403326127325,17.095000000030268
311840.9757,-67.96039791860093,-40.12890098914519,-47.55352585193517,-39.336748723793974,17.096000000019558
311840.9767,-75.27194038604523,-43.73919165088784,-50.02952048333535,-40.736819527723945,17.097000000008848
311840.9777,-81.277764960243,-46.6192700429231,-51.151316990783855,-41.38314467432759,17.097999999998137
311840.9787,-85.72599013811524,-48.62058237125477,-50.77271432209269,-41.183596115478096,17.098999999987427
311840.9797,-88.39040663321119,-49.60568139420317,-48.786245389528176,-40.0609040632967,17.100000000034925
311840.9807,-89.08134243520962,-49.45642471130504,-45.12990619831531,-37.95883174687767,17.101000000024214
311840.9817,-87.65625265502226,-48.08231545099078,-39.792864238530186,-34.848184103934265,17.102000000013504
311840.9827,-84.0293778892599,-45.42836303490554,-32.8197444392413,-30.73215370082162,17.103000000002794
311840.9837,-78.17981050797901,-41.481824672689186,-24.313116772864817,-25.65050995306362,17.103999999992084
311840.9847,-70.15735731504198,-36.27722834196275,-14.433870109384507,-19.682186177061762,17.104999999981374
311840.9857,-60.08568745086133,-29.89917338962426,-3.3992497261589194,-12.945910472497525,17.10600000002887
311840.9867,-48.16239947856898,-22.48254841356592,8.521544719816855,-5.598654084494702,17.10700000001816
311840.9877,-34.65582046394246,-14.209985957951455,21.01416644606756,2.1681756536761196,17.10800000000745
311840.9887,-19.898548519811648,-5.306574419384986,33.72815465472084,10.134704427625438,17.10899999999674
311840.9897,-4.2779528356289385,3.967948097117081,46.28787318814572,18.06046404851163,17.10999999998603
311840.9907,11.7759647135665,13.329103453676256,58.30490935327852,25.69376292189678,17.111000000033528
311840.9917,27.804780042433666,22.479113829155803,69.39138909556436,32.78202800697206,17.112000000022817
311840.9927,43.33724161963484,31.11918711195322,79.17360160529772,39.0825132830823,17.113000000012107
311840.9937,57.90549041342731,38.96190451223341,87.30530449246639,44.372737998743446,17.114000000001397
311840.9947,71.06112964996065,45.74297088026045,93.48010212201504,48.46003660658606,17.114999999990687
311840.9957,82.39040778815583,51.23165135197106,97.44235292580406,51.18966970668305,17.116000000038184
311840.9967,91.52786697109865,55.239334644417404,98.99616102327855,52.451055470273616,17.117000000027474
311840.9977,98.16793873786193,57.62582232523825,98.01213440267396,52.18182388892072,17.118000000016764
311840.9987,102.07412599851345,58.303129472871795,94.43173474504844,50.36955876618414,17.119000000006054
311840.9997,103.08557993418614,57.2367776479436,88.26918972546763,47.051259839583075,17.119999999995343
311841.0007,101.12104657265647,54.44474759452332,79.61107412604531,42.3107146484412,17.120999999984633
311841.0017,96.18030516521344,49.9944192547629,68.61377936269028,36.27410275051235,17.12200000003213
311841.0027,88.34333643365443,43.997946004297425,55.49917255870148,29.104252166435995,17.12300000002142
311841.0037,77.76753429079288,36.60657827090684,40.54879011885443,20.994021689028198,17.12400000001071
311841.0047,64.68330546607574,28.004463970136236,24.09691510275502,12.159289560030116,17.125
311841.0057,49.38838841301839,18.402410371530507,6.522855240347299,2.831990367790723,17.12599999998929
311841.0067,32.24117177409903,8.032000699716912,-11.75732397305742,-6.74643618274475,17.127000000036787
311841.0077,13.65321372762558,-2.8596693997479337,-30.299438723371512,-16.330928823528723,17.128000000026077
311841.0087,-5.91892984302725,-14.014519998548442,-48.64011558366272,-25.67788947747214,17.129000000015367
311841.0097,-25.982553101458745,-25.167317467504514,-66.30600880159436,-34.54946523170619,17.130000000004657
