TimeStamp,ECR,FCR,ECU,FCU,time_index
311874.8797,-12.19251541137273,-12.711448156782168,-11.137736505497555,-12.218968977628984,51.0
311874.8807,-9.971542779655284,-11.807001638716521,-10.19092780496005,-10.948913708742104,51.00099999998929
311874.8817,-7.4926315014802665,-10.650130802479051,-8.97464940553378,-9.482335049145124,51.00200000003679
311874.8827,-4.8581543274335655,-9.313931913291166,-7.5464000636951605,-7.88901695697671,51.00300000002608
311874.8837,-2.1759584756669934,-7.876053691677658,-5.970137313768374,-6.241287719732898,51.00400000001537
311874.8847,0.4479998753613786,-6.412148919205251,-4.310843405090601,-4.6082169369012425,51.00500000000466
311874.8857,2.916641370937353,-4.989794858964137,-2.6293473549226962,-3.0502826283748448,51.005999999993946
311874.8867,5.147791503219376,-3.6634438490052417,-0.9778831103220634,-1.6149973210723323,51.006999999983236
311874.8877,7.078772336247964,-2.470856090116898,0.6032202996706891,-0.33388380727252354,51.008000000030734
311874.8887,8.66922145138278,-1.4313143051345854,2.0874421394633687,0.7789439337268219,51.00900000002002
311874.8897,9.901972121977316,-0.5457399022206235,3.462438716491746,1.7264979701423184,51.01000000000931
311874.8907,10.78201095652754,0.20135952173913715,4.728905914795188,2.5270018659091322,51.0109999999986
311874.8917,11.33370559356459,0.8383622394910616,5.898115144002002,3.2105726789474107,51.01199999998789
311874.8927,11.596648649533224,1.4018287825968263,6.988433288569882,3.814862185703696,51.01300000003539
311874.8937,11.6205805892695,1.9311393631250917,8.021235111016026,4.380117350637688,51.01400000002468
311874.8947,11.45992288187016,2.4630481858060023,9.016671887067599,4.944171042199236,51.01500000001397
311874.8957,11.168467896759289,3.026731320606919,9.989767638949402,5.537873862239607,51.01600000000326
311874.8967,10.794732985559643,3.639847508199131,10.947273754988313,6.181427004110454,51.01699999999255
311874.8977,10.37839791305566,4.306021857855964,11.885628394566988,6.881979600663117,51.01799999998184
311874.8987,9.948116881743339,5.014012013167954,12.790247574703237,7.63272185970283,51.01900000002934
311874.8997,9.520842296075987,5.738640186895907,13.63623239034441,8.413550706808921,51.02000000001863
311874.9007,9.102633053019826,6.4433902140680726,14.390425874447892,9.19322314496083,51.021000000007916
311874.9017,8.690762310480398,7.084394932069723,15.014608833536617,9.932760233707489,51.021999999997206
311874.9027,8.276804353908753,7.615393209893228,15.469501202216243,10.58973668688967,51.022999999986496
311874.9037,7.8502809399513795,7.993132487654694,15.71914652536696,11.123000349278273,51.02400000003399
311874.9047,7.402394192299689,8.182642203916632,15.735211213504957,11.497321304129603,51.02500000002328
311874.9057,6.929370899011047,8.161811179408334,15.5007320616126,11.687476557540734,51.02600000001257
311874.9067,6.4349918455170965,7.9247673149034865,15.012895241228662,11.681332575778969,51.02700000000186
311874.9077,5.931974359562092,7.483674547280457,14.284522845079236,11.481588866428272,51.02799999999115
311874.9087,5.442006640422983,6.868718478649303,13.344070019910669,11.105981298556873,51.02900000003865
311874.9097,4.9943851435924245,6.126233042496448,12.234084249350666,10.585900496687048,51.03000000002794
311874.9107,4.6233654584413735,5.31510811090147,11.008233703380075,9.96354282989587,51.03100000001723
311874.9117,4.364486223303164,4.50179347031426,9.727158243933399,9.287863067657339,51.03200000000652
311874.9127,4.2502491124702635,3.7543606061934987,8.453519924109761,8.609723509451364,51.03299999999581
311874.9137,4.305622779417167,3.136185586246073,7.246717131700684,7.9767216439684905,51.0339999999851
311874.9147,4.543875673373607,2.6998636564578797,6.157768880089788,7.428218247073053,51.035000000032596
311874.9157,4.963227461929151,2.4819539222523015,5.224868508431155,6.991076025205374,51.036000000021886
311874.9167,5.544742222738103,2.4990814648641533,4.47004945787844,6.676556268827353,51.037000000011176
311874.9177,6.251774614460384,2.7458009887369745,3.8973049523167402,6.478713320668177,51.038000000000466
311874.9187,7.031133498863697,3.1944622909284432,3.4923678316095836,6.37448425138312,51.038999999989755
311874.9197,7.81596012964032,3.7971291714738133,3.2241994395701377,6.325507683211514,51.04000000003725
311874.9207,8.53014640567408,4.489408027648511,3.048072551240082,6.281537036503461,51.04100000002654
311874.9217,9.093959756405585,5.195859174344813,2.909978764660568,6.185155995390017,51.04200000001583
311874.9227,9.430410866460404,5.836510668277814,2.75196069076739,5.977373077452562,51.04300000000512
311874.9237,9.471811908765384,6.333886001169938,2.5178764593590026,5.60358071048085,51.04399999999441
311874.9247,9.165935551870062,6.6199040846579935,2.159057765582176,5.019321258921766,51.0449999999837
311874.9257,8.481203174057326,6.6420177613759295,1.6393276794937495,4.195312435792824,51.0460000000312
311874.9267,7.410403548233104,6.368025071601659,0.9389005436123609,3.12124681827708,51.04700000002049
311874.9277,5.972564560070692,5.789109303982997,0.05678834876379042,1.8079890514415147,51.04800000000978
311874.9287,4.212759361855354,4.920827885247581,-0.9885236017761898,0.2879395714141368,51.04899999999907
311874.9297,2.199810116685,3.8019607582001664,-2.160207309341424,-1.3864984150702784,51.04999999998836
311874.9307,0.022040207554799466,2.4913278316242256,-3.4059351551472736,-3.1462373149151994,51.051000000035856
311874.9317,-2.2185981673154807,1.0628733279736393,-4.662180657651545,-4.910332724308331,51.052000000025146
311874.9327,-4.413546360502716,-0.40052558591181264,-5.859585045398072,-6.591904737090709,51.053000000014435
311874.9337,-6.4552315749704325,-1.8139528282479385,-6.928897690668041,-8.104636962095615,51.054000000003725
311874.9347,-8.244596127325941,-3.097416195895025,-7.806944945254638,-9.369284882187504,51.054999999993015
311874.9357,-9.697935330066624,-4.182244644936911,-8.442080093829723,-10.31962593693069,51.055999999982305
311874.9367,-10.752477525048686,-5.016345625274109,-8.798617105727224,-10.907337328358315,51.0570000000298
311874.9377,-11.370253182671709,-5.567862047667654,-8.859847745177008,-11.105388742966396,51.05800000001909
311874.9387,-11.539954235623286,-5.826925358772014,-8.629376001318496,-10.909676112218989,51.05900000000838
311874.9397,-11.276665438883821,-5.805385588989959,-8.130662731531638,-10.338785770572443,51.05999999999767
311874.9407,-10.619539556478202,-5.534593125562547,-7.404841549024287,-9.431950208112756,51.06099999998696
311874.9417,-9.62766973991919,-5.061491517672614,-6.507028159179199,-8.245420599231954,51.06200000003446
311874.9427,-8.37456861832958,-4.443438013130129,-5.5014841184205645,-6.847621815218657,51.06300000002375
311874.9437,-6.9417798937631625,-3.742283670016019,-4.456099141134874,-5.313559457735726,51.06400000001304
311874.9447,-5.412214032500194,-3.0183068994785063,-3.4367139075278725,-3.719005986073118,51.06500000000233
311874.9457,-3.8638092527790127,-2.324597548981142,-2.5018125615735034,-2.1349992205952635,51.06599999999162
311874.9467,-2.364072134135732,-1.702433282833397,-1.6980704052835844,-0.6231413867861145,51.06699999998091
311874.9477,-0.9659539336312863,-1.1780819566876362,-1.0571523182161933,0.7679045755742308,51.068000000028405
311874.9487,0.2946208937891672,-0.7613139545364348,-0.5940302676227686,2.00445297858883,51.069000000017695
311874.9497,1.3994244921316432,-0.4457321382778052,-0.30693661007349976,3.0682512250655236,51.070000000006985
311874.9507,2.346822239960209,-0.2108417712304467,-0.17890872856708276,3.9553976935847652,51.070999999996275
311874.9517,3.1490963585070406,-0.0256069409046735,-0.18072575531553647,4.673918941049212,51.071999999985565
311874.9527,3.8285452527679706,0.14690896446230195,-0.2749048453910529,5.240333967901072,51.07300000003306
311874.9537,4.412818773893665,0.34432858293109375,-0.42032564374727316,5.6756283400388785,51.07400000002235
311874.9547,4.930013362946066,0.5997368832337607,-0.576996724352722,6.001111382941914,51.07500000001164
311874.9557,5.404061451708377,0.9370114903564862,-0.7104719918494222,6.234630752592221,51.07600000000093
311874.9567,5.850906144895998,1.3672108526397788,-0.7954685683718816,6.387570689737018,51.07699999999022
311874.9577,6.275859981130671,1.8864137689442912,-0.8183259025581747,6.462968338618497,51.07800000003772
311874.9587,6.67241515436292,2.4752534961949655,-0.7780696807544253,6.45495621214623,51.07900000002701
311874.9597,7.022615480302519,3.1002144176182846,-0.6859910255029525,6.3495912059798245,51.0800000000163
311874.9607,7.29893359334366,3.7165766139062635,-0.5638066022775924,6.1269766431633315,51.08100000000559
311874.9617,7.467437221942198,4.272721945761123,-0.4406129970663239,5.764439446149287,51.08199999999488
311874.9627,7.491891989397447,4.715371680152562,-0.34897420610245894,5.240404527033033,51.08299999998417
311874.9637,7.338348716679034,4.995224770265996,-0.32057165872582705,4.538525283984432,51.084000000031665
311874.9647,6.9797106224355865,5.072417928765597,-0.38189272831863624,3.6515914501145144,51.085000000020955
311874.9657,6.399775360327596,4.92123868554682,-0.5504314297974678,2.5847476634228594,51.086000000010245
311874.9667,5.596298506601873,4.5335900188331815,-0.8318240899287174,1.3576172220797298,51.086999999999534
311874.9677,4.582723679789223,3.9208235192557037,-1.218248216915866,0.00502982843124793,51.087999999988824
311874.9687,3.3883599982904644,3.1137159314032923,-1.6882839804244658,-1.4238104141068666,51.08900000003632
311874.9697,2.0569464006285156,2.1605458866038694,-2.2082874932995615,-2.8677234331020256,51.09000000002561
311874.9707,0.643708450203267,1.1234158050477354,-2.735168501086316,-4.257363688659812,51.0910000000149
311874.9717,-0.7888301563470522,0.07313971408510414,-3.2203178733003455,-5.520139497932593,51.09200000000419
311874.9727,-2.1758879255932073,-0.9168363566770655,-3.6143073259353486,-6.585816277193987,51.09299999999348
311874.9737,-3.4558317968556067,-1.7769132854079384,-3.871897618695058,-7.392296867423734,51.09399999998277
311874.9747,-4.575419077344518,-2.4476022481500275,-3.956850997491206,-7.891038583716526,51.09500000003027
311874.9757,-5.49435366184465,-2.8849707653866945,-3.8460533315502015,-8.051585467034943,51.09600000001956
311874.9767,-6.188696344761066,-3.0647414074963266,-3.532510709973854,-7.864764247471911,51.09700000000885
311874.9777,-6.652776946126624,-2.9846371539326606,-3.026888776059771,-7.344207533564952,51.09799999999814
311874.9787,-6.89940011634308,-2.664731762867725,-2.3574009424154734,-6.526017042996972,51.09899999998743
311874.9797,-6.958302947931291,-2.145752444820182,-1.5680105427343611,-5.466549171964412,51.100000000034925
311874.9807,-6.872994531961511,-1.4854773886286665,-0.7150764717679293,-4.238478682334146,51.101000000024214
311874.9817,-6.696268327285109,-0.7535533213971174,0.13727417305111772,-2.9254570940844333,51.102000000013504
311874.9827,-6.484811669630231,-0.025210522892683038,0.9226346949843237,-1.6158149671750477,51.103000000002794
311874.9837,-6.2934295593050065,0.6255403080305131,1.5781671412100462,-0.39584875854694157,51.103999999992084
311874.9847,-6.169442601814518,1.1325937263257664,2.0502666990883647,0.6567256189544441,51.10499999998137
311874.9857,-6.147807097255503,1.4436918069685216,2.299508339585016,1.478583193425163,51.10600000002887
311874.9867,-6.247439599293543,1.5250667986221127,2.3044032885015526,2.025360904710084,51.10700000001816
311874.9877,-6.46911490340964,1.3643511449789754,2.063600224253793,2.2745987339702167,51.10800000000745
311874.9887,-6.795156197418153,0.9714866581233877,1.5963092820170246,2.226809853309875,51.10899999999674
311874.9897,-7.190963497782479,0.37755517270006395,0.9408923879120187,1.9046100559953143,51.10999999998603
311874.9907,-7.60824823853075,-0.3683490905216891,0.15173533206174894,1.3500139466222574,51.11100000003353
311874.9917,-7.989675330691123,-1.2038990724095207,-0.7053211961368219,0.6201715696190934,51.11200000002282
311874.9927,-8.274475446965956,-2.059503519461204,-1.5585782430400466,-0.21804141211720127,51.11300000001211
311874.9937,-8.40449331537841,-2.8648902676565604,-2.336592223745702,-1.0940673403573749,51.1140000000014
311874.9947,-8.330092026943852,-3.5556735907331234,-2.974245866909244,-1.9397809527390355,51.11499999999069
311874.9957,-8.015343424262335,-4.079279774975731,-3.4182208692128535,-2.6951147652353575,51.116000000038184
311874.9967,-7.4419997734930785,-4.399670102588384,-3.6313735228083552,-3.312691879847053,51.117000000027474
311874.9977,-6.6118560141031795,-4.500419306522807,-3.595618807352663,-3.761066032464401,51.118000000016764
311874.9987,-5.547264047081707,-4.3858686630577,-3.3130700262286363,-4.026308948839641,51.119000000006054
311874.9997,-4.289736166669186,-4.080260498376013,-2.805346393292173,-4.11184840529399,51.11999999999534
311875.0007,-2.8967569650865155,-3.6249567428215794,-2.111134124813512,-4.036630853195756,51.12099999998463
311875.0017,-1.4370942822161283,-3.0740292501929023,-1.282250895136791,-3.831843530076398,51.12200000003213
311875.0027,0.014956489993381028,-2.4886659784352876,-0.37860318074890276,-3.5365671288429295,51.12300000002142
311875.0037,1.3858580853227846,-1.9309497050014757,0.5374723379542369,-3.192828329056108,51.12400000001071
311875.0047,2.6090592811131814,-1.4576239246951477,1.4069381993115289,-2.840572574425901,51.125
311875.0057,3.630582448781718,-1.1144584884769244,2.179310065891855,-2.5130768139607635,51.12599999998929
311875.0067,4.413448989224314,-0.9317657844697831,2.8169401755149996,-2.233269979715701,51.12700000003679
311875.0077,4.940531620282831,-0.9215030373028501,3.2979342307124893,-2.011331212996395,51.12800000002608
311875.0087,5.215572375531648,-1.076238994494229,3.617442088366288,-1.8438021707788874,51.12900000001537
311875.0097,5.262279793065236,-1.3700793279770573,3.787223310952499,-1.7142934956639162,51.13000000000466
311875.0107,5.1216013011634445,-1.761452503732574,3.833557858806008,-1.5957022058805268,51.130999999993946
311875.0117,4.847439688127491,-2.197475452592936,3.7937334578172273,-1.453702470226268,51.131999999983236
311875.0127,4.50122918198885,-2.6194638608767162,3.711478825115475,-1.2511421430499428,51.133000000030734
311875.0137,4.145893034603232,-2.969040276400346,3.6318126894633425,-0.9528842931115148,51.13400000002002
311875.0147,3.839760495448653,-3.1942352631003206,3.595832757573498,-0.5305858603592623,51.13500000000931
311875.0157,3.6310214538393937,-3.254978051277171,3.6359713739178794,0.033090919962902934,51.1359999999986
311875.0167,3.5532419874445313,-3.127433257164243,3.772195566997433,0.7412849751097351,51.13699999998789
311875.0177,3.6223590962561993,-2.8067532831409463,4.009533468299058,1.5811127789999622,51.13800000003539
311875.0187,3.8354283451931277,-2.3079708162166273,4.337176258537646,2.5234329079659696,51.13900000002468
311875.0197,4.171228096888689,-1.6649372333309789,4.729247952826442,3.5242611517498927,51.14000000001397
311875.0207,4.592645012108278,-0.9274029621247663,5.147169893636505,4.5277359187194275,51.14100000000326
311875.0217,5.05059485346708,-0.15651638497865522,5.543388978603072,5.4703801780896795,51.14199999999255
311875.0227,5.489086791133796,0.5808288399238362,5.866103817867704,6.2862768613417686,51.14299999998184
311875.0237,5.85093234355405,1.2182569772002152,6.064524308348401,6.912682155042509,51.14400000002934
311875.0247,6.083541934631457,1.6961844684276137,6.094147079900031,7.295554506462788,51.14500000001863
311875.0257,6.1442481589698605,1.9675056753985174,5.921526972998771,7.394480993599462,51.146000000007916
311875.0267,6.004645270729975,2.002148547677092,5.528073242896514,7.1865366174134095,51.146999999997206
311875.0277,5.653533922924787,1.7900688949027745,4.912493681331817,6.66871080711354,51.147999999986496
311875.0287,5.0981988090697286,1.3424034987674018,4.091640960628069,5.858669376182343,51.14900000003399
311875.0297,4.363910869306536,0.6906802408097511,3.0996703450272647,4.793776297002319,51.15000000002328
311875.0307,3.4917189882423862,-0.11582968913585066,1.9855813101013289,3.5284628057078504,51.15100000001257
311875.0317,2.534761682522079,-1.0143548469593062,0.8093716019926572,2.1301856824698313,51.15200000000186
311875.0327,1.5534710404869518,-1.9340481628511166,-0.3628343362771414,0.6743471442113864,51.15299999999115
311875.0337,0.6101454279320603,-2.8020695877956334,-1.4642227816568782,-0.7613569462072581,51.15400000003865
311875.0347,-0.23657575867086886,-3.5497450148164877,-2.4327812984458506,-2.102644917560533,51.15500000002794
311875.0357,-0.9367980038577467,-4.118218649898922,-3.2163268250046553,-3.28389850161623,51.15600000001723
311875.0367,-1.4535297997564178,-4.463071839237984,-3.7766027805284046,-4.2524892823128475,51.15700000000652
311875.0377,-1.7655211171400635,-4.557488333851363,-4.092069107171638,-4.971813187694981,51.15799999999581
311875.0387,-1.8685249011439466,-4.393693317132762,-4.159137661018958,-5.422793672350134,51.1589999999851
311875.0397,-1.7748833244539504,-3.9825665278968776,-3.991757250103571,-5.603766084536752,51.160000000032596
311875.0407,-1.5115082486959885,-3.35151128791239,-3.6194129458280915,-5.528814536106641,51.161000000021886
311875.0417,-1.1164850836895401,-2.540833202671907,-3.0837573449414837,-5.2247827171913395,51.162000000011176
311875.0427,-0.634665179398986,-1.5990277371021409,-2.4342222742995427,-4.72730673354506,51.163000000000466
311875.0437,-0.11271060599011312,-0.5774804138632355,-1.723055275716675,-4.076308749070196,51.163999999989755
311875.0447,0.4058930535738899,0.4748632547199778,-1.000276814008474,-3.3114361170836255,51.16500000003725
311875.0457,0.8853405231378829,1.516304023175996,-0.30905661315363286,-2.467927357465698,51.16600000002654
311875.0467,1.301064064453372,2.51617632325254,0.31803922506668736,-1.573334249025429,51.16700000001583
311875.0477,1.6419797739179487,3.4572308918373036,0.8615698621529999,-0.645433774028176,51.16800000000512
311875.0487,1.9111942505148312,4.336374889185449,1.3162761806018735,0.30846567500912564,51.16899999999441
311875.0497,2.125101836503556,5.1637042395685,1.6905873575974635,1.2907695005752973,51.1699999999837
311875.0507,2.310968886056291,5.9599423217178025,2.0046500079600005,2.3114948943722333,51.1710000000312
311875.0517,2.503258472797617,6.752567408278872,2.2871018274544173,3.385068572755002,51.17200000002049
311875.0527,2.7390808273908696,7.571051386617166,2.570938641174596,4.526391864989225,51.17300000000978
311875.0537,3.0532482660867593,8.441730009266218,2.88891562069598,5.746624150698399,51.17399999999907
311875.0547,3.473458867874885,9.382870108928664,3.2689710282571265,7.0491730646290005,51.17499999998836
311875.0557,4.016125852830509,10.40048694808358,3.7301593928941466,8.426367208070639,51.176000000035856
311875.0567,4.683309910244353,11.485395939606123,4.279530583540275,9.857225174247377,51.177000000025146
311875.0577,5.461105238868864,12.611863812317722,4.910296726883569,11.306629283443392,51.178000000014435
311875.0587,6.319687090235681,13.738066393155545,5.601499606246072,12.726073685587313,51.179000000003725
311875.0597,7.21506312833481,14.808378962691512,6.3192398222329045,14.055997972493948,51.179999999993015
311875.0607,8.092399228649423,15.75733847133211,7.019370563516927,15.22955476996189,51.180999999982305
311875.0617,8.890629444059758,16.514943314782712,7.651409038658249,16.177509109981184,51.1820000000298
311875.0627,9.547925808417217,17.01281324172322,8.163292365046496,16.833843817703638,51.18300000001909
311875.0637,10.007509923382866,17.190633810472193,8.506514630306421,17.141561237070466,51.18400000000838
311875.0647,10.223244481010406,17.00226680834399,8.641137039724715,17.058136112443787,51.18499999999767
311875.0657,10.164453760631162,16.420925032261835,8.540168214424234,16.560091409998233,51.18599999998696
311875.0667,9.819487110923768,15.442885784700897,8.19286658285361,15.646237267629335,51.18700000003446
311875.0677,9.197652590074858,14.089345565829863,7.606616297912638,14.339227044755308,51.18800000002375
311875.0687,8.329298644631939,12.40618679680506,6.807162701896604,12.685233084548129,51.18900000001304
311875.0697,7.263995591140708,10.461620045224029,5.837150065149036,10.751714328953048,51.19000000000233
311875.0707,6.066949015903845,8.341863733106644,4.75306794429946,8.6234222610997,51.19099999999162
311875.0717,4.813946599898733,6.145208601494048,3.6208671136997475,6.39695415469272,51.19199999998091
311875.0727,3.585281854602235,3.974968369134971,2.5106365129146324,4.174297705228433,51.193000000028405
311875.0737,2.4591989437644384,1.9319260607022661,1.4908262150154215,2.05590579016157,51.194000000017695
311875.0747,1.5054522243058972,0.10693678323015743,0.6225487970853582,0.13388517486637924,51.195000000006985
311875.0757,0.7795673394450476,-1.425662881993449,-0.045512111063608855,-1.5141259997914789,51.195999999996275
311875.0767,0.31832803286555766,-2.613260462902435,-0.48111176946934386,-2.8298794197992585,51.196999999985565
311875.0777,0.13690012105786592,-3.4283359924434693,-0.670998637950431,-3.777833757266203,51.19800000003306
311875.0787,0.22785191878059705,-3.869709868539983,-0.621775362912729,-4.34661193963142,51.19900000002235
311875.0797,0.5621533596324686,-3.961582175519664,-0.358988338266017,-4.548512698319544,51.20000000001164
311875.0807,1.092051037987982,-3.750478727021264,0.07546486864779192,-4.41716753480027,51.20100000000093
311875.0817,1.7555411782119528,-3.3004108791753,0.6273618723490065,-4.0036013263954136,51.20199999999022
311875.0827,2.482013957850391,-2.6867181839912844,1.235231878239201,-3.371096127831092,51.20300000003772
311875.0837,3.198534967513871,-1.9891797818210792,1.8359998192488227,-2.5893599444904134,51.20400000002701
311875.0847,3.836173229233517,-1.2850410078221128,2.370663609346126,-1.728555792621514,51.2050000000163
311875.0857,4.3357855060708355,-0.6426003854738115,2.7894689929663916,-0.8537463733531956,51.20600000000559
311875.0867,4.6527235185535325,-0.11593935491671636,3.056097020208216,-0.020256509340854014,51.20699999999488
311875.0877,4.760038554204723,0.258740967871175,3.1504762896817646,0.7296453905332468,51.20799999998417
311875.0887,4.649906288257311,0.46487335839644833,3.0699663614530412,1.3684840704501984,51.209000000031665
311875.0897,4.33316898072464,0.5052551688861222,2.8288171384408605,1.8836320028248175,51.210000000020955
311875.0907,3.837075619093901,0.3998416600598981,2.455976195822978,2.275751739406867,51.211000000010245
311875.0917,3.2014752185916704,0.1818762110643118,1.9914758093969605,2.555857477729923,51.211999999999534
311875.0927,2.473867430637723,-0.10720800887952245,1.4817683303004743,2.7413641617773905,51.212999999988824
311875.0937,1.7038234278722078,-0.42356383860955377,0.9744793441724098,2.8515913304467775,51.21400000003632
311875.0947,0.937348242013789,-0.7267709139792597,0.513103027228514,2.9032402202935508,51.21500000002561
311875.0957,0.21175778489710642,-0.9851284446674784,0.13216802126374486,2.9063613864672053,51.2160000000149
311875.0967,-0.4484103821904989,-1.1798471936965513,-0.14664528749404293,2.8612765560371454,51.21700000000419
311875.0977,-1.0340384394036142,-1.307702752855556,-0.3170492800947803,2.7568179362978453,51.21799999999348
311875.0987,-1.5523531982914114,-1.381870326446153,-0.3891000994824157,2.570110743367598,51.21899999998277
311875.0997,-2.0260374395727614,-1.4308469562137147,-0.3884558999101514,2.267963905242506,51.22000000003027
311875.1007,-2.490611630704595,-1.495562111482966,-0.35400858947275504,1.8097656459036244,51.22100000001956
311875.1017,-2.9903426157178887,-1.6249626002499435,-0.3341140866423523,1.151621641070181,51.22200000000885
311875.1027,-3.573083346198014,-1.8705145787245914,-0.38178282724753554,0.25133944075715686,51.22299999999814
311875.1037,-4.2845556288391276,-2.2801785619469723,-0.549293704427087,-0.9262327563729545,51.22399999998743
311875.1047,-5.162645690140865,-2.892471559623515,-0.8827510566759063,-2.404052487039648,51.225000000034925
311875.1057,-6.232284485136242,-3.7312279507798696,-1.4171103908275564,-4.188448709009956,51.226000000024214
311875.1067,-7.5014309234385435,-4.801607592482404,-2.1721537951169796,-6.265882829721316,51.227000000013504
311875.1077,-8.95857181910759,-6.087782001391145,-3.1498049537727355,-8.601275669834285,51.228000000002794
311875.1087,-10.572007585404785,-7.552568678093089,-4.333045292834634,-11.138128186685451,51.228999999992084
311875.1097,-12.291021613149255,-9.139095430691517,-5.686539636425168,-13.800497396708291,51.22999999998137
311875.1107,-14.048850557742954,-10.774379274344511,-7.158916763202607,-16.496714965546367,51.23100000002887
311875.1117,-15.767199994123548,-12.374517427850535,-8.686493252549655,-19.124571186854002,51.23200000001816
311875.1127,-17.361901855588638,-13.85102940981722,-10.198093181276478,-21.577547485471122,51.23300000000745
311875.1137,-18.749201084615457,-15.117774795132801,-11.620514632814919,-23.75157967457375,51.23399999999674
311875.1147,-19.852099486705395,-16.09781206950337,-12.88413628171278,-25.55178174431538,51.23499999998603
311875.1157,-20.60618053091334,-16.729566057120202,-13.928148866755919,-26.898561041231204,51.23600000003353
311875.1167,-20.96439002444402,-16.97173446184934,-14.704937690573914,-27.732610204759975,51.23700000002282
311875.1177,-20.90034903532411,-16.806482063650517,-15.183229047301365,-28.01836387698169,51.23800000001211
311875.1187,-20.40991708690419,-16.240632596387165,-15.34973693000149,-27.745649057412,51.2390000000014
311875.1197,-19.51089154566258,-15.304757611896964,-15.20919420686502,-26.929423420532967,51.23999999999069
311875.1207,-18.2409067950537,-14.050260322438044,-14.782810049625404,-25.607669987998417,51.241000000038184
311875.1217,-16.653766859717322,-12.54474122847031,-14.105347228874852,-23.8376825038582,51.242000000027474
311875.1227,-14.814591049684958,-10.866092991431112,-13.221144072977125,-21.691117804470835,51.243000000016764
311875.1237,-12.794259796637341,-9.095888988958707,-12.179503627914396,-19.24829591045628,51.244000000006054
311875.1247,-10.663706828758698,-7.3126920672668865,-11.02992740882225,-16.592285713862374,51.24499999999534
311875.1257,-8.488608668728215,-5.5859113306705135,-9.817677923302393,-13.80331886503478,51.24599999998463
311875.1267,-6.324972978343817,-3.970775463106378,-8.580112466461712,-10.954026799772766,51.24700000003213
311875.1277,-4.216028699383639,-2.504877052370835,-7.344144936381528,-8.105900931661333,51.24800000002142
311875.1287,-2.190683264661281,-1.2065849856885766,-6.125071356665331,-5.307243611352593,51.24900000001071
311875.1297,-0.26364921370145405,-0.07543669824245204,-4.926850668923738,-2.5927208949110745,51.25
311875.1307,1.5628293644379112,0.9055729535735132,-3.7437796919176947,0.015536864134288586,51.25099999998929
311875.1317,3.29588388988864,1.7660751031661863,-2.563355282189684,2.5054976643331908,51.25200000003679
311875.1327,4.947934488434074,2.5432097476980786,-1.3699923227755444,4.87179840344381,51.25300000002608
311875.1337,6.532082996944988,3.275850770131723,-0.14917570991297974,7.111764941695445,51.25400000001537
311875.1347,8.057512196550565,3.9987774038819714,1.108422891149967,9.221374185781892,51.25500000000466
311875.1357,9.525416932564506,4.737398304735716,2.403332279728513,11.191650669795518,51.255999999993946
311875.1367,10.925938597138856,5.503576530648207,3.72459332263697,13.00593940171132,51.256999999983236
311875.1377,12.23647221827634,6.292991968828191,5.048323758410581,14.63840062717805,51.258000000030734
311875.1387,13.421575247814832,7.084323177207167,6.337739364919732,16.05394040685859,51.25900000002002
311875.1397,14.434542958316293,7.840348465689372,7.544687323018564,17.209636804911685,51.26000000000931
311875.1407,15.22054341940967,8.510874232419296,8.61259326274239,18.05756054471301,51.2609999999986
311875.1417,15.721042388775945,9.03721589817748,9.480577489482272,18.548737374376785,51.26199999998789
311875.1427,15.879111289487328,9.35780112068707,10.088372836519378,18.637872342986523,51.26300000003539
311875.1437,15.64511343858165,9.414351514062584,10.381588819766867,18.28836653198955,51.26400000002468
311875.1447,14.982214697455255,9.15803888209414,10.316823159633955,17.477113634954538,51.26500000001397
311875.1457,13.871169790638866,8.555010803938503,9.866126816949974,16.198571661449677,51.26600000000326
311875.1467,12.313894447509183,7.590738308760465,9.020382200116071,14.467663448696149,51.26699999999255
311875.1477,10.335440749152001,6.272749590726514,7.791251098569354,12.321163102199511,51.26799999998184
311875.1487,7.984138362578083,4.6314673005704705,6.2114798614915285,9.81736401080166,51.26900000002934
311875.1497,5.329833736989722,2.719047846620353,4.333501684843153,7.033984278628557,51.27000000001863
311875.1507,2.460336476626383,0.6063116617250943,2.2264347937761633,4.064431717648794,51.271000000007916
311875.1517,-0.5236501215823202,-1.6219650313009846,-0.028274647194701887,1.0127067532659266,51.271999999997206
311875.1527,-3.5146951812164957,-3.872971437876954,-2.3421894930113893,-2.012647526528454,51.272999999986496
311875.1537,-6.405380937046397,-6.052457470536762,-4.625732245024292,-4.905046188252164,51.27400000003399
311875.1547,-9.095042260044458,-8.071403216175971,-6.794036915811648,-7.566266592037597,51.27500000002328
311875.1557,-11.495929957167618,-9.85215993590057,-8.77229247070279,-9.912214459229768,51.27600000001257
311875.1567,-13.538277686231112,-11.33351532576535,-10.500119587703109,-11.877567803744919,51.27700000000186
311875.1577,-15.173856055825453,-12.474243629124139,-11.934617396088296,-13.418917670413654,51.27799999999115
311875.1587,-16.37773993689494,-13.25485072792204,-13.051845926010925,-14.516163379183345,51.27900000003865
311875.1597,-17.148182369246054,-13.677400707245043,-13.846660546502621,-15.17208108536565,51.28000000002794
311875.1607,-17.504664504138418,-13.763496170168832,-14.330971939109483,-15.410152389480336,51.28100000001723
311875.1617,-17.484358793598087,-13.550661509917765,-14.53065378530691,-15.270898288011296,51.28200000000652
311875.1627,-17.137385992060317,-13.087529097395025,-14.481445868360542,-14.807097714237598,51.28299999999581
311875.1637,-16.521351780331248,-12.428338229463314,-14.224290548289913,-14.078366468142873,51.2839999999851
311875.1647,-15.695706015874958,-11.627315098852328,-13.800586907598255,-13.145622337886275,51.285000000032596
311875.1657,-14.71647153083289,-10.73350349046996,-13.247844973940285,-12.06596108676224,51.286000000021886
311875.1667,-13.631840023156625,-9.786560517449605,-12.596172747530371,-10.888416122793405,51.287000000011176
311875.1677,-12.4790350968645,-8.813925229253202,-11.865936438569495,-9.65097742540765,51.288000000000466
311875.1687,-11.282706763182217,-7.82962113231166,-11.06680867806688,-8.379112423319283,51.288999999989755
311875.1697,-10.054961279227454,-6.834781304040529,-10.198273085510273,-7.085876193102051,51.29000000003725
311875.1707,-8.796961012964019,-5.8198041058025485,-9.251501055314428,-5.773535922960663,51.29100000002654
311875.1717,-7.501867833989489,-4.767876572202521,-8.21237313736644,-4.436481054323266,51.29200000001583
311875.1727,-6.158766267006828,-3.6594584700540267,-7.065297204062073,-3.0650609566877067,51.29300000000512
311875.1737,-4.757102856384633,-2.477217231173252,-5.797390681925505,-1.6498991086001433,51.29399999999441
311875.1747,-3.2911257202468924,-1.2108528512929653,-4.402552971742889,-0.1861856320795909,51.2949999999837
311875.1757,-1.7638082981850038,0.1387422980777022,-2.884960974366597,1.322546758732331,51.2960000000312
311875.1767,-0.18979381832500733,1.5564813100940673,-1.2615748502122341,2.861605144213682,51.29700000002049
311875.1777,1.4030031550175879,3.0116176147243103,0.43666243289186757,4.403620975949253,51.29800000000978
311875.1787,2.97336444698837,4.458043349278655,2.1651189417716,5.908547763946227,51.29899999999907
311875.1797,4.4683704782984295,5.83640000029228,3.867298723898011,7.3252279387517545,51.29999999998836
311875.1807,5.826533133701483,7.077865083200855,5.4780805943012165,8.594423464774138,51.301000000035856
311875.1817,6.982195383216867,8.109304592493908,6.928108305603971,9.653052629304597,51.302000000025146
311875.1827,7.870798574946536,8.859335205775965,8.148948639450488,10.439247699897239,51.303000000014435
311875.1837,8.434521647577428,9.264737395027089,9.078549249736813,10.897757550589967,51.304000000003725
311875.1847,8.627748167241993,9.276611197111023,9.66648827955367,10.985175009558972,51.304999999993015
311875.1857,8.421822166802524,8.86567575908227,9.878517105730353,10.674475167254016,51.305999999982305
311875.1867,7.808612089894214,8.026181518309151,9.699955480491115,9.958407821590907,51.3070000000298
311875.1877,6.802508295310936,6.778023912675899,9.137599518485091,8.851389296765637,51.30800000001909
311875.1887,5.440623400690373,5.166808618381316,8.21993783824119,7.3896762937308615,51.30900000000838
311875.1897,3.7811323308032083,3.2618052025331954,6.995626792708475,5.629763968546132,51.30999999999767
311875.1907,1.8998639912751447,1.151920897632361,5.530337116754321,3.6451166527138454,51.31099999998696
311875.1917,-0.11457806650611367,-1.0599897454174583,3.9022358680862452,1.5214964065312397,51.31200000003446
311875.1927,-2.1667489732062912,-3.264008013276761,2.1964945446226234,-0.6487132947377103,51.31300000002375
311875.1937,-4.160832681851638,-5.350643638172979,0.4993043869617556,-2.7726968437915627,51.31400000001304
311875.1947,-6.007080908522542,-7.218295813609515,-1.1080756463002668,-4.763368966436672,51.31500000000233
311875.1957,-7.627656386726278,-8.780043855986502,-2.554718236972597,-6.544974056325309,51.31599999999162
311875.1967,-8.96137353465509,-9.96919083217479,-3.7844093321059913,-8.05764055571703,51.31699999998091
311875.1977,-9.966935686624849,-10.743099413477992,-4.758645964764283,-9.260508746434981,51.318000000028405
311875.1987,-10.624412213460165,-11.085017880770678,-5.458017610290123,-10.133186439041701,51.319000000017695
311875.1997,-10.934867072397918,-11.003780348345432,-5.881893233828468,-10.675445856549649,51.320000000006985
311875.2007,-10.91822615672685,-10.531461022194087,-6.046497326501913,-10.905241060067736,51.320999999996275
311875.2017,-10.609637097292708,-9.719248900947157,-5.9816100200939255,-10.855282439031122,51.321999999985565
311875.2027,-10.054715695572641,-8.631968939729823,-5.726254082070282,-10.568537870379497,51.32300000003306
311875.2037,-9.304174282546581,-7.341793171755034,-5.323822879190085,-10.093126310302175,51.32400000002235
311875.2047,-8.408379228918019,-5.921749599107711,-4.817149506878146,-9.477119630419663,51.32500000001164
311875.2057,-7.412382655313092,-4.439642001567397,-4.244013906611686,-8.763767792354209,51.32600000000093
311875.2067,-6.351917504687932,-2.952940101120237,-3.6335324891971648,-7.987611296017113,51.32699999999022
311875.2077,-5.2507412204669155,-1.5050924323091477,-3.003778901031087,-7.1718485021713745,51.32800000003772
311875.2087,-4.119571714332913,-0.12356464726716426,-2.360854732890297,-6.327193597232841,51.32900000002701
311875.2097,-2.9566941863404343,1.180271233478798,-1.6994781136428063,-5.452306773076704,51.3300000000163
311875.2107,-1.7501450572165567,2.409458368341817,-1.0050012367372463,-4.535716934948065,51.33100000000559
311875.2117,-0.48121685843041867,3.578228020848875,-0.25662049166648676,-3.559004883322936,51.33199999999488
311875.2127,0.8711085167191563,4.707617321451366,0.5685803798094515,-2.500886489314244,51.33299999998417
311875.2137,2.325287749740189,5.820437323434211,1.4912005915167184,-1.3417435614559134,51.334000000031665
311875.2147,3.8924426044911296,6.936157108759311,2.525194500372302,-0.06810392067779338,51.335000000020955
311875.2157,5.572216314233889,8.06627259928847,3.674126826720062,1.323423816832076,51.336000000010245
311875.2167,7.349731688311461,9.210674220991095,4.928436247937432,2.823201534824332,51.336999999999534
311875.2177,9.19401568889187,10.35542131654012,6.264033768545292,4.406941673773743,51.337999999988824
311875.2187,11.058110983483251,11.472183972856255,7.642429893497067,6.035625969002779,51.33900000003632
311875.2197,12.880927714251204,12.519439527634452,9.012431814230913,7.657018515590317,51.34000000002561
311875.2207,14.590714860328427,13.445328815290805,10.31329360100141,9.208668299344305,51.3410000000149
311875.2217,16.109867200023835,14.191904432616846,11.479054392146512,10.622145495589319,51.34200000000419
311875.2227,17.360647102459847,14.700357223058559,12.443676434672163,11.828129623560772,51.34299999999348
311875.2237,18.27130371180926,14.916702414834003,13.146508818036596,12.761878588444763,51.34399999998277
311875.2247,18.7820251478988,14.797353919022619,13.537562510107007,13.368564622901332,51.34500000003027
311875.2257,18.850166902731573,14.314019573038836,13.582092049961958,13.607970497661611,51.34600000001956
311875.2267,18.454261113032373,13.457411298689621,13.264038296635642,13.458096482091271,51.34700000000885
311875.2277,17.596421013606044,12.239376276410638,12.587989470167795,12.917329866020737,51.34799999999814
311875.2287,16.30290209752111,10.693207293810262,11.579454543368746,12.004964499683132,51.34899999998743
311875.2297,14.622752115840193,8.87206739892099,10.283400684333376,10.760014467775529,51.350000000034925
311875.2307,12.624659531951984,6.845648363929535,8.761169664400217,9.238428296275814,51.351000000024214
311875.2317,10.392277206197308,4.695355956439688,7.0860410896270745,7.508962035335574,51.352000000013504
311875.2327,8.018438721851604,2.5084603703711776,5.33783809128306,5.648096212697889,51.353000000002794
311875.2337,5.598785250511183,0.37175288142512675,3.5970612376816407,3.734470540248073,51.353999999992084
311875.2347,3.2253714872894204,-1.6347004538423062,1.9390800609919308,1.843352635427085,51.35499999998137
311875.2357,0.9808151288774454,-3.4431255357343056,0.4289044007531786,0.04164873711861941,51.35600000002887
311875.2367,-1.0665038660043324,-5.002410584635111,-0.8829996224085208,-1.616093689217826,51.35700000001816
311875.2377,-2.8657945890994894,-6.280880100530785,-1.963486239736298,-3.090343659616841,51.35800000000745
311875.2387,-4.385501831837089,-7.26722883221212,-2.7978733113361196,-4.357692850366929,51.35899999999674
311875.2397,-5.613160810917105,-7.969552897755827,-3.389384506426097,-5.41035469973888,51.35999999998603
311875.2407,-6.553547708015807,-8.412602386306338,-3.7569868437433875,-6.254161973328958,51.36100000003353
311875.2417,-7.2253785648771585,-8.633554901179057,-3.9318741721735133,-6.90531817958935,51.36200000002282
311875.2427,-7.656947490198569,-8.676755194135605,-3.9529761408296857,-7.386281888843571,51.36300000001211
311875.2437,-7.881193586233733,-8.587967767635947,-3.8619633984690993,-7.721248141681054,51.3640000000014
311875.2447,-7.930734872457941,-8.408736865900117,-3.698264250378382,-7.93172918707699,51.36499999999069
311875.2457,-7.833402058226368,-8.171436741192444,-3.4946014467699698,-8.03272388745408,51.366000000038184
311875.2467,-7.608745954820716,-7.895525396351182,-3.2735008575045463,-8.0299024458719,51.367000000027474
311875.2477,-7.265885586361603,-7.585393843784694,-3.0451221373197908,-7.918126780628273,51.368000000016764
311875.2487,-6.802920347134357,-7.230042066909109,-2.8066251451237654,-7.681487383235844,51.369000000006054
311875.2497,-6.207963218357612,-6.804628064778208,-2.543128316170249,-7.294878667062068,51.36999999999534
311875.2507,-5.461679715483468,-6.273745769430928,-2.230151966506199,-6.72697244152531,51.37099999998463
311875.2517,-4.541056123559243,-5.596110056403928,-1.8372867795203616,-5.9442994485475396,51.37200000003213
311875.2527,-3.423986851270982,-4.730180127040917,-1.332700618823039,-4.9160269160430214,51.37300000002142
311875.2537,-2.0941778812093887,-3.6401508968030676,-0.6880079668403382,-3.6189381975233603,51.37400000001071
311875.2547,-0.5458207981319646,-2.3016959641493155,0.11701539841029368,-2.042087266694549,51.375
311875.2557,1.2124957227645943,-0.706860143025682,1.0903801236419577,-0.19061986956645516,51.37599999998929
311875.2567,3.1551036527842213,1.1324265967789175,2.2249406013060224,1.9116768766459746,51.37700000003679
311875.2577,5.238154986275505,3.182615456052444,3.4969037170642463,4.221420105779569,51.37800000002608
311875.2587,7.400303994472709,5.388819973616451,4.865990679320479,6.67644742488104,51.37900000001537
311875.2597,9.565200123772922,7.677154901856813,6.27729221280711,9.19841126372704,51.38000000000466
311875.2607,11.645640412984413,9.958977817352192,7.6646905236898455,11.69698765315432,51.380999999993946
311875.2617,13.549063477007289,12.136693662456258,8.955565354592256,14.075377750090937,51.381999999983236
311875.2627,15.183928738606816,14.110628537486852,10.076371426347135,16.23665111190249,51.383000000030734
311875.2637,16.46642838517812,15.786371142493714,10.958583395105014,18.090391799893027,51.38400000002002
311875.2647,17.326935144080217,17.08192889197696,11.544461179704443,19.55907063380134,51.38500000000931
311875.2657,17.715601078469593,17.934056037137594,11.792097547139019,20.58358327953543,51.3859999999986
311875.2667,17.60659042064243,18.30318231588815,11.679270534028474,21.12746306903453,51.38699999998789
311875.2677,17.00054680776487,18.17649601859182,11.205729977680203,21.179393157884174,51.38800000003539
311875.2687,15.925051193258689,17.568902982274565,10.393690023656958,20.753793962695017,51.38900000002468
311875.2697,14.433006462568196,16.521776907049507,9.286464380972928,19.88943447927066,51.39000000001397
311875.2707,12.599071350370442,15.099618002516962,7.945352559597761,18.646193693655828,51.39100000000326
311875.2717,10.514441927918506,13.384927071325505,6.445046954323971,17.100264010346436,51.39199999999255
311875.2727,8.280427029472875,11.471762616643591,4.867966982492849,15.33822673302993,51.39299999998184
311875.2737,6.00137048521309,9.458564210567856,3.2980245221386895,13.450527106049067,51.39400000002934
311875.2747,3.7775278904849525,7.440885336935718,1.814375301808283,11.524924143613324,51.39500000001863
311875.2757,1.698503794003761,5.504677786591786,0.48570891970397917,9.640484118867757,51.396000000007916
311875.2767,-0.16220299958210116,3.7207079175893147,-0.6344238863192726,7.862627040775629,51.396999999997206
311875.2777,-1.7511070756842582,2.1405690341676307,-1.5108489331099701,6.239628705181424,51.397999999986496
311875.2787,-3.036806795205127,0.7945953445590318,-2.1283112927628522,4.800837474514851,51.39900000003399
311875.2797,-4.010101507094955,-0.3082029340261464,-2.491224528617096,3.556698812122094,51.40000000002328
311875.2807,-4.682222740461836,-1.1782585640043617,-2.6216975684158217,2.5005078877722435,51.40100000001257
311875.2817,-5.081420789520592,-1.8418803927967011,-2.5560716590630883,1.611647950218863,51.40200000000186
311875.2827,-5.248296920060486,-2.3364174951159384,-2.340337485078214,0.8599352366665316,51.40299999999115
311875.2837,-5.23038069273743,-2.7046852478636954,-2.0249033254864095,0.2105929887416502,51.40400000003865
311875.2847,-5.0765114104181235,-2.989244530901394,-1.6592395359542427,-0.37067313038706423,51.40500000002794
311875.2857,-4.8315871238115164,-3.227126423025404,-1.286927662239363,-0.913023785884784,51.40600000001723
311875.2867,-4.532194020106263,-3.445537197825439,-0.9415941079789919,-1.4367305527460725,51.40700000000652
311875.2877,-4.2035287791752465,-3.6589682637135796,-0.644113480870873,-1.9506880213354378,51.40799999999581
311875.2887,-3.8578868319081807,-3.867984221595684,-0.40133501581749714,-2.4514292549653156,51.4089999999851
311875.2897,-3.49482442028687,-4.059784732932808,-0.20642988281919783,-2.9237223177585374,51.410000000032596
311875.2907,-3.1029283876410423,-4.210450200863841,-0.040793085066626475,-3.342661008804949,51.411000000021886
311875.2917,-2.6629619776332434,-4.288605912039204,0.12272281761687272,-3.6770082332660032,51.412000000011176
311875.2927,-2.1520139661167637,-4.260091729997018,0.315598409092631,-3.893420935700097,51.413000000000466
311875.2937,-1.5481760780352225,-4.093119338618679,0.5689162253271616,-3.961094012261642,51.413999999989755
311875.2947,-0.8352198928029478,-3.7633468373797694,0.9086132455947366,-3.856316126015246,51.41500000003725
311875.2957,-0.006744530076002553,-3.258306363049559,1.351223983200166,-3.56643723533748,51.41600000002654
311875.2967,0.9306797858603229,-2.580683768145558,1.9005718592064442,-3.092805190052543,51.41700000001583
311875.2977,1.9557450958417546,-1.7500639373436455,2.5457716785387636,-2.4523312273475497,51.41800000000512
311875.2987,3.0322486618785818,-0.8029097015453951,3.2607749563277966,-1.6774814409861816,51.41899999999441
311875.2997,4.1106139074768935,0.20927881332452503,4.005535534832504,-0.8146496918518771,51.4199999999837
311875.3007,5.13098575746533,1.2234919706166123,4.728710629208486,0.07896873987369951,51.4210000000312
311875.3017,6.0276342185299265,2.1701192777506035,5.371658156287339,0.9397304642726954,51.42200000002049
311875.3027,6.734263093794417,2.9787879444407572,5.87336014474328,1.7027250256626512,51.42300000000978
311875.3037,7.189723098429539,3.584579324002865,6.175807112319747,2.3072962719140397,51.42399999999907
311875.3047,7.343580156707537,3.9340240657510095,6.229328878238904,2.7023760901478955,51.42499999998836
311875.3057,7.160995281974011,3.990288512044308,5.997358229339586,2.8511138319133877,51.426000000035856
311875.3067,6.626431792039141,3.737034596826761,5.460165094640203,2.7343469600349644,51.427000000025146
311875.3077,5.7458130032746375,3.1805566794053473,4.617195379429401,2.3525656556857673,51.428000000014435
311875.3087,4.546898532707058,2.349959723930873,3.4877808963620187,1.7261659494985448,51.429000000003725
311875.3097,3.077815748604377,1.2953284058490215,2.1101419282210574,0.8939485737873489,51.429999999993015
311875.3107,1.4038582488206135,0.08402806272840903,0.5387666581167513,-0.09001171266191678,51.430999999982305
311875.3117,-0.3971716841463894,-1.2045427737940875,-1.159593926822152,-1.1608454999973483,51.4320000000298
311875.3127,-2.2406610993193374,-2.4852797252546295,-2.9109461050620693,-2.2483066756536094,51.43300000001909
311875.3137,-4.0414107749316255,-3.6742070621374157,-4.6396241506706515,-3.28262898080521,51.43400000000838
311875.3147,-5.719823093613849,-4.695197293008858,-6.273898020739752,-4.200279659796988,51.43499999999767
311875.3157,-7.207496163990992,-5.485964235322525,-7.751104977928111,-4.94907951666493,51.43599999998696
311875.3167,-8.451726518797425,-6.002787229664787,-9.021842641429782,-5.492220856330057,51.43700000003446
311875.3177,-9.418530267344838,-6.223545570915896,-10.052856169022956,-5.810822204065933,51.43800000002375
311875.3187,-10.093937493362684,-6.148803984534971,-10.82838264425399,-5.904800843975351,51.43900000001304
311875.3197,-10.483482675806364,-5.800876326242153,-11.349868300703433,-5.792007167572226,51.44000000000233
311875.3207,-10.609988417077501,-5.220987468128704,-11.634133825037042,-5.5057326110253735,51.44099999999162
311875.3217,-10.509903608732099,-4.464833757933673,-11.710213844907525,-5.090859148594136,51.44199999998091
311875.3227,-10.228594234163888,-3.5969929124468294,-11.615223927889666,-4.599047610543204,51.443000000028405
311875.3237,-9.815081842781058,-2.6847400761289615,-11.389699465322709,-4.083451865752508,51.444000000017695
311875.3247,-9.316771858774837,-1.791877762324726,-11.072896771320302,-3.5934874042749017,51.445000000006985
311875.3257,-8.774706760721207,-0.9731786053085298,-10.698543165396126,-3.170172078925068,51.445999999996275
311875.3267,-8.219818612011444,-0.26997226859574613,-10.291470231271825,-2.8424948710249844,51.446999999985565
311875.3277,-7.670547559294133,0.29271175834461866,-9.865468240732449,-2.62516172248991,51.44800000003306
311875.3287,-7.132048564854474,0.707193502886104,-9.422569635185512,-2.5179263407386023,51.44900000002235
311875.3297,-6.597042246548883,0.982316087661159,-8.95381858784834,-2.5065524340345156,51.45000000001164
311875.3307,-6.048193916236781,1.1408657799108621,-8.441427226167786,-2.565288078170209,51.45100000000093
311875.3317,-5.461744943004346,1.21553811551083,-7.862072846875123,-2.6605792864714153,51.45199999999022
311875.3327,-4.8119884840713505,1.2438967076765797,-7.190969174849572,-2.755623601319769,51.45300000003772
311875.3337,-4.076090750066326,1.2628733867891284,-6.406260699686508,-2.8152782041713103,51.45400000002701
311875.3347,-3.238718567120007,1.303405201555997,-5.493250968739479,-2.810799282368925,51.4550000000163
311875.3357,-2.295948344668363,1.385790791805142,-4.44798745922147,-2.723904046129187,51.45600000000559
311875.3367,-1.2579995131780424,1.516276874380307,-3.279786360370877,-2.549712548443228,51.45699999999488
311875.3377,-0.15045059685085166,1.6852620210155767,-2.012384446934899,-2.298236978552641,51.45799999998417
311875.3387,0.9862528295428716,1.8673416317955114,-0.683542072752183,-1.994230612216282,51.459000000031665
311875.3397,2.0990167591242423,2.0232310495214474,0.6569223139830108,-1.6753729774403727,51.460000000020955
311875.3407,3.1258858551992126,2.1034115320757727,1.95052530997724,-1.3889359128192789,51.461000000010245
311875.3417,4.001077598135483,2.053165297865317,3.1346500122898515,-1.1872305231118692,51.461999999999534
311875.3427,4.660808158731429,1.8185188028704675,4.147804710989253,-1.1222622399910323,51.462999999988824
311875.3437,5.049363740617823,1.352512500560518,4.935115080596465,-1.240107641554616,51.46400000003632
311875.3447,5.124832479636206,0.6211708190229875,5.453521082337084,-1.5755636752423938,51.46500000002561
311875.3457,4.863929907537439,-0.39143727321738686,5.676166246858558,-2.147603559464188,51.4660000000149
311875.3467,4.265424274052103,-1.679580145677538,5.595533836832419,-2.956105183714849,51.46700000000419
311875.3477,3.3517900683642226,-3.214091363632594,5.22499551382367,-3.9802036245135914,51.46799999999348
311875.3487,2.1688775040597927,-4.942676903798768,4.598583109802337,-5.178470241726969,51.46899999998277
311875.3497,0.783567460555548,-6.792340544842986,3.7689591230353234,-6.490950928944893,51.47000000003027
311875.3507,-0.7204318937154802,-8.673765968246128,2.8037307854755213,-7.842921716298403,51.47100000001956
311875.3517,-2.2483166960455008,-10.48730740876897,1.7804096590524,-9.150057786596124,51.47200000000885
311875.3527,-3.700972770815435,-12.130085626506107,0.7804484866554605,-10.324577637508641,51.47299999999814
311875.3537,-4.982239472358551,-13.503577559247598,-0.11712318773179842,-11.281830517142163,51.47399999998743
311875.3547,-6.006028957118763,-14.521036795200231,-0.8419021194900337,-11.946751383044163,51.475000000034925
311875.3557,-6.702687990533589,-15.11409300977843,-1.3376025924978998,-12.259617711882301,51.476000000024214
311875.3567,-7.02405648905089,-15.23795076045888,-1.5663490356110321,-12.18060555868679,51.477000000013504
311875.3577,-6.946794701738167,-14.874734646877934,-1.5113930684568777,-11.69275227915978,51.478000000002794
311875.3587,-6.473708054125681,-14.034696699371391,-1.1780232921817062,-10.8030797312148,51.478999999992084
311875.3597,-5.632980251617752,-12.755196783251737,-0.5926030283730926,-9.541800527968391,51.47999999998137
311875.3607,-4.47541399882092,-11.097569144176038,0.20015625484335156,-7.959704869533882,51.48100000002887
311875.3617,-3.0699567190787462,-9.142178652981414,1.141416411624802,-6.123989925735129,51.48200000001816
311875.3627,-1.4979391288783344,-6.982130728471744,2.16352418275529,-4.1129320293375775,51.48300000000745
311875.3637,0.15343667849500553,-4.716214181443451,3.1959118474326043,-2.0099009990213577,51.48399999999674
311875.3647,1.7977658973487247,-2.441715617781811,4.171037978416371,0.10273348786871257,51.48499999998603
311875.3657,3.3556723093163616,-0.24774230273603245,5.029823940487935,2.1492559124498003,51.48600000003353
311875.3667,4.7600639569240055,1.7903717888604351,5.726098253575728,4.06532642442747,51.48700000002282
311875.3677,5.959981067091166,3.615118080763649,6.229663511146156,5.801378174507027,51.48800000001211
311875.3687,6.922749748989231,5.1890232153574765,6.527738980538929,7.324436332661073,51.4890000000014
311875.3697,7.634325601669925,6.494900700744605,6.624692652834494,8.618264743048245,51.48999999999069
311875.3707,8.097890055904578,7.5342211497560525,6.54014359792093,9.681912907013613,51.491000000038184
311875.3717,8.330931482387834,8.323859669432656,6.305672709171939,10.526892902609877,51.492000000027474
311875.3727,8.361186315113114,8.891632134633985,5.96051203151331,11.173347511052624,51.493000000016764
311875.3737,8.221918821040443,9.271141795427907,5.546677129822581,11.645664360840703,51.494000000006054
311875.3747,7.947071868386145,9.496513456166578,5.104054410812144,11.968037281946,51.49499999999534
311875.3757,7.566820246304662,9.597589244537641,4.665951625600235,12.1604709634869,51.49599999998463
311875.3767,7.104003334179121,9.596098553848938,4.2555656466695755,12.235669239941071,51.49700000003213
311875.3777,6.571811122770712,9.50320166110323,3.883722668090653,12.197146748183957,51.49800000002142
311875.3787,5.972957409354143,9.318653479780204,3.548112230189654,12.038768610919798,51.49900000001071
311875.3797,5.300410756354289,9.031656528394217,3.2340813067307987,11.745766949538309,51.5
311875.3807,4.5395840963936696,8.623288504353642,2.9168935618808702,11.297122211524059,51.50099999998929
311875.3817,3.6717248668934164,8.070218471513863,2.565207778438177,10.669047809188736,51.50200000003679
311875.3827,2.678115348111562,7.349283980448652,2.1454033513499495,9.839193581414646,51.50300000002608
311875.3837,1.5446008583006106,6.44240385837819,1.6262921234454448,8.791099656211582,51.50400000001537
311875.3847,0.2659210205576692,5.341257949875495,0.9837135063156711,7.518396085497509,51.50500000000466
311875.3857,-1.1506690828186956,4.051180384623726,0.20451801526456972,6.028259084437834,51.505999999993946
311875.3867,-2.682936325978384,2.5937857582290955,-0.7104976782008,4.343700640147947,51.506999999983236
311875.3877,-4.29270233382698,1.0079709491655864,-1.745038938280846,2.5043784330332604,51.508000000030734
311875.3887,-5.926560779994723,-0.650902901952231,-2.86734304607139,0.5657567837889915,51.50900000002002
311875.3897,-7.518299103406598,-2.3136594131839923,-4.031832070484432,-1.403387346859168,51.51000000000931
311875.3907,-8.992870532663073,-3.9016096156488125,-5.182267489221653,-3.3249524872294547,51.5109999999986
311875.3917,-10.27160074331653,-5.332156955109967,-6.256133388033509,-5.11668033883635,51.51199999998789
311875.3927,-11.278180520220983,-6.525211551011697,-7.189848756316678,-6.698063060818985,51.51300000003539
311875.3937,-11.944904889541805,-7.409825392599376,-7.924321264597401,-7.996465844820647,51.51400000002468
311875.3947,-12.218579714188154,-7.9304214600244025,-8.41031382042267,-8.952905854084744,51.51500000001397
311875.3957,-12.06553312413654,-8.052012076913078,-8.613105453720358,-9.526947624276564,51.51600000000326
311875.3967,-11.475240356485642,-7.763883636048588,-8.515988981188086,-9.700246373313368,51.51699999999255
311875.3977,-10.462190224589262,-7.081358844652703,-8.122253793602306,-9.478387916913347,51.51799999998184
311875.3987,-9.065778371009007,-6.045421296119406,-7.455442936581832,-8.890826100186645,51.51900000002934
311875.3997,-7.348191832864758,-4.720184005440866,-6.557835900823657,-7.988891434840613,51.52000000001863
311875.4007,-5.390434135812349,-3.188384680422961,-5.487276544757583,-6.842021503483485,51.521000000007916
311875.4017,-3.286812396582544,-1.5452765273745768,-4.312623060716278,-5.532527706756812,51.521999999997206
311875.4027,-1.1383511299579274,0.10856375604490202,-3.108228550666353,-4.149348307930571,51.522999999986496
311875.4037,0.9543022595491364,1.6748844105812,-1.9479537513838356,-2.7813314093521573,51.52400000003399
311875.4047,2.8978677473503227,3.065190806627416,-0.8992586249919489,-1.5106344062005195,51.52500000002328
311875.4057,4.612716009698333,4.207305660500616,-0.017912426374994673,-0.4068144224897244,51.52600000001257
311875.4067,6.037908508618403,5.050480287528302,0.656196924189443,0.4778816386954468,51.52700000000186
311875.4077,7.134574740182721,5.568613120009325,1.1017781592602605,1.1116321868878212,51.52799999999115
311875.4087,7.88736281040264,5.761306766895793,1.3171414054735067,1.484315935188505,51.52900000003865
311875.4097,8.30387937545887,5.652695078647409,1.3194200922740862,1.6068737375491349,51.53000000002794
311875.4107,8.412221663679242,5.2881778702599425,1.1421072521063833,1.5088620576687908,51.53100000001723
311875.4117,8.256879844395039,4.729393431156715,0.831162946518581,1.2344692981070908,51.53200000000652
311875.4127,7.893435590370764,4.047919329471826,0.44008363984961213,0.8374053788083762,51.53299999999581
311875.4137,7.382588212159178,3.318305036823647,0.024420046510675763,0.3751736422472724,51.5339999999851
311875.4147,6.78409326160375,2.6110948950557407,-0.36372189777165415,-0.09671683909700497,51.535000000032596
311875.4157,6.1511951324771506,1.986491887404039,-0.6806662824404357,-0.5300455290211495,51.536000000021886
311875.4167,5.5260756083705855,1.489242644339385,-0.8951635718144835,-0.8881864440011485,51.537000000011176
311875.4177,4.936730678010102,1.1451991860341104,-0.9910244339348874,-1.1490363890051674,51.538000000000466
311875.4187,4.395539275607722,0.9598454502704225,-0.9681547715694846,-1.306317668471717,51.538999999989755
311875.4197,3.8996147011770144,0.9188831245506984,-0.841915303282615,-1.3691717175576126,51.54000000003725
311875.4207,3.432849440950913,0.9907706054122938,-0.64089521535295,-1.3601304969406844,51.54100000002654
311875.4217,2.9693946827997473,1.130920570572945,-0.4033457935590615,-1.3117123923230989,51.54200000001583
311875.4227,2.4781736405974994,1.2871039015500154,-0.17265121738304942,-1.2620231659872059,51.54300000000512
311875.4237,1.9279267641455087,1.4054956992200844,0.00769296533733482,-1.249837267145228,51.54399999999441
311875.4247,1.292236824620051,1.4367435186514226,0.09907682979280007,-1.3096814576199043,51.5449999999837
311875.4257,0.5539874917682568,1.3414437800653944,0.07223676121534761,-1.4674369515790646,51.5460000000312
311875.4267,-0.29123038046376143,1.0944786243399391,-0.08927607924620436,-1.7369189738577846,51.54700000002049
311875.4277,-1.2331411241109809,0.6877853920698326,-0.386974441577916,-2.117789749574516,51.54800000000978
311875.4287,-2.2464643677316527,0.1312923113759231,-0.8068797075496349,-2.595022857448008,51.54899999999907
311875.4297,-3.2923115084169217,-0.5480592405502737,-1.3205939019807968,-3.1399774566287313,51.54999999998836
311875.4307,-4.321180468975461,-1.3090919322882297,-1.887896646693183,-3.7129760467075674,51.551000000035856
311875.4317,-5.277265289013053,-2.1006738803327605,-2.4606112789617276,-4.267125556557504,51.552000000025146
311875.4327,-6.10365948497553,-2.867057931026848,-2.987356236844859,-4.752993975452489,51.553000000014435
311875.4337,-6.747935970319393,-3.5537264683144727,-3.4187076399351084,-5.12366611134485,51.554000000003725
311875.4347,-7.167541286137776,-4.1131387981273475,-3.712255665112595,-5.339661187989673,51.554999999993015
311875.4357,-7.334452568302781,-4.509787896310353,-3.8370451298506763,-5.373205942288897,51.555999999982305
311875.4367,-7.238611210437185,-4.7240423261412365,-3.7769489295188015,-5.211418592389284,51.5570000000298
311875.4377,-6.889761324294912,-4.7543705506693925,-3.532625965602436,-4.858065430875055,51.55800000001909
311875.4387,-6.317472822699363,-4.617706650286282,-3.121852897863063,-4.333692353797843,51.55900000000838
311875.4397,-5.56930352530983,-4.347902608512397,-2.578178001300198,-3.674094484592164,51.55999999999767
311875.4407,-4.707235120776048,-3.99240445799625,-1.9480100657721187,-2.927252302660505,51.56099999998696
311875.4417,-3.8026865122716225,-3.6074687054492083,-1.2864095278743342,-2.149016007079665,51.56200000003446
311875.4427,-2.93054854193794,-3.2523838727753196,-0.651977757065944,-1.3979460683821783,51.56300000002375
311875.4437,-2.162782570241915,-2.9832650039731483,-0.10133099213168195,-0.7298045332332002,51.56400000001304
311875.4447,-1.5621721806444429,-2.8470363435684787,0.3163110895726627,-0.19223002016947338,51.56500000000233
311875.4457,-1.176807702414746,-2.876204295291013,0.563900135199865,0.17988441720385268,51.56599999999162
311875.4467,-1.0358180796205074,-3.0849503462847117,0.620233893356301,0.36785606315882347,51.56699999998091
311875.4477,-1.1467500430393052,-3.4669488347502657,0.48217155542611795,0.3711748392649712,51.568000000028405
311875.4487,-1.4948415407310311,-3.9951493285120554,0.16516920819450429,0.20776151554661837,51.569000000017695
311875.4497,-2.0442596580603816,-4.623574008886219,-0.29792439239893803,-0.08751612761807065,51.570000000006985
311875.4507,-2.7411898139455504,-5.290985252139959,-0.8597047745511217,-0.46593927221778997,51.570999999996275
311875.4517,-3.5184905073821806,-5.92609659732495,-1.462417853222647,-0.8693605249408431,51.571999999985565
311875.4527,-4.301482886284697,-6.453849248010052,-2.0431403172399007,-1.2355388369268598,51.57300000003306
311875.4537,-5.014340816001172,-6.802170941612015,-2.539446249955047,-1.5038843476577,51.57400000002235
311875.4547,-5.586494801014685,-6.908584757878291,-2.895025900581092,-1.6210706654522724,51.57500000001164
311875.4557,-5.958466934124105,-6.726047101284244,-3.0647281014908083,-1.5459846194075477,51.57600000000093
311875.4567,-6.086613427428514,-6.227465625415922,-3.0185544360484786,-1.2535473282851475,51.57699999999022
311875.4577,-5.946360238207349,-5.408472386424161,-2.744235342990976,-0.7370493367527469,51.57800000003772
311875.4587,-5.533665056083151,-4.288192972251761,-2.2481559019154953,-0.008785970518602417,51.57900000002701
311875.4597,-4.864610938959677,-2.907942720932806,-1.5545586283516832,0.9010570102186715,51.5800000000163
311875.4607,-3.9732163319323823,-1.3279779545653705,-0.7031166270452525,1.9471489027888906,51.58100000000559
311875.4617,-2.9077155707179347,0.37738567211059765,0.25487328894220024,3.073115543218942,51.58199999999488
311875.4627,-1.7257068074356863,2.125821932315505,1.2612966250586073,4.216592164476844,51.58299999998417
311875.4637,-0.4886668136335303,3.8336358181480095,2.2565519332113513,5.3147333244267925,51.584000000031665
311875.4647,0.7436154652006932,5.4223718094103655,3.184884991380969,6.309644390840638,51.585000000020955
311875.4657,1.9181372268307009,6.824770434163799,3.999209562941815,7.1532103431097696,51.586000000010245
311875.4667,2.9928194376811423,7.989523220179081,4.664952829986784,7.810860254002414,51.586999999999534
311875.4677,3.9392963843523545,8.884397579737184,5.162563600860578,8.26391357996208,51.587999999988824
311875.4687,4.744112621909251,9.49746582977691,5.4884564871093255,8.510296722320321,51.58900000003632
311875.4697,5.408248931972812,9.836360467613506,5.654322061690107,8.563581242153216,51.59000000002561
311875.4707,5.945071692381852,9.92567258198152,5.684896081136453,8.450462611318827,51.5910000000149
311875.4717,6.376962234603255,9.80279279906361,5.614434131291685,8.206953992973347,51.59200000000419
311875.4727,6.731018149279904,9.512646560887335,5.4822664823590355,7.873697946194114,51.59299999999348
311875.4737,7.034313596956869,9.10188287103789,5.327898919770908,7.4908874679029545,51.59399999998277
311875.4747,7.309250999880453,8.613127386920208,5.186169946827534,7.093327636721594,51.59500000003027
311875.4757,7.569527482068435,8.07990179200093,5.08296867918354,6.706156275789134,51.59600000001956
311875.4767,7.81717692630738,7.5227425867781115,5.03196158525736,6.341677625901998,51.59700000000885
311875.4777,8.041038670897514,6.946930495508457,5.032675487313803,5.997653188455156,51.59799999999814
311875.4787,8.216857519862579,6.342078510249045,5.070148799482244,5.657249287524866,51.59899999998743
311875.4797,8.309051369042434,5.683638151310604,5.116206105996234,5.290675566267523,51.600000000034925
311875.4807,8.274009054247792,4.936188280016661,5.132248235952297,4.858378690440487,51.601000000024214
311875.4817,8.06461928184393,4.058187922691839,5.073296929613957,4.315497592025112,51.602000000013504
311875.4827,7.6355978651232155,3.007722053538129,4.892905021640454,3.617156138257662,51.603000000002794
311875.4837,6.949088416484674,1.7486622148502868,4.54845238175145,2.724079016308363,51.603999999992084
311875.4847,5.979970563897968,0.2566129072173235,4.006303610270395,1.6079758595996505,51.60499999998137
311875.4857,4.720324140815293,-1.4759748984198238,3.246310136267278,0.25615142797028606,51.60600000002887
311875.4867,3.1825667060658382,-3.436070704733895,2.2651964244014153,-1.3251349628731925,51.60700000001816
311875.4877,1.4008989207049292,-5.588134351318115,1.0784720890341488,-3.1089256263895524,51.60800000000745
311875.4887,-0.569153253069294,-7.8742439659437595,-0.2793508999994071,-5.047653215997366,51.60899999999674
311875.4897,-2.6531335302474925,-10.216343673610181,-1.7562972191677306,-7.075108945520543,51.60999999998603
311875.4907,-4.761838755193617,-12.5204715741816,-3.286118362506668,-9.110161576384112,51.61100000003353
311875.4917,-6.796971308808718,-14.682638998650596,-4.792871761497787,-11.06193365862284,51.61200000002282
311875.4927,-8.657798503397716,-16.595872437306284,-6.196493701537736,-12.83600342335549,51.61300000001211
311875.4937,-10.2482567251278,-18.157815171629196,-7.418874965933264,-14.341102495051564,51.6140000000014
311875.4947,-11.4838897835382,-19.27822756761476,-8.389898434414581,-15.49573059216508,51.61499999999069
311875.4957,-12.298019430962723,-19.885728829477376,-9.052899125331997,-16.234113276809353,51.616000000038184
311875.4967,-12.646610713528958,-19.93318845167927,-9.369059254233575,-16.510987110238624,51.617000000027474
311875.4977,-12.511409712726685,-19.40129641431219,-9.32034876549267,-16.304802686468157,51.618000000016764
311875.4987,-11.901085520070493,-18.300005805955482,-8.910756072888832,-15.619079814328282,51.619000000006054
311875.4997,-10.850287369162887,-16.667734305606793,-8.165711543987472,-14.481816890702232,51.61999999999534
311875.5007,-9.416714772351924,-14.568413423684847,-7.129772482850891,-12.943032300177245,51.62099999998463
311875.5017,-7.676475583767938,-12.086667320974625,-5.862797142995001,-11.070682826592016,51.62200000003213
311875.5027,-5.718157423491497,-9.321568105046865,-4.434971541041402,-8.945346804462133,51.62300000002142
311875.5037,-3.636147724893477,-6.379536206531987,-2.9211536652583154,-6.654164719233926,51.62400000001071
311875.5047,-1.523796634429106,-3.3670214696344267,-1.3950556640778116,-4.28458752164819,51.625
311875.5057,0.5329801496565015,-0.3836069877120447,0.0762093012083989,-1.9184879997371767,51.62599999998929
311875.5067,2.4611145978946953,2.4838766000864014,1.4367328694276422,0.3728568214246369,51.62700000003679
311875.5077,4.204375101943273,5.165747862270523,2.6451767896469454,2.532499024484261,51.62800000002608
311875.5087,5.725633717497821,7.612056942604124,3.676630537085643,4.519988148595358,51.62900000001537
311875.5097,7.007284177859745,9.793209712102257,4.522843984630577,6.311850823455267,51.63000000000466
311875.5107,8.049861532229386,11.698682084509064,5.190877001603761,7.900424031864318,51.630999999993946
311875.5117,8.869084725802102,13.334056823351467,5.7003605494283764,9.291243190897093,51.631999999983236
311875.5127,9.491689342232712,14.716772935699014,6.0796952242526,10.499322450032011,51.633000000030734
311875.5137,9.950525142130337,15.871094107187016,6.361610539670085,11.544765091555712,51.63400000002002
311875.5147,10.279451893008499,16.822866543488015,6.578562252217267,12.448197216950186,51.63500000000931
311875.5157,10.508572074798286,17.594642261226618,6.758450746849864,13.226523076185016,51.6359999999986
311875.5167,10.660290469143549,18.20169134083046,6.921100773426217,13.889455503978871,51.63699999998789
311875.5177,10.746593803625561,18.649321723269626,7.075856330508689,14.437184991649575,51.63800000003539
311875.5187,10.767808664180322,18.931778795814854,7.220523241629624,14.859425408847041,51.63900000002468
311875.5197,10.712936663063848,19.032824336117457,7.341748403285441,15.135926236107569,51.64000000001397
311875.5207,10.561498532055328,18.92791299539883,7.416773423134965,15.238385485893552,51.64100000000326
311875.5217,10.28666028599223,18.587712819980165,7.416356741779055,15.133550036711092,51.64199999999255
311875.5227,9.859280783272371,17.982571707948342,7.308536847441103,14.787165715892083,51.64299999998184
311875.5237,9.252424259845988,17.087428766560215,7.062822078883923,14.16835057080042,51.64400000002934
311875.5247,8.445833221092734,15.886618636020717,6.654348499364489,13.253920157527483,51.64500000001863
311875.5257,7.429861124859069,14.378023076821387,6.067550777021744,12.032197641129068,51.646000000007916
311875.5267,6.20842000059025,12.576086820045942,5.298941488333315,10.505893419991326,51.646999999997206
311875.5277,4.800599753407944,10.513327504785245,4.3586865822695025,8.693733405159822,51.647999999986496
311875.5287,3.240753020365892,8.240121079638712,3.2707894850110897,6.630642281251185,51.64900000003399
311875.5297,1.5769981364252081,5.8227190293505595,2.071840786030734,4.366435046389803,51.65000000002328
311875.5307,-0.13174308102665308,3.3396345359269994,0.8084399135100236,1.9631219046451793,51.65100000001257
311875.5317,-1.8199030759060344,0.8767029269758221,-0.46646556588994487,-0.5089272649135029,51.65200000000186
311875.5327,-3.4202259926304768,-1.4787395409401174,-1.6979626500673497,-2.975596454557091,51.65299999999115
311875.5337,-4.869042454070504,-3.644019481299518,-2.8338388035264535,-5.363973277157754,51.65400000003865
311875.5347,-6.111341383893366,-5.547052067403799,-3.829058322092495,-7.607158578258352,51.65500000002794
311875.5357,-7.1051332970478995,-7.1314641751501044,-4.649590719537833,-9.648473486626699,51.65600000001723
311875.5367,-7.824665645170352,-8.360423312108834,-5.275194093830829,-11.44466251003691,51.65700000000652
311875.5377,-8.262162025507916,-9.218802948885754,-5.70085904217409,-12.967793331226222,51.65799999999581
311875.5387,-8.427902401344468,-9.713474682265028,-5.936752430541945,-14.205686758411177,51.6589999999851
311875.5397,-8.348626518223973,-9.871699230487343,-6.006651888202768,-15.160860422953945,51.660000000032596
311875.5407,-8.064410959577396,-9.737773585441253,-5.945016100180903,-15.848122074760264,51.661000000021886
311875.5417,-7.624324876926971,-9.368262279017957,-5.792977238815739,-16.29108720448371,51.662000000011176
311875.5427,-7.081294730921067,-8.826279611294536,-5.593655815474734,-16.518007001484843,51.663000000000466
311875.5437,-6.486691600727811,-8.175382884793764,-5.387273079547195,-16.557364837084542,51.663999999989755
311875.5447,-5.885187094230624,-7.473674736940982,-5.206563902792905,-16.433724932927852,51.66500000003725
311875.5457,-5.310401959687257,-6.768691558032619,-5.072970565306327,-16.164292698133668,51.66600000002654
311875.5467,-4.781796895014753,-6.0935765849327765,-4.994026709820219,-15.756574454274514,51.66700000001583
311875.5477,-4.303134754694947,-5.4649081269136595,-4.962227522203113,-15.207411785465,51.66800000000512
311875.5487,-3.862688925608126,-4.88238802485895,-4.955537734168951,-14.503523573127355,51.66899999999441
311875.5497,-3.4351990942391413,-4.330409114502474,-4.93952732362179,-13.623530991077423,51.6699999999837
311875.5507,-2.9853999545369536,-3.7813315347790986,-4.870961619913492,-12.541283112876636,51.6710000000312
311875.5517,-2.4727879185535406,-3.2001248870569365,-4.702523978452482,-11.230159198966176,51.67200000002049
311875.5527,-1.8571615119074403,-2.549893674030276,-4.388230020715744,-9.66791259661305,51.67300000000978
311875.5537,-1.1043858247517409,-1.797711066228801,-3.8890146092159554,-7.841552002770509,51.67399999999907
311875.5547,-0.19179886650883535,-0.9201501911663079,-3.1779442418155694,-5.751736043960338,51.67499999998836
311875.5557,0.8872984496260656,0.09207338639340881,-2.2445316400647197,-3.4161893287762486,51.676000000035856
311875.5567,2.120548554324339,1.2308516427575547,-1.0977041105147716,-0.8717298289304994,51.677000000025146
311875.5577,3.4751937926180316,2.4691971284761127,0.23290401205170136,1.825378745576163,51.678000000014435
311875.5587,4.898676075880996,3.7617190240833724,1.6975129398280728,4.600881572930767,51.679000000003725
311875.5597,6.321190764667582,5.047070493656544,3.2286209496587044,7.365756133870173,51.679999999993015
311875.5607,7.6600213375971755,6.252181472034816,4.745125112599045,10.020996438445051,51.680999999982305
311875.5617,8.825311451530657,7.297913343190274,6.157815757284363,12.463597172223494,51.6820000000298
311875.5627,9.726791955274102,8.10562810563539,7.375791433075552,14.593255675892273,51.68300000001909
311875.5637,10.280885609649115,8.604068687465427,8.313252706907914,16.31923211741827,51.68400000000838
311875.5647,10.417570797838803,8.735908560478226,8.896094416851414,17.566782082189377,51.68499999999767
311875.5657,10.086401393989185,8.463351655897922,9.067730676014468,18.282603979056336,51.68599999998696
311875.5667,9.261151731822318,7.772245817198023,8.793653552489298,18.43882383303594,51.68700000003446
311875.5677,7.94267648663926,6.674306908862152,8.064338590259235,18.035164919721165,51.68800000002375
311875.5687,6.159733793986436,5.207223507349801,6.896257515122718,17.099107710303826,51.68900000001304
311875.5697,3.967701058996207,3.4326073395705525,5.330926643776319,15.684021970289066,51.69000000000233
311875.5707,1.4452995378007223,1.4319536413692697,3.4320928090713627,13.865431047561279,51.69099999999162
311875.5717,-1.310381682759632,-0.699040645381741,1.2813207575395953,11.735731669361044,51.69199999998091
311875.5727,-4.190125560580627,-2.8573019885375923,-1.0276181398833752,9.397825637477853,51.693000000028405
311875.5737,-7.079549922317247,-4.939746116224136,-3.395058890340462,6.958210253190938,51.694000000017695
311875.5747,-9.866199566305575,-6.850535320253424,-5.721910933998729,4.520113788398553,51.695000000006985
311875.5757,-12.446177053908093,-8.507592573073254,-7.915736427198759,2.1772473972283852,51.695999999996275
311875.5767,-14.729779569784222,-9.847812213583005,-9.8959463893778,0.008677287586502495,51.696999999985565
311875.5777,-16.64571586881379,-10.830533757971706,-11.597719675966957,-1.9247924767832398,51.69800000003306
311875.5787,-18.143621763768564,-11.439012222428197,-12.97438191348628,-3.5824843590231654,51.69900000002235
311875.5797,-19.1947604171398,-11.679809006615407,-13.998135276765437,-4.943885245813025,51.70000000001164
311875.5807,-19.790968321959664,-11.58022343622887,-14.659190081246937,-6.006956748913973,51.70100000000093
311875.5817,-19.942072220798874,-11.184067602090806,-14.963499939574628,-6.7849768399921935,51.70199999999022
311875.5827,-19.67214041054964,-10.546238643014085,-14.929429110549036,-7.302303998218,51.70300000003772
311875.5837,-19.0150307130281,-9.726648654840158,-14.583771571300186,-7.589547034948614,51.70400000002701
311875.5847,-18.009747644030806,-8.784122990941372,-13.95758785727237,-7.67866697806398,51.7050000000163
311875.5857,-16.696118641710193,-7.770868297809158,-13.082323891778783,-7.598528138441595,51.70600000000559
311875.5867,-15.111244547369912,-6.728043505797911,-11.986626744159047,-7.371355161513675,51.70699999999488
311875.5877,-13.287078955452396,-5.6828471875065425,-10.694181098975342,-7.010447880921831,51.70799999998417
311875.5887,-11.249355191804568,-4.647375242597882,-9.22276690764864,-6.519366867008244,51.709000000031665
311875.5897,-9.0179226435773,-3.6193196434045802,-7.584596101781738,-5.8926437037705774,51.710000000020955
311875.5907,-6.608392125733465,-2.5843901376741467,-5.787839114487566,-5.1179071361621915,51.711000000010245
311875.5917,-4.03483956835355,-1.5201650152479445,-3.8391154216537604,-4.179165545740285,51.711999999999534
311875.5927,-1.3131939976322107,-0.400931645204602,-1.7466104120997192,-3.0608627232221064,51.712999999988824
311875.5937,1.5351477117563397,0.7970231977923627,0.4765948445237151,-1.7522398753996717,51.71400000003632
311875.5947,4.479971782393557,2.090259270310811,2.80942605774176,-0.25150057087765004,51.71500000002561
311875.5957,7.479639185124446,3.4837380503521467,5.220379731241017,1.430709506116745,51.7160000000149
311875.5967,10.479624535526312,4.967589287713591,7.666116104227273,3.2689310527541133,51.71700000000419
311875.5977,13.412495850396153,6.515469326752972,10.09134627269144,5.22194240630047,51.71799999999348
311875.5987,16.199482448180554,8.084731128046705,12.43014653294554,7.233406786370471,51.71899999998277
311875.5997,18.753613022288523,9.618442488636873,14.608683840247021,9.234128694095002,51.72000000003027
311875.6007,20.984238223146292,11.049100718928424,16.549185134688095,11.145769684430263,51.72100000001956
311875.6017,22.80259882295955,12.303717603213778,18.174845421602203,12.885724023651523,51.72200000000885
311875.6027,24.127977294376755,13.30980514945493,19.415258983195244,14.372733176845916,51.72299999999814
311875.6037,24.893890174152823,14.001694699837872,20.21188643712567,15.532736784641212,51.72399999998743
311875.6047,25.053749574006826,14.32657928238448,20.52304531120102,16.30442499721514,51.725000000034925
311875.6057,24.58544834245168,14.249686100809127,20.327936619349607,16.64397620995533,51.726000000024214
311875.6067,23.494403011289712,13.75806141662894,19.629292984969062,16.52853377792253,51.727000000013504
311875.6077,21.814714883453796,12.862576697759742,18.45434880378123,15.958088631603998,51.728000000002794
311875.6087,19.60827094397987,11.597930687548278,16.853979252727523,14.955581029727822,51.728999999992084
311875.6097,16.96178770241056,10.0206110266339,14.900018953217348,13.565199872270757,51.72999999998137
311875.6107,13.98198552307282,8.204972966304204,12.680937246344804,11.849026083887123,51.73100000002887
311875.6117,10.78925094895801,6.237772738370263,10.296199429455443,9.882321263621847,51.73200000001816
311875.6127,7.510283702726567,4.211641776609192,7.849767205763382,7.747889040851907,51.73300000000745
311875.6137,4.270320005803812,2.218090699207224,5.443274887332689,5.530022069102289,51.73399999999674
311875.6147,1.1855652792083355,0.34067865597892255,3.1694522412412214,3.3085839527068237,51.73499999998603
311875.6157,-1.6435470846052471,-1.3510303795728646,1.1063465836306257,1.1537590202464554,51.73600000003353
311875.6167,-4.1377271366318045,-2.806176358575355,-0.6871728708987712,-0.8780647590112092,51.73700000002282
311875.6177,-6.242409132092684,-3.9955550884103253,-2.1742600612411707,-2.746926776846667,51.73800000001211
311875.6187,-7.9292822530516425,-4.9125581818461965,-3.3410673253144343,-4.430231998637213,51.7390000000014
311875.6197,-9.195696817528042,-5.572037074860761,-4.195801289510764,-5.9219555984066945,51.73999999999069
311875.6207,-10.06206248994582,-6.0072244967970825,-4.765984058423007,-7.230242701507357,51.741000000038184
311875.6217,-10.567534102821496,-6.265031194793133,-5.094206645233987,-8.37368843570661,51.742000000027474
311875.6227,-10.764431041537605,-6.400189415986771,-5.232796566531542,-9.376711767260689,51.743000000016764
311875.6237,-10.711943615402289,-6.468822790880749,-5.237916408410301,-10.264524076683282,51.744000000006054
311875.6247,-10.469734423870023,-6.522074398198684,-5.16365597689462,-11.0582315084571,51.74499999999534
311875.6257,-10.092039482849398,-6.600415908062881,-5.056673098665159,-11.770595016178012,51.74599999998463
311875.6267,-9.622813409870835,-6.729191696247043,-4.951878085284846,-12.402905116217145,51.74700000003213
311875.6277,-9.092351380431117,-6.915829432503976,-4.869550212996449,-12.943316122682704,51.74800000002142
311875.6287,-8.515668866958102,-7.14898478861894,-4.8141316820126425,-13.366837975326096,51.74900000001071
311875.6297,-7.892743197916467,-7.399698528930609,-4.774779264822529,-13.637016990823327,51.75
311875.6307,-7.210535960756674,-7.624447749201148,-4.727582226971922,-13.709166263592126,51.75099999998929
311875.6317,-6.446540165135914,-7.769788502167059,-4.639193678875597,-13.53484871488147,51.75200000003679
311875.6327,-5.573447793009778,-7.7781323798003985,-4.47148683190167,-13.067186404306291,51.75300000002608
311875.6337,-4.56442611828113,-7.594089761717264,-4.186750679177127,-12.266481390073508,51.75400000001537
311875.6347,-3.398435144605575,-7.170757934796734,-3.752890588303675,-11.105594865281567,51.75500000000466
311875.6357,-2.065018804326792,-6.475338264888484,-3.1481026746497327,-9.574546363403936,51.755999999993946
311875.6367,-0.5680587750934515,-5.4935322670989875,-2.364545998967492,-7.68386213811677,51.756999999983236
311875.6377,1.0719139713987988,-4.232285164145038,-1.4106379418684196,-5.466314907739337,51.758000000030734
311875.6387,2.8171092129353985,-2.7206055721409905,-0.3117354221181132,-2.9768450844259715,51.75900000002002
311875.6397,4.613658104113872,-1.0083755497006164,0.8908756444341841,-0.29062207618623115,51.76000000000931
311875.6407,6.394495152826526,0.8367418043402118,2.1425938145361556,2.500623023517532,51.7609999999986
311875.6417,8.08368374905424,2.734008554141936,3.379472836231573,5.293701715114138,51.76199999998789
311875.6427,9.601785060381415,4.595490932977898,4.5331719467095635,7.980085173604303,51.76300000003539
311875.6437,10.871767739159159,6.332561629648691,5.5364137175753685,10.45251790039591,51.76400000002468
311875.6447,11.824903371564773,7.862421477187156,6.328429711299568,12.611568796406926,51.76500000001397
311875.6457,12.406094817274102,9.114041465846771,6.859877586247938,14.371570602008982,51.76600000000326
311875.6467,12.578141004967296,10.032989111790435,7.096767138177471,15.665460462125242,51.76699999999255
311875.6477,12.32454649181416,10.58471805426629,7.023031547776772,16.448141581561455,51.76799999998184
311875.6487,11.650626556946092,10.756054681472808,6.641513887352027,16.698127823127688,51.76900000002934
311875.6497,10.58282450018656,10.554795044338956,5.973294399425661,16.417395628914157,51.77000000001863
311875.6507,9.166330628004292,10.007511387878813,5.05544579106995,15.629534832187481,51.771000000007916
311875.6517,7.4612549876137395,9.155841800037088,3.937455824509195,14.37644542636661,51.771999999997206
311875.6527,5.537742200751016,8.051681476893668,2.6766838706862766,12.71395606267376,51.772999999986496
311875.6537,3.470513364312419,6.751795609318485,1.333308350754548,10.706829579399404,51.77400000003399
311875.6547,1.333367528599906,5.31242195612641,-0.03473365340922625,8.423662783502001,51.77500000002328
311875.6557,-0.8058307489158077,3.7844211836335666,-1.376319096638514,5.932178334655436,51.77600000001257
311875.6567,-2.8892099805743516,2.2094662343331657,-2.650783565658988,3.2953473664386683,51.77700000000186
311875.6577,-4.87163393718461,0.6176452445423601,-3.830296179345695,0.5686788278339662,51.77799999999115
311875.6587,-6.7219060123139265,-0.9733022220504862,-4.900755746138172,-2.2011238310935353,51.77900000003865
311875.6597,-8.42237688863304,-2.5570728790024613,-5.86115208824574,-4.976092098902001,51.78000000002794
311875.6607,-9.96706420774682,-4.136349900411831,-6.721494481239789,-7.725618443424039,51.78100000001723
311875.6617,-11.358548568785208,-5.719121206118016,-7.499556449210205,-10.424033259855127,51.78200000000652
311875.6627,-12.604038084692538,-7.314207259917322,-8.216807942652506,-13.047502944662373,51.78299999999581
311875.6637,-13.711080908158056,-8.926530284104132,-8.893989986514454,-15.570695383426417,51.7839999999851
311875.6647,-14.683442669636955,-10.552692488467002,-9.546824745513636,-17.963687463606107,51.785000000032596
311875.6657,-15.51764968178886,-12.17740777181389,-10.182341730240058,-20.189566711194843,51.786000000021886
311875.6667,-16.200630462122295,-13.771251230058146,-10.796239658132585,-22.203107850772287,51.787000000011176
311875.6677,-16.708774254805746,-15.290061276234667,-11.371599262239732,-23.95079199166188,51.788000000000466
311875.6687,-17.008577032269635,-16.676162823086056,-11.8791253723999,-25.372292495722398,51.788999999989755
311875.6697,-17.05887765264584,-17.86139314831835,-12.278940422517481,-26.403391777458843,51.79000000003725
311875.6707,-16.814516198229562,-18.7717232731871,-12.523791652261714,-26.980133437115125,51.79100000002654
311875.6717,-16.231090156024507,-19.333095795757025,-12.563386574897727,-27.04387046497548,51.79200000001583
311875.6727,-15.270357834721601,-19.477962467948696,-12.349450521833546,-26.546757519245528,51.79300000000512
311875.6737,-13.905755162283668,-19.151915485440377,-11.84101838113223,-25.45716524738747,51.79399999999441
311875.6747,-12.127460516489194,-18.319774919264308,-11.009438338624811,-23.76447492898269,51.7949999999837
311875.6757,-9.946466196705822,-16.970524805345853,-9.842582182842092,-21.48274509530988,51.7960000000312
311875.6767,-7.397192807576243,-15.120579966661936,-8.347823216884976,-18.652825759439065,51.79700000002049
311875.6777,-4.538307178297598,-12.815006694778472,-6.553452816650232,-15.342623031730755,51.79800000000978
311875.6787,-1.4515638686327692,-10.12649992001352,-4.508349693199724,-11.645375500049434,51.79899999999907
311875.6797,1.7613302754073383,-7.1521205959923835,-2.279878213485668,-7.675978990453674,51.79999999998836
311875.6807,4.983646754225294,-4.008000673957542,0.04984194340367683,-3.565571662333088,51.801000000035856
311875.6817,8.090011727930834,-0.8224098644506896,2.388998996773745,0.5452497993543716,51.802000000025146
311875.6827,10.953741397426104,2.2722694599990167,4.642063066616557,4.514084978061956,51.803000000014435
311875.6837,13.454556546178692,5.1480099427855475,6.716162063793918,8.204674248279215,51.804000000003725
311875.6847,15.486055827721373,7.6893564072826575,8.527311565496156,11.494520260644935,51.804999999993015
311875.6857,16.962343576211584,9.8007189386279,10.005963350159812,14.28159705510852,51.805999999982305
311875.6867,17.82327928944244,11.412149366213859,11.101400168727531,16.48963373972315,51.8070000000298
311875.6877,18.03793568862892,12.483143522812673,11.784611442157118,18.07158168318833,51.80800000001909
311875.6887,17.606008994363922,13.004187592469103,12.049425520209104,19.011030503214656,51.80900000000838
311875.6897,16.557103881268603,12.995967172915096,11.91183529033347,19.321514164944706,51.80999999999767
311875.6907,14.94799955540207,12.506363453739391,11.40761975069247,19.04382780874503,51.81099999998696
311875.6917,12.858175215534134,11.605552813651421,10.588518721839842,18.24164185889803,51.81200000003446
311875.6927,10.384016771713103,10.379686277358786,9.517346382783495,16.995837253415726,51.81300000002375
311875.6937,7.632228889056458,8.923738912529744,8.262519581343568,15.398081841962025,51.81400000001304
311875.6947,4.713028078245622,7.334176218641171,6.8925204552583965,13.544214695359523,51.81500000000233
311875.6957,1.7336894931169367,5.702080204559395,5.470805956737319,11.527998623212063,51.81599999999162
311875.6967,-1.2070365308946085,4.1073134398282765,4.051620487163479,9.43574308525156,51.81699999998091
311875.6977,-4.023226031504884,2.614181928160161,2.6770679288081585,7.342196319579751,51.818000000028405
311875.6987,-6.644529163180662,1.2688992629972744,1.3756660441934507,5.307967585130697,51.819000000017695
311875.6997,-9.017254601909443,0.09897108823997237,0.16245286363869166,3.3785818209980736,51.820000000006985
311875.7007,-11.103849287424516,-0.8855714365408057,-0.9594434331707893,1.5851054878356292,51.820999999996275
311875.7017,-12.880989526280638,-1.6893390447789336,-1.9960068423024877,-0.05387011117064834,51.821999999985565
311875.7027,-14.336630532543987,-2.3275520712650666,-2.958665531345905,-1.529228394907102,51.82300000003306
311875.7037,-15.466453565914659,-2.8213141464974028,-3.860195319954151,-2.8377391480589687,51.82400000002235
311875.7047,-16.27019425744328,-3.1927506809369595,-4.7106751662708675,-3.9783542639341527,51.82500000001164
311875.7057,-16.74832863653017,-3.4605663964597544,-5.5139645594724325,-4.948852894508919,51.82600000000093
311875.7067,-16.899536117512916,-3.6365151711431047,-6.265113988259228,-5.743246472001666,51.82699999999022
311875.7077,-16.719257620290993,-3.7231648290067585,-6.949018811202126,-6.35025726408006,51.82800000003772
311875.7087,-16.19953280545354,-3.713190904772313,-7.540494074803458,-6.75305566321708,51.82900000002701
311875.7097,-15.330147103589871,-3.5902622152044477,-8.005796459654363,-6.930294671381167,51.8300000000163
311875.7107,-14.100962696384544,-3.331404798843043,-8.30546478737036,-6.8583301491394595,51.83100000000559
311875.7117,-12.505164047891514,-2.9105673835053936,-8.39820794353735,-6.5143777181198015,51.83199999999488
311875.7127,-10.54303286233449,-2.3029775814200315,-8.245453028732769,-5.880245821770548,51.83299999998417
311875.7137,-8.225791548058098,-1.4897870723458975,-7.81608879569071,-4.946210775822647,51.834000000031665
311875.7147,-5.579026497558585,-0.4624653580915225,-7.09090794791998,-3.7145712978488357,51.835000000020955
311875.7157,-2.645226058127419,0.7735807417055269,-6.0662700809063965,-2.2024400732932254,51.836000000010245
311875.7167,0.5149588578717599,2.1966124646472394,-4.756573452015764,-0.44339662623966347,51.836999999999534
311875.7177,3.823007779586787,3.7677202156108645,-3.195232114413785,1.5122673231591384,51.837999999988824
311875.7187,7.184506144710921,5.431715869271947,-1.433994833220853,3.5988421985769605,51.83900000003632
311875.7197,10.49276737442875,7.119756129437679,0.4593999295733654,5.73801393058804,51.84000000002561
311875.7207,13.633899895308287,8.753518578207077,2.4050781824418705,7.8430217717177415,51.8410000000149
311875.7217,16.492966951112255,10.25058907254076,4.316091500779997,9.823846436247134,51.84200000000419
311875.7227,18.960766929948623,11.53058789661532,6.104262885491393,11.593003280350064,51.84299999999348
311875.7237,20.940684415364828,12.521475967728962,7.68631459127112,13.071443823198297,51.84399999998277
311875.7247,22.355035419066244,13.165450436903647,8.989741852604984,14.194044735194167,51.84500000003027
311875.7257,23.150357554515633,13.423864930064228,9.957913949793516,14.91418938067909,51.84600000001956
311875.7267,23.301175324836425,13.280691449567524,10.553950890725439,15.207021082828462,51.84700000000885
311875.7277,22.811895220214623,12.74417107603807,10.763033875496722,15.07106272278421,51.84799999999814
311875.7287,21.716643536335823,11.846466738676938,10.592950215791728,14.528043239565346,51.84899999998743
311875.7297,20.07703700524767,10.641317498147473,10.072834883249456,13.620934155850737,51.850000000034925
311875.7307,17.978055841904276,9.199881982904063,9.250235895666503,12.410362810335682,51.851000000024214
311875.7317,15.52235372855888,7.605130508850049,8.186783505971201,10.969717746124854,51.852000000013504
311875.7327,12.823474005811002,5.945284163791023,6.952869017354587,9.379381272465054,51.853000000002794
311875.7337,9.998533190387482,4.306891079673843,5.621826002182624,7.720602956330693,51.853999999992084
311875.7347,7.160973262661435,2.768166083387802,4.2641465230310995,6.069558015709842,51.85499999998137
311875.7357,4.413969255118938,1.393196167971162,2.9422539843835196,4.4921132772593415,51.85600000002887
311875.7367,1.845010104351346,0.227532819661397,1.7062937467220092,3.039752523962374,51.85700000001816
311875.7377,-0.4779447897537409,-0.7044391526511771,0.5912986632034243,1.7469995007550343,51.85800000000745
311875.7387,-2.508482140819891,-1.4001354559991632,-0.3840505038127884,0.6305315276967197,51.85899999999674
311875.7397,-4.221845814925405,-1.877378016091363,-1.2170068334497128,-0.3099863607588124,51.85999999998603
311875.7407,-5.61324078870852,-2.1711346640817593,-1.9187797128819366,-1.0894818059880624,51.86100000003353
311875.7417,-6.69459334117981,-2.3287321261899208,-2.5112468813728284,-1.733756062271167,51.86200000002282
311875.7427,-7.490167720410887,-2.4040259863468356,-3.0227294964465345,-2.274873859637579,51.86300000001211
311875.7437,-8.031535640180367,-2.4511088395297906,-3.4832905362033952,-2.7461525331175056,51.8640000000014
311875.7447,-8.352441396756113,-2.5181791675280065,-3.9200577414569584,-3.177274457547136,51.86499999999069
311875.7457,-8.484098149490702,-2.642174566458499,-4.353063459687271,-3.590029099413837,51.866000000038184
311875.7467,-8.451391214318688,-2.844695689797275,-4.792036296980831,-3.995123686180259,51.867000000027474
311875.7477,-8.270358408911825,-3.1296191538185343,-5.2344792793046695,-4.39039126504462,51.868000000016764
311875.7487,-7.947176359478834,-3.4826311257189166,-5.665236299674183,-4.760582613961858,51.869000000006054
311875.7497,-7.47871942650058,-3.872724541332459,-6.0575961864943215,-5.078768027646288,51.86999999999534
311875.7507,-6.854590724797375,-4.25551019327936,-6.3758268506453035,-5.30921213267452,51.87099999998463
311875.7517,-6.0603692074854445,-4.578013977262675,-6.578886131990381,-5.411435514257291,51.87200000003213
311875.7527,-5.081688342065996,-4.784486625576635,-6.624935527708055,-5.345055660773309,51.87300000002142
311875.7537,-3.9086731955707807,-4.822652414976483,-6.476199777722443,-5.074918400328356,51.87400000001071
311875.7547,-2.540222468720318,-4.649779242082967,-6.103677456115564,-4.57599756427229,51.875
311875.7557,-0.987634070851462,-4.2379683189735795,-5.491218942414483,-3.8375583384988343,51.87599999998929
311875.7567,0.7228640836891479,-3.578135928368041,-4.638547258895782,-2.8661469341429284,51.87700000003679
311875.7577,2.5490085945096492,-2.682284896809587,-3.5628983803434364,-1.687079280867272,51.87800000002608
311875.7587,4.433009234077651,-1.5838274481870436,-2.299090741175846,-0.3442436912871933,51.87900000001537
311875.7597,6.303699045051533,-0.3359078903841326,-0.8979856330437039,1.1018069948002414,51.88000000000466
311875.7607,8.08018790306651,0.99213501636156,0.5765439810069559,2.5773350351246593,51.880999999993946
311875.7617,9.676728983217458,2.3198487414210063,2.051874349578362,4.000180374131449,51.881999999983236
311875.7627,11.008382821212718,3.5618271673154953,3.4517409122896057,5.2853950821805915,51.883000000030734
311875.7637,11.996979141611845,4.634385648121795,4.701735312217304,6.3512557715607745,51.88400000002002
311875.7647,12.57684072487603,5.462140036398408,5.734691065100687,7.125124815274411,51.88500000000931
311875.7657,12.699749865545835,5.9838914907032805,6.495471759502487,7.548646587543852,51.8859999999986
311875.7667,12.338704826744198,6.157289003457691,6.944735082146361,7.581829291259143,51.88699999998789
311875.7677,11.490124508764714,5.96186192829722,7.061346503390312,7.205669707229673,51.88800000003539
311875.7687,10.1743033717774,5.400173263077643,6.843248031030716,6.423116734684742,51.88900000002468
311875.7697,8.434081293571094,4.497025319172653,6.306736932827,5.258326172522339,51.89000000001397
311875.7707,6.331858486220722,3.2968348398770475,5.484261910403792,3.7543184026750986,51.89100000000326
311875.7717,3.94523759191112,1.859466447700601,4.420984809643871,1.9692969022988593,51.89199999999255
311875.7727,1.361698758891669,0.25495478675878763,3.170470756361809,-0.027995372875291934,51.89299999998184
311875.7737,-1.327203155042481,-1.4423567370460797,1.7899474048575015,-2.1634241560734866,51.89400000002934
311875.7747,-4.03159507664006,-3.1596883267877893,0.33560728614576324,-4.362624594149501,51.89500000001863
311875.7757,-6.668488194812765,-4.831147637157856,-1.141587012922737,-6.555697160621891,51.896000000007916
311875.7767,-9.165984708997668,-6.4020133731136095,-2.599195246040071,-8.681023087640828,51.896999999997206
311875.7777,-11.466155816509746,-7.8316028915348355,-4.0053896824796,-10.687885783376533,51.897999999986496
311875.7787,-13.526398184944261,-9.094500100010743,-5.339672571616994,-12.537716642298703,51.89900000003399
311875.7797,-15.319233831591639,-10.180092598106235,-6.592196161770079,-14.20393184753038,51.90000000002328
311875.7807,-16.830677505036242,-11.090542799664407,-7.761808052003826,-15.670476087896455,51.90100000001257
311875.7817,-18.057440312981484,-11.837479000179632,-8.85307907337388,-16.92932439454638,51.90200000000186
311875.7827,-19.003353915644777,-12.437822809808315,-9.87267866243145,-17.977300830653178,51.90299999999115
311875.7837,-19.675474477321085,-12.909255972987696,-10.825532892055604,-18.812641658698738,51.90400000003865
311875.7847,-20.08035219253338,-13.265863663877523,-11.71122577697956,-19.431753893819103,51.90500000002794
311875.7857,-20.220927868467523,-13.514469478762189,-12.521082433007459,-19.826595469722093,51.90600000001723
311875.7867,-20.094445159780268,-13.652101748814134,-13.236305125475257,-19.983033083947305,51.90700000000652
311875.7877,-19.69165291116174,-13.664909069963668,-13.827426721365821,-19.880425240199568,51.90799999999581
311875.7887,-18.997428137321613,-13.528687334486262,-14.255210996699955,-19.492542050873606,51.9089999999851
311875.7897,-17.992790974722848,-13.211006725562699,-14.472978971141758,-18.789783788768208,51.910000000032596
311875.7907,-16.658124602063214,-12.674752654029815,-14.430189851736579,-17.742512200382038,51.911000000021886
311875.7917,-14.977271791500828,-11.882737167041089,-14.076969290445273,-16.32517734891575,51.912000000011176
311875.7927,-12.942069979949391,-10.802913016548393,-13.369170155905833,-14.52082179121499,51.913000000000466
311875.7937,-10.556820066685876,-9.413644203638365,-12.273482838156706,-12.325483823242529,51.913999999989755
311875.7947,-7.842167890975016,-7.708462780190173,-10.772090400761032,-9.75200897494477,51.91500000003725
311875.7957,-4.837913930660543,-5.6997750230161355,-8.866391314361806,-6.832815861143064,51.91600000002654
311875.7967,-1.6043534027693898,-3.4210681728104957,-6.579386913221365,-3.6212459954681147,51.91700000001583
311875.7977,1.7781221008391614,-0.9273037039621133,-3.9564453851613046,-0.19124974008683393,51.91800000000512
311875.7987,5.21127101578046,1.7066481438535523,-1.0642983566699475,3.364689207433826,51.91899999999441
311875.7997,8.583031243471984,4.389491229896611,2.0117136397658935,6.939324704234701,51.9199999999837
311875.8007,11.773094478645737,7.018675997774931,5.171969560424861,10.41588685281835,51.9210000000312
311875.8017,14.659632319122037,9.486865716050422,8.30814652554975,13.67441720839198,51.92200000002049
311875.8027,17.126659456532806,11.689167389184984,11.309607566551836,16.59871731954707,51.92300000000978
311875.8037,19.071443150791154,13.530513194507359,14.07007967611829,19.083358428123425,51.92399999999907
311875.8047,20.411345489352954,14.932550135303162,16.494073469814047,21.040181162357545,51.92499999998836
311875.8057,21.089518494462293,15.839427637860863,18.502516518789403,22.403747436690228,51.926000000035856
311875.8067,21.07895950081632,16.22196259424901,20.037142027381485,23.135289915700042,51.927000000025146
311875.8077,20.384567779052837,16.07980082530122,21.063286509941424,23.224829940507504,51.928000000014435
311875.8087,19.04301108178458,15.441370248371246,21.570893896439994,22.69129129915197,51.929000000003725
311875.8097,17.120397276659148,14.361617713511022,21.573685427867805,21.580610179957652,51.929999999993015
311875.8107,14.707934277215726,12.917720015986056,21.106619394082752,19.96201496797973,51.930999999982305
311875.8117,11.915933630877113,11.203141238419507,20.221916549542645,17.922807013428095,51.9320000000298
311875.8127,8.866653357003164,9.320556105405775,18.98405149107829,15.562100353937833,51.93300000001909
311875.8137,5.686570904100896,7.374258441214831,17.46419561620875,12.98406272381959,51.93400000000838
311875.8147,2.498718601106559,5.462715670390696,15.734635512998707,10.291234178562059,51.93499999999767
311875.8157,-0.5843020196581185,3.6719106431364605,13.863678349559732,7.578480246700142,51.93599999998696
311875.8167,-3.466082440782498,2.070032831842427,11.91149452943021,4.928065742448557,51.93700000003446
311875.8177,-6.0705219254791665,0.7039497602178081,9.927243820832423,2.406220193470587,51.93800000002375
311875.8187,-8.344028633812357,-0.402281012376001,7.947694770749642,0.06141746572981631,51.93900000001304
311875.8197,-10.255720803122934,-1.2467925728958589,5.997392031479638,-2.0755750300591758,51.94000000000233
311875.8207,-11.795726603851543,-1.8473132499708504,4.090267616285002,-3.9899920509986613,51.94099999999162
311875.8217,-12.971853653022466,-2.2369099672613304,2.2324457184039526,-5.679981886684436,51.94199999998091
311875.8227,-13.805042796964672,-2.458536899800707,0.42587099017883856,-7.152531731300324,51.943000000028405
311875.8237,-14.324122300981543,-2.5589614376477288,-1.3276911543242702,-8.418892305771731,51.944000000017695
311875.8247,-14.560428774630422,-2.5826888409410778,-3.0227686318121085,-9.490025005700172,51.945000000006985
311875.8257,-14.542855786534204,-2.5664958782212475,-4.64688287068864,-10.372580695231484,51.945999999996275
311875.8267,-14.293831338260812,-2.535113640653932,-6.1782439035036925,-11.065854684645567,51.946999999985565
311875.8277,-13.826617577573385,-2.4984777835362455,-7.584744501634932,-11.560054091769738,51.94800000003306
311875.8287,-13.144181345307798,-2.4508028186060593,-8.824421424911757,-11.836072610302198,51.94900000002235
311875.8297,-12.23971688938768,-2.3715517201836933,-9.847397992535756,-11.866807774892951,51.95000000001164
311875.8307,-11.098728954103665,-2.228181209675333,-10.599165827527308,-11.619892990020201,51.95100000000093
311875.8317,-9.702422536446113,-1.9803653090619784,-11.024920359341378,-11.061566973338238,51.95199999999022
311875.8327,-8.03201076637395,-1.5852524196977538,-11.074548783182069,-10.161281606574553,51.95300000003772
311875.8337,-6.073457741436066,-1.0032085729088809,-10.70779227945831,-8.896567458117218,51.95400000002701
311875.8347,-3.822127836373213,-0.20345148190984688,-9.899074175705257,-7.257642464190541,51.9550000000163
311875.8357,-1.2868212257837162,0.8310089028987735,-8.641505577333914,-5.251266729052842,51.95600000000559
311875.8367,1.5072639831478083,2.0996387770014686,-6.94964808734697,-2.903413389665374,51.95699999999488
311875.8377,4.5169957719584755,3.5822535773204995,-4.860723122210963,-0.26043538743598355,51.95799999998417
311875.8387,7.681408940197715,5.238733032924741,-2.4340984431742005,2.6114500072535916,51.959000000031665
311875.8397,10.923489796370045,7.0106337628306,0.2509587892404067,5.628376912155074,51.960000000020955
311875.8407,14.15352401139054,8.824568232554126,3.0991122615470132,8.692602191425935,51.961000000010245
311875.8417,17.273730806172463,10.597045433570761,6.004072470150201,11.697538775806313,51.961999999999534
311875.8427,20.18377819308058,12.240325650116798,8.854581221858831,14.53363631769366,51.962999999988824
311875.8437,22.786685907692643,13.668743205550797,11.5407673731139,17.094613580960043,51.96400000003632
311875.8447,24.994583713384245,14.804906790535668,13.960343685842316,19.283513874139057,51.96500000002561
311875.8457,26.733806796444366,15.585201143305486,16.024132361977927,21.018072817114586,51.9660000000149
311875.8467,27.948875565548683,15.964084951160192,17.66047328370635,22.234954941253406,51.96700000000419
311875.8477,28.605017745955703,15.916800691525731,18.818177726444663,22.892525356974694,51.96799999999348
311875.8487,28.68903512894413,15.440270605155915,19.467830666536877,22.971964071828385,51.96899999998277
311875.8497,28.208481201847746,14.552133222840817,19.601402996667687,22.476689463207563,51.97000000003027
311875.8507,27.18928266833574,13.288058807476821,19.230295436069618,21.430218110763768,51.97100000001956
311875.8517,25.672090757739177,11.697651301976403,18.382082877553444,19.872734696718215,51.97200000000885
311875.8527,23.707771739318396,9.83938191950608,17.096346853974804,17.85676341262523,51.97299999999814
311875.8537,21.352527614517516,7.77509155179758,15.420062979227563,15.442409552655786,51.97399999998743
311875.8547,18.663169130132214,5.564636411798459,13.403041782449458,12.692669047296846,51.975000000034925
311875.8557,15.693040635589442,3.2612299478209192,11.093902172657401,9.669281737920215,51.976000000024214
311875.8567,12.489021890625327,0.9079561156806844,8.53698874490988,6.429533477194295,51.977000000013504
311875.8577,9.089912938716434,-1.4641976940500165,5.7705340426700085,3.0242998490094846,51.978000000002794
311875.8587,5.526356366169699,-3.836602736617844,2.8262257287258894,-0.5025181540222712,51.978999999992084
311875.8597,1.8222818425602694,-6.201543434665496,-0.2698194410950541,-4.113174261530735,51.97999999998137
311875.8607,-2.002312118620854,-8.559245915538334,-3.494831948072625,-7.774038200482793,51.98100000002887
311875.8617,-5.927577400226777,-10.913728962270916,-6.826217026208409,-11.452644247412591,51.98200000001816
311875.8627,-9.929495267253833,-13.267958201460605,-10.237848008702281,-15.114242551132902,51.98300000000745
311875.8637,-13.975548969453573,-15.618868619188484,-13.696311975933387,-18.71833503303074,51.98399999999674
311875.8647,-18.02094517838633,-17.95284755766548,-17.15761619683656,-22.21569357219753,51.98499999998603
311875.8657,-22.005903912244783,-20.24223679210296,-20.564833082974296,-25.546321317692335,51.98600000003353
311875.8667,-25.854446614408726,-22.44332072938307,-23.847080034724385,-28.638731283055897,51.98700000002282
311875.8677,-29.47497556094908,-24.496126619806443,-26.920105925785315,-31.4107878597832,51.98800000001211
311875.8687,-32.762767407716254,-26.326185354973198,-29.688599701130165,-33.772198825758494,51.9890000000014
311875.8697,-35.604315597093276,-27.848205085600046,-32.05016359046363,-35.628573225668845,51.98999999999069
311875.8707,-37.883268646995575,-28.971413737909185,-33.90072054844982,-36.88679118137561,51.991000000038184
311875.8717,-39.4875423767672,-29.606149922706596,-35.14096973215498,-37.46128221168262,51.992000000027474
311875.8727,-40.317050650439604,-29.67114237967165,-35.68338068562315,-37.280694227528244,51.993000000016764
311875.8737,-40.2914147783946,-29.100830171246493,-35.459139020088436,-36.29436799086769,51.994000000006054
311875.8747,-39.35698528255127,-27.85204863804135,-34.42443212682878,-34.478018992949025,51.99499999999534
311875.8757,-37.49254478132445,-25.909443119760635,-32.565496127218225,-31.83807269444635,51.99599999998463
311875.8767,-34.71315490297827,-23.28907088968296,-29.901932694415972,-28.414196651233862,51.99700000003213
311875.8777,-31.071755320374276,-20.039802920844085,-26.487939135183826,-24.27971577731553,51.99800000002142
311875.8787,-26.65830620517012,-16.242327104289412,-22.411265159362674,-19.539771988031966,51.99900000001071
311875.8797,-21.596469899157615,-12.005765636272931,-17.789899581155034,-14.327280631211773,52.0
311875.8807,-16.038034548894785,-7.4621316058608596,-12.766682291472748,-8.796925695166601,52.00099999998929
311875.8817,-10.155472689523647,-2.7590432526667787,-7.502213400523313,-3.1176060676692696,52.00200000003679
311875.8827,-4.133183668785428,1.948729439101755,-2.1665760599643065,2.536119852629113,52.00300000002608
311875.8837,1.8419240234314873,6.508207043391275,3.0695112988133855,7.992956794268549,52.00400000001537
311875.8847,7.5898057921027045,10.776911019103828,8.043452886082381,13.093497100479757,52.00500000000466
311875.8857,12.945918690821944,14.630645059455697,12.608797062410083,17.697909631065766,52.005999999993946
311875.8867,17.768508341695522,17.969737989191835,16.641945716843818,21.692139885604956,52.006999999983236
311875.8877,21.944058105262933,20.72328151780877,20.047096741024195,24.992200687574456,52.008000000030734
311875.8887,25.390583243719984,22.851080534267318,22.759124248124134,27.54630108527635,52.00900000002002
311875.8897,28.058647197496608,24.343242002335373,24.744283912462407,29.33474940600532,52.01000000000931
311875.8907,29.9301776761322,25.217541056239867,25.998819574806802,30.367757036165603,52.0109999999986
311875.8917,31.015348128743767,25.51489946115617,26.545724390055003,30.681444783768214,52.01199999998789
311875.8927,31.347947807711886,25.293473680460973,26.430058893250205,30.332497495091538,52.01300000003539
311875.8937,30.979776673004118,24.621962281144032,25.713335884432496,29.39201195227118,52.01400000002468
311875.8947,29.97465987408757,23.572795065509506,24.467538574452256,27.939129328655607,52.01500000001397
311875.8957,28.402675955048554,22.21585472127476,22.769339591197795,26.055033126244982,52.01600000000326
311875.8967,26.33513450667588,20.613307739651933,20.695035206216556,23.81782851393992,52.01699999999255
311875.8977,23.840729602829306,18.815992691653772,18.316607739740874,21.298706498251402,52.01799999998184
311875.8987,20.983146772990178,16.861643744527115,15.699190369897469,18.559648056768072,52.01900000002934
311875.8997,17.820228955996136,14.775032559318943,12.900046849820614,15.65275425608043,52.02000000001863
311875.9007,14.40462849950325,12.569911734791946,9.969010350403023,12.62111533446988,52.021000000007916
311875.9017,10.785705889803227,10.252457448323591,6.950167691263478,9.50097185090826,52.021999999997206
311875.9027,7.012298240708382,7.82575606994597,3.8844433084364476,6.324789940783617,52.022999999986496
311875.9037,3.1358853741516404,5.294774190003842,0.812644429990855,3.1247831738605347,52.02400000003399
311875.9047,-0.7863620013235417,2.671203882437854,-2.2215158875901966,-0.06362600072450393,52.02500000002328
311875.9057,-4.689154791891386,-0.022410395583868908,-5.168893786956545,-3.198898190882269,52.02600000001257
311875.9067,-8.497714177456942,-2.749781731654738,-7.9733050122280185,-6.2314495404811385,52.02700000000186
311875.9077,-12.127776955496534,-5.459617872942785,-10.571144351632643,-9.103021266178928,52.02799999999115
311875.9087,-15.48714720752842,-8.086207594009554,-12.892409758512414,-11.74751863641955,52.02900000003865
311875.9097,-18.478792427044844,-10.551886620769109,-14.863148459323188,-14.093328815750171,52.03000000002794
311875.9107,-21.005307567898925,-12.771217197101798,-16.409179843129603,-16.066961715778206,52.03100000001723
311875.9117,-22.974410417166517,-14.656534164318995,-17.460799790993292,-17.597707124746165,52.03200000000652
311875.9127,-24.305002688745898,-16.1243621973649,-17.958048718850176,-18.622880238280146,52.03299999999581
311875.9137,-24.93324668666351,-17.10210837359706,-17.856043639513253,-19.093148657192444,52.0339999999851
311875.9147,-24.81807637248795,-17.53439164503166,-17.129841702702144,-18.977405172787755,52.035000000032596
311875.9157,-23.945588013431152,-17.388390498060225,-15.778322823898508,-18.266675479051013,52.036000000021886
311875.9167,-22.331837469095287,-16.657670486035567,-13.826650820683659,-16.97662629927913,52.037000000011176
311875.9177,-20.023701296011552,-15.364086853747054,-11.32698949481785,-15.148360165687878,52.038000000000466
311875.9187,-17.09762512630942,-13.557531392612026,-8.357301402947282,-12.847336723255916,52.038999999989755
311875.9197,-13.656269508998491,-11.313490277073148,-5.01822829844365,-10.160432155801624,52.04000000003725
311875.9207,-9.82325279391692,-8.728581919407674,-1.428227023899942,-7.191321546054911,52.04100000002654
311875.9217,-5.736364528954647,-5.9144313537705235,2.282703821406053,-4.054526880799104,52.04200000001583
311875.9227,-1.5397644725877464,-2.9903922571199026,5.980238425070778,-0.8686006432479408,52.04300000000512
311875.9237,2.6242220274533,-0.07573455113005229,9.533320542276599,2.251000909568519,52.04399999999441
311875.9247,6.6230612236054975,2.7180356538035753,12.821543201709463,5.198767858353063,52.0449999999837
311875.9257,10.341088745448099,5.294070855871904,15.74172635232004,7.885144990045823,52.0460000000312
311875.9267,13.68515285238879,7.575713870703753,18.213175264050182,10.241207729377768,52.04700000002049
311875.9277,16.588395557150605,9.510217617671849,20.181217447212397,12.221634967769957,52.04800000000978
311875.9287,19.011910178495263,11.070374529730513,21.618767142807833,13.805762304489432,52.04899999999907
311875.9297,20.944203043949525,12.253972410828858,22.525839793683396,14.996672843065781,52.04999999998836
311875.9307,22.39858140759202,13.081194904883054,22.927118006367856,15.818459221048645,52.051000000035856
311875.9317,23.408770919973172,13.590272796671623,22.867838548059442,16.311953223545103,52.052000000025146
311875.9327,24.023217255668616,13.831849167721506,22.40841122701719,16.529352765874837,52.053000000014435
311875.9337,24.298633786394902,13.862632130404185,21.61828205795505,16.528267732108006,52.054000000003725
311875.9347,24.29341078413406,13.738963168873575,20.569605783036387,16.365747706216922,52.054999999993015
311875.9357,24.061497044228105,13.510922275521658,19.331292211687813,16.092842490003335,52.055999999982305
311875.9367,23.647303126722058,13.217524316104324,17.96393770031729,15.750182124688745,52.0570000000298
311875.9377,23.082063177198844,12.88344144739973,16.516053183642896,15.364953593187169,52.05800000001909
311875.9387,22.381940846793384,12.51752612293452,15.021863692505047,14.949507492516387,52.05900000000838
311875.9397,21.547989185599004,12.113224325519862,13.500794861863474,14.50166399686612,52.05999999999767
311875.9407,20.567891717486532,11.650777532528187,11.958595230306608,14.006619495549518,52.06099999998696
311875.9417,19.419239903312576,11.100933412068226,10.38988537587269,13.44019976952689,52.06200000003446
311875.9427,18.073957333513444,10.429736861050241,8.781791293882433,12.773077518253798,52.06300000002375
311875.9437,16.503376923926428,9.603869146728638,7.118222557649166,11.975483723705405,52.06400000001304
311875.9447,14.68342367025612,8.595953536321183,5.384304637796964,11.021902018311891,52.06500000000233
311875.9457,12.599356683924336,7.389255388658445,3.5704736384315456,9.895246412323797,52.06599999999162
311875.9467,10.249579404883217,5.981271871211354,1.6757900153160887,8.590083841624402,52.06699999998091
311875.9477,7.648129895710492,4.385824187698505,-0.289879925893912,7.114567509115345,52.068000000028405
311875.9487,4.8256031523289815,2.6334214070969053,-2.305039592773122,5.49088414459971,52.069000000017695
311875.9497,1.8284200601025784,0.7698438535280062,-4.337172185757068,3.754174153964689,52.070000000006985
311875.9507,-1.2834734857423178,-1.1469224668507145,-6.344709424429705,1.9500424327673318,52.070999999996275
311875.9517,-4.440235620154116,-3.0510991800832534,-8.280139349572865,0.13092341855990516,52.071999999985565
311875.9527,-7.566712328677669,-4.8744363997784905,-10.093914040691061,-1.648317859043916,52.07300000003306
311875.9537,-10.587510368490403,-6.551906605500275,-11.738734585308256,-3.335088211405058,52.07400000002235
311875.9547,-13.432049635841013,-8.027196784107186,-13.173751496077575,-4.883580195742343,52.07500000001164
311875.9557,-16.039093698106356,-9.257441920437795,-14.36822776233885,-6.258624360607133,52.07600000000093
311875.9567,-18.36031667564254,-10.216717075588443,-15.304267741175996,-7.438474014033013,52.07699999999022
311875.9577,-20.36256884321936,-10.897928351887897,-15.978312290291942,-8.416225657841494,52.07800000003772
311875.9587,-22.02864137952753,-11.312902741187893,-16.401228923563345,-9.199717885480302,52.07900000002701
311875.9597,-23.356488415461566,-11.490657258243901,-16.59697219357276,-9.80990785065568,52.0800000000163
311875.9607,-24.35702577144016,-11.474010868696043,-16.59993901986285,-10.277881657214188,52.08100000000559
311875.9617,-25.050774069733976,-11.314870236091279,-16.45128101705097,-10.640797350835603,52.08199999999488
311875.9627,-25.463734132112485,-11.068655463200523,-16.19454697904189,-10.937172215737073,52.08299999998417
311875.9637,-25.622962445578285,-10.788421206138187,-15.871102116392969,-11.201998285584622,52.084000000031665
311875.9647,-25.55234579400726,-10.519262748737514,-15.51579877030855,-11.462193891957437,52.085000000020955
311875.9657,-25.269053601856893,-10.293572229786326,-15.153353033073605,-11.732872005287929,52.086000000010245
311875.9667,-24.781076038141567,-10.12762940831646,-14.79581475221414,-12.014830443719053,52.086999999999534
311875.9677,-24.086142447888815,-10.01988191472611,-14.441411246981287,-12.293551945813928,52.087999999988824
311875.9687,-23.172169532335715,-9.9511044806136,-14.074908250812319,-12.539854972630586,52.08900000003632
311875.9697,-22.019226439990792,-9.886441372184532,-13.669478669140092,-12.71217329934301,52.09000000002561
311875.9707,-20.602840900876195,-9.779149374449148,-13.189915949025472,-12.760279967712997,52.0910000000149
311875.9717,-18.89832324635117,-9.57568859822801,-12.59688960703871,-12.630125032036359,52.09200000000419
311875.9727,-16.885668643192894,-9.221671917736984,-11.851829803879708,-12.269341239190624,52.09299999999348
311875.9737,-14.554524194873602,-8.668094542585338,-10.921957074727741,-11.63289886653991,52.09399999998277
311875.9747,-11.908684602519335,-7.877232038375559,-9.784949817166813,-10.688367819020328,52.09500000003027
311875.9757,-8.969610725665301,-6.827621507797711,-8.432768659244362,-9.420274330019469,52.09600000001956
311875.9767,-5.77854723672954,-5.51762427340336,-6.874231207344913,-7.833118679117698,52.09700000000885
311875.9777,-2.3969411377876524,-3.9672013033344347,-5.136046006137017,-5.952741818439353,52.09799999999814
311875.9787,1.0949796518618249,-2.217701999616065,-3.262159863985121,-3.8258811145546923,52.09899999998743
311875.9797,4.60143420384628,-0.3296564474302077,-1.3114340379812468,-1.517923955691758,52.100000000034925
311875.9807,8.015915379333489,1.6212475625656795,0.6461734785456145,0.8909634781647834,52.101000000024214
311875.9817,11.22725074774339,3.54964704026307,2.5345958998350495,3.311002688266209,52.102000000013504
311875.9827,14.126408106329421,5.366949520064119,4.2773753791900395,5.648813640293864,52.103000000002794
311875.9837,16.613476103019853,6.988152535668025,5.803594462927395,7.813740266538821,52.103999999992084
311875.9847,18.604223339510988,8.338410755314374,7.053478309099928,9.723932715338831,52.10499999998137
311875.9857,20.0356680681696,9.35874818703236,7.983149442207128,11.311653004206223,52.10600000002887
311875.9867,20.870172821411245,10.010394234864881,8.56809108485454,12.527345967146218,52.10700000001816
311875.9877,21.09770648435883,10.277353752301655,8.804992054106359,13.342135922103243,52.10800000000745
311875.9887,20.736078447931952,10.166989857416631,8.71179483879693,13.748559823111798,52.10899999999674
311875.9897,19.82913026584805,9.708587777997188,8.32593470872898,13.759515227306105,52.10999999998603
311875.9907,18.443052561531477,8.950059981074219,7.7009257410931165,13.405569960055017,52.11100000003353
311875.9917,16.661161487807618,7.953128662045515,6.901603464593393,12.730933577094707,52.11200000002282
311875.9927,14.577604025352969,6.787464249882016,5.9984587271991625,11.788513777408703,52.11300000001211
311875.9937,12.290552030699402,5.524354093984282,5.061581443174559,10.634561936885543,52.1140000000014
311875.9947,9.895482690143169,4.230514698705859,4.154768021674213,9.323443137167235,52.11499999999069
311875.9957,7.479124473235479,2.9626400320840767,3.3303291543780316,7.9030445493443,52.116000000038184
311875.9967,5.114574807479721,1.7631997021655033,2.6250668844021225,6.411264045613826,52.117000000027474
311875.9977,2.857975749852956,0.6578719891099167,2.0577779905681837,4.873905641711566,52.118000000016764
311875.9987,0.7469786816733343,-0.3451694179127683,1.628495431261814,3.3041612504720534,52.119000000006054
311875.9997,-1.19894633661728,-1.254083191746033,1.3195148321168213,1.7036938139734368,52.11999999999534
311876.0007,-2.976479367801107,-2.0904603653486,1.098084558918612,0.06517144799380013,52.12099999998463
311876.0017,-4.594984564552069,-2.885027496877541,0.920481908844104,-1.624047837009703,52.12200000003213
311876.0027,-6.072030348055698,-3.6724237366851264,0.7370692687211977,-3.377501086021143,52.12300000002142
311876.0037,-7.428407842411521,-4.485615041484144,0.4978349505379725,-5.204972884500639,52.12400000001071
311876.0047,-8.683198915914318,-5.350544799756414,0.15788219781689627,-7.108140857038028,52.125
311876.0057,-9.849429245387698,-6.28159602083742,-0.31765971287194555,-9.077014372075489,52.12599999998929
311876.0067,-10.930772522722165,-7.2783582955855985,-0.949767548824056,-11.087590757392707,52.12700000003679
311876.0077,-11.919656385570091,-8.324060977523024,-1.7430596171224066,-13.101034125256312,52.12800000002608
311876.0087,-12.79697053438458,-9.385865419057632,-2.6849560526457315,-15.064530945272152,52.12900000001537
311876.0097,-13.533407837727806,-10.417020259795892,-3.7465261992328607,-16.91380850516929,52.13000000000466
