TimeStamp,ECR,FCR,ECU,FCU
312756.3437,-11023.86,-699.23,-1421.36,-4073.19
312756.3447,-10909.08,-589.66,-1328.33,-3964.62
312756.3457,-10781.72,-473.93,-1215.98,-3848.17
312756.3467,-10652.64,-358.82,-1089.43,-3727.63
312756.3477,-10548.93,-263.07,-991.82,-3630.83
312756.3487,-10503.29,-223.3,-949.0,-3592.35
312756.3497,-10506.58,-231.55,-956.39,-3606.99
312756.3507,-10536.43,-261.55,-996.88,-3642.94
312756.3517,-10597.18,-318.96,-1069.16,-3703.31
312756.3527,-10675.34,-393.82,-1151.75,-3785.71
312756.3537,-10770.18,-482.03,-1242.59,-3880.64
312756.3547,-10893.82,-588.56,-1368.0,-3995.85
312756.3557,-11018.85,-695.04,-1485.82,-4105.19
312756.3567,-11139.73,-798.65,-1571.61,-4208.28
312756.3577,-11248.07,-890.78,-1656.58,-4300.31
312756.3587,-11307.72,-938.61,-1710.03,-4347.75
312756.3597,-11326.74,-945.52,-1732.92,-4349.52
312756.3607,-11301.42,-919.77,-1704.79,-4319.38
312756.3617,-11236.29,-864.51,-1617.62,-4258.59
312756.3627,-11140.3,-780.77,-1522.64,-4170.47
312756.3637,-11026.0,-677.78,-1441.53,-4062.51
312756.3647,-10897.73,-559.38,-1308.87,-3934.81
312756.3657,-10780.48,-461.29,-1150.18,-3823.14
312756.3667,-10692.07,-394.77,-1072.07,-3752.33
312756.3677,-10593.84,-323.34,-999.88,-3676.37
312756.3687,-10524.85,-271.75,-946.76,-3631.78
312756.3697,-10497.86,-248.38,-925.49,-3616.67
312756.3707,-10501.62,-251.2,-930.98,-3622.01
312756.3717,-10524.32,-268.98,-962.59,-3649.57
312756.3727,-10594.37,-320.24,-1040.89,-3711.37
312756.3737,-10729.46,-432.68,-1173.02,-3825.38
312756.3747,-10890.2,-573.3,-1310.83,-3965.04
312756.3757,-11034.59,-705.39,-1438.19,-4097.51
312756.3767,-11145.4,-814.91,-1550.87,-4203.51
312756.3777,-11225.08,-886.87,-1635.65,-4279.8
312756.3787,-11264.52,-917.05,-1671.12,-4312.04
312756.3797,-11282.02,-924.78,-1676.32,-4321.05
312756.3807,-11292.27,-924.78,-1672.46,-4314.47
312756.3817,-11222.22,-859.88,-1597.02,-4246.14
312756.3827,-11113.74,-757.74,-1499.61,-4146.67
312756.3837,-10988.48,-644.06,-1380.25,-4030.94
312756.3847,-10889.2,-557.18,-1292.51,-3940.77
312756.3857,-10793.21,-477.65,-1214.7,-3852.18
312756.3867,-10688.35,-385.57,-1136.35,-3756.71
312756.3877,-10587.88,-298.93,-1077.75,-3670.22
312756.3887,-10522.32,-241.14,-1033.97,-3618.1
312756.3897,-10487.51,-209.05,-990.01,-3593.54
312756.3907,-10479.26,-209.76,-974.37,-3595.11
312756.3917,-10545.73,-278.85,-1022.2,-3663.92
312756.3927,-10664.04,-395.68,-1080.94,-3775.55
312756.3937,-10762.22,-493.96,-1154.71,-3873.87
312756.3947,-10869.08,-595.62,-1291.85,-3986.36
312756.3957,-10982.32,-698.04,-1424.84,-4090.45
312756.3967,-11096.91,-792.84,-1530.84,-4186.87
312756.3977,-11202.81,-881.86,-1633.45,-4278.28
312756.3987,-11255.55,-924.21,-1676.32,-4319.76
312756.3997,-11265.14,-924.06,-1670.07,-4319.57
312756.4007,-11256.41,-906.09,-1669.36,-4299.97
312756.4017,-11209.54,-854.3,-1624.06,-4242.9
312756.4027,-11112.79,-757.89,-1530.6,-4143.33
312756.4037,-11011.98,-662.33,-1443.86,-4044.58
312756.4047,-10907.46,-572.54,-1351.69,-3948.88
312756.4057,-10799.84,-483.27,-1240.92,-3854.32
312756.4067,-10698.32,-393.96,-1139.35,-3763.87
312756.4077,-10594.85,-304.65,-1052.24,-3681.56
312756.4087,-10536.53,-256.59,-1002.17,-3638.94
312756.4097,-10516.93,-242.76,-958.73,-3626.39
312756.4107,-10516.93,-246.1,-949.48,-3635.55
312756.4117,-10556.6,-289.01,-998.69,-3684.24
312756.4127,-10650.83,-375.89,-1096.3,-3775.31
312756.4137,-10758.4,-471.88,-1197.0,-3868.77
312756.4147,-10855.87,-562.24,-1298.24,-3956.13
312756.4157,-10972.12,-666.95,-1414.97,-4063.42
312756.4167,-11098.72,-783.54,-1522.68,-4184.58
312756.4177,-11216.64,-880.24,-1617.77,-4284.81
312756.4187,-11277.25,-928.26,-1676.66,-4334.4
312756.4197,-11260.75,-924.87,-1678.32,-4324.06
312756.4207,-11223.79,-889.54,-1652.62,-4288.63
312756.4217,-11173.49,-838.85,-1597.31,-4235.13
312756.4227,-11106.44,-773.72,-1522.45,-4166.13
312756.4237,-11020.42,-686.93,-1431.99,-4073.24
312756.4247,-10916.33,-585.6,-1325.66,-3968.1
312756.4257,-10797.36,-475.5,-1211.74,-3850.79
312756.4267,-10665.27,-361.87,-1094.01,-3730.77
312756.4277,-10560.13,-279.43,-1009.8,-3645.75
312756.4287,-10513.26,-238.23,-959.02,-3609.04
312756.4297,-10498.38,-224.4,-941.42,-3602.36
312756.4307,-10502.63,-235.03,-948.05,-3614.24
312756.4317,-10537.91,-276.99,-991.2,-3659.06
312756.4327,-10612.87,-355.29,-1069.83,-3738.26
312756.4337,-10718.54,-456.0,-1173.88,-3847.07
312756.4347,-10845.09,-565.58,-1294.33,-3965.0
312756.4357,-10978.8,-680.02,-1420.21,-4085.45
312756.4367,-11093.9,-781.58,-1533.27,-4190.02
312756.4377,-11188.94,-858.88,-1626.44,-4266.93
312756.4387,-11256.12,-906.18,-1675.84,-4304.98
312756.4397,-11292.08,-931.07,-1692.49,-4321.77
312756.4407,-11289.93,-929.59,-1695.49,-4315.66
312756.4417,-11230.85,-873.71,-1654.34,-4259.06
312756.4427,-11144.93,-792.36,-1572.66,-4176.71
312756.4437,-11040.07,-697.66,-1463.99,-4078.1
312756.4447,-10927.54,-594.19,-1353.5,-3971.29
312756.4457,-10819.53,-494.86,-1252.94,-3868.87
312756.4467,-10706.81,-392.91,-1140.45,-3767.87
312756.4477,-10613.49,-306.94,-1045.56,-3681.76
312756.4487,-10560.94,-260.21,-999.07,-3638.46
312756.4497,-10543.49,-247.43,-979.95,-3627.16
312756.4507,-10540.34,-248.72,-966.41,-3626.78
312756.4517,-10576.96,-287.25,-1002.03,-3670.17
312756.4527,-10663.08,-370.12,-1087.28,-3759.1
312756.4537,-10767.18,-473.17,-1186.66,-3867.1
312756.4547,-10888.72,-593.85,-1302.62,-3989.55
312756.4557,-11006.07,-706.24,-1429.84,-4109.76
312756.4567,-11108.69,-797.7,-1535.18,-4207.33
312756.4577,-11201.81,-878.52,-1609.13,-4286.29
312756.4587,-11264.42,-925.59,-1662.78,-4328.97
312756.4597,-11282.97,-936.51,-1687.53,-4334.93
312756.4607,-11258.51,-920.44,-1665.69,-4312.52
312756.4617,-11191.23,-857.07,-1578.81,-4239.66
312756.4627,-11100.15,-764.42,-1480.15,-4144.57
312756.4637,-11007.93,-675.39,-1404.62,-4052.88
312756.4647,-10900.93,-579.79,-1333.48,-3954.6
312756.4657,-10792.02,-484.09,-1244.35,-3857.71
312756.4667,-10687.02,-392.01,-1146.03,-3765.3
312756.4677,-10587.79,-308.51,-1051.95,-3681.47
312756.4687,-10521.6,-254.15,-985.0,-3626.87
312756.4697,-10505.87,-235.27,-947.9,-3610.61
312756.4707,-10518.98,-245.62,-948.72,-3622.58
312756.4717,-10579.4,-295.59,-1010.37,-3677.85
312756.4727,-10676.43,-377.51,-1103.31,-3764.34
312756.4737,-10794.26,-489.52,-1220.32,-3878.98
312756.4747,-10923.1,-609.02,-1346.06,-4006.2
312756.4757,-11022.38,-701.9,-1433.42,-4099.23
312756.4767,-11108.64,-778.25,-1507.0,-4175.66
312756.4777,-11195.99,-848.82,-1581.24,-4248.24
312756.4787,-11246.68,-897.12,-1646.33,-4293.3
312756.4797,-11274.15,-930.79,-1700.31,-4323.44
312756.4807,-11256.79,-921.92,-1699.11,-4311.23
312756.4817,-11194.61,-869.08,-1654.86,-4255.49
312756.4827,-11121.08,-796.03,-1573.71,-4183.44
312756.4837,-11029.29,-706.48,-1479.2,-4095.6
312756.4847,-10925.25,-613.07,-1385.26,-3998.71
312756.4857,-10814.52,-505.78,-1265.38,-3888.46
312756.4867,-10695.03,-390.53,-1116.32,-3769.54
312756.4877,-10588.74,-291.16,-1016.9,-3667.78
312756.4887,-10529.85,-242.42,-980.42,-3622.39
312756.4897,-10491.37,-220.87,-964.93,-3601.79
312756.4907,-10494.81,-225.93,-984.1,-3613.09
312756.4917,-10562.75,-278.52,-1053.05,-3675.75
312756.4927,-10671.47,-365.83,-1140.69,-3767.2
312756.4937,-10790.44,-469.3,-1232.1,-3870.15
312756.4947,-10895.87,-568.01,-1294.66,-3971.39
312756.4957,-10980.27,-657.65,-1337.48,-4062.46
312756.4967,-11067.34,-748.83,-1444.2,-4156.21
312756.4977,-11176.68,-848.15,-1578.66,-4252.1
312756.4987,-11255.17,-907.8,-1658.54,-4305.79
312756.4997,-11262.08,-909.57,-1667.6,-4300.88
312756.5007,-11220.74,-882.43,-1639.8,-4267.26
312756.5017,-11152.08,-827.12,-1588.39,-4208.18
312756.5027,-11078.69,-756.17,-1521.21,-4138.18
312756.5037,-10995.15,-674.1,-1428.94,-4055.93
312756.5047,-10886.91,-574.06,-1313.07,-3952.69
312756.5057,-10770.61,-468.4,-1196.48,-3848.46
312756.5067,-10642.2,-350.05,-1075.7,-3728.2
312756.5077,-10523.51,-242.81,-955.92,-3620.67
312756.5087,-10464.29,-190.54,-892.54,-3576.8
312756.5097,-10440.97,-181.06,-884.91,-3565.22
312756.5107,-10468.53,-217.49,-924.49,-3598.4
312756.5117,-10544.87,-285.67,-1000.36,-3674.17
312756.5127,-10639.81,-369.07,-1086.52,-3763.29
312756.5137,-10752.58,-466.49,-1191.81,-3865.91
312756.5147,-10871.22,-571.82,-1310.63,-3973.77
312756.5157,-10990.0,-679.25,-1421.17,-4078.91
312756.5167,-11102.92,-779.77,-1519.73,-4181.81
312756.5177,-11211.16,-873.42,-1608.47,-4271.46
312756.5187,-11283.3,-932.17,-1671.03,-4329.16
312756.5197,-11304.71,-949.34,-1688.43,-4343.37
312756.5207,-11278.25,-924.4,-1659.16,-4317.43
312756.5217,-11218.41,-864.46,-1602.98,-4255.58
312756.5227,-11138.11,-784.64,-1531.79,-4170.99
312756.5237,-11044.41,-696.52,-1427.89,-4074.76
312756.5247,-10916.52,-582.6,-1316.74,-3951.84
312756.5257,-10793.4,-467.11,-1234.1,-3836.49
312756.5267,-10692.88,-373.79,-1140.69,-3745.51
312756.5277,-10614.92,-296.69,-1055.29,-3672.89
312756.5287,-10574.44,-258.3,-1003.98,-3636.17
312756.5297,-10563.47,-252.53,-993.01,-3635.93
312756.5307,-10574.68,-277.61,-1015.81,-3669.64
312756.5317,-10599.81,-322.44,-1048.09,-3716.28
312756.5327,-10653.97,-386.14,-1103.12,-3781.37
312756.5337,-10737.94,-471.88,-1179.65,-3866.05
312756.5347,-10854.53,-581.31,-1285.7,-3973.15
312756.5357,-10971.31,-685.26,-1406.05,-4080.82
312756.5367,-11059.57,-771.62,-1521.78,-4167.89
312756.5377,-11140.3,-839.81,-1608.42,-4243.57
312756.5387,-11197.04,-880.62,-1659.87,-4287.43
312756.5397,-11219.6,-895.07,-1665.88,-4299.59
312756.5407,-11217.93,-888.63,-1636.31,-4291.82
312756.5417,-11176.11,-845.15,-1593.64,-4243.71
312756.5427,-11109.07,-770.33,-1532.13,-4163.22
312756.5437,-11009.27,-671.72,-1431.18,-4059.32
312756.5447,-10896.11,-564.19,-1321.41,-3948.88
312756.5457,-10783.53,-458.91,-1223.04,-3844.02
312756.5467,-10681.15,-366.07,-1142.36,-3754.95
312756.5477,-10595.75,-289.01,-1067.97,-3680.28
312756.5487,-10550.31,-250.24,-1019.57,-3642.03
312756.5497,-10542.3,-245.19,-1005.51,-3637.03
312756.5507,-10555.65,-259.07,-1006.7,-3651.57
312756.5517,-10612.63,-309.32,-1044.04,-3701.07
312756.5527,-10691.69,-388.24,-1102.16,-3782.27
312756.5537,-10780.96,-489.14,-1184.8,-3882.12
312756.5547,-10891.96,-606.54,-1299.57,-4000.52
312756.5557,-10994.96,-710.54,-1409.72,-4104.19
312756.5567,-11086.13,-800.47,-1512.34,-4196.98
312756.5577,-11184.5,-877.48,-1605.22,-4277.8
312756.5587,-11245.82,-923.11,-1653.77,-4314.76
312756.5597,-11243.11,-913.57,-1648.71,-4306.41
312756.5607,-11207.06,-878.0,-1617.38,-4266.98
312756.5617,-11145.83,-822.59,-1570.51,-4208.76
312756.5627,-11069.25,-748.35,-1506.04,-4131.27
312756.5637,-10987.95,-669.34,-1451.64,-4053.21
312756.5647,-10882.24,-566.15,-1369.71,-3953.41
312756.5657,-10769.75,-458.67,-1259.57,-3840.64
312756.5667,-10650.21,-348.19,-1138.31,-3727.2
312756.5677,-10557.84,-268.84,-1054.0,-3647.71
312756.5687,-10527.95,-240.42,-1002.74,-3623.15
312756.5697,-10514.74,-225.26,-944.28,-3610.37
312756.5707,-10515.74,-231.08,-943.85,-3617.14
312756.5717,-10573.15,-290.39,-1018.0,-3682.23
312756.5727,-10669.85,-382.19,-1129.1,-3778.79
312756.5737,-10780.57,-478.22,-1227.33,-3880.69
312756.5747,-10898.93,-582.55,-1321.84,-3988.03
312756.5757,-10992.0,-662.18,-1388.98,-4070.85
312756.5767,-11078.41,-733.52,-1465.51,-4139.76
312756.5777,-11163.43,-809.24,-1569.75,-4216.29
312756.5787,-11239.58,-871.85,-1661.01,-4276.85
312756.5797,-11290.12,-905.61,-1704.31,-4305.32
312756.5807,-11302.42,-909.57,-1705.03,-4305.17
312756.5817,-11261.99,-871.71,-1655.29,-4261.78
312756.5827,-11165.62,-786.97,-1562.6,-4177.76
312756.5837,-11047.13,-680.16,-1450.73,-4073.1
312756.5847,-10934.07,-568.82,-1336.19,-3962.09
312756.5857,-10825.97,-475.6,-1222.75,-3859.33
312756.5867,-10710.48,-385.38,-1112.89,-3765.15
312756.5877,-10593.75,-298.5,-1012.56,-3675.89
312756.5887,-10516.69,-245.67,-948.19,-3619.81
312756.5897,-10481.17,-230.41,-927.97,-3603.98
312756.5907,-10479.64,-237.56,-947.05,-3618.24
312756.5917,-10544.21,-289.68,-1019.24,-3679.32
312756.5927,-10662.89,-382.52,-1121.38,-3780.79
312756.5937,-10775.04,-484.18,-1220.61,-3883.46
312756.5947,-10872.94,-577.88,-1321.65,-3981.16
312756.5957,-10972.12,-676.2,-1435.85,-4079.91
312756.5967,-11072.21,-765.85,-1511.53,-4171.61
312756.5977,-11142.02,-822.64,-1554.58,-4226.69
312756.5987,-11176.4,-851.35,-1591.02,-4252.05
312756.5997,-11196.28,-871.52,-1625.4,-4268.36
312756.6007,-11201.43,-870.9,-1637.89,-4266.07
312756.6017,-11176.64,-840.23,-1616.67,-4228.83
312756.6027,-11108.26,-772.14,-1552.49,-4153.82
312756.6037,-11010.89,-679.59,-1456.31,-4061.03
312756.6047,-10893.35,-570.54,-1333.52,-3951.36
312756.6057,-10788.97,-476.74,-1216.84,-3854.8
312756.6067,-10705.0,-393.2,-1125.67,-3775.45
312756.6077,-10608.01,-311.18,-1040.98,-3692.25
312756.6087,-10543.2,-261.16,-982.71,-3640.13
312756.6097,-10530.09,-248.48,-973.51,-3628.02
312756.6107,-10556.89,-265.07,-1000.02,-3652.67
312756.6117,-10609.68,-309.47,-1037.93,-3705.55
312756.6127,-10683.97,-380.52,-1090.77,-3778.32
312756.6137,-10772.66,-466.35,-1176.69,-3868.29
312756.6147,-10855.2,-552.18,-1258.56,-3952.22
312756.6157,-10953.38,-647.21,-1359.56,-4051.88
312756.6167,-11072.78,-754.98,-1499.56,-4161.31
312756.6177,-11147.02,-823.45,-1593.69,-4231.88
312756.6187,-11185.55,-861.45,-1639.46,-4271.56
312756.6197,-11224.6,-893.4,-1673.98,-4301.79
312756.6207,-11235.43,-895.31,-1687.24,-4301.64
312756.6217,-11186.79,-842.86,-1637.7,-4244.28
312756.6227,-11103.63,-760.7,-1550.63,-4156.92
312756.6237,-11006.02,-664.52,-1435.95,-4058.27
312756.6247,-10891.96,-558.19,-1319.46,-3951.03
312756.6257,-10788.06,-466.87,-1218.75,-3853.37
312756.6267,-10690.64,-379.71,-1114.13,-3757.57
312756.6277,-10601.71,-302.22,-1024.82,-3678.56
312756.6287,-10542.01,-252.77,-975.51,-3637.08
312756.6297,-10513.4,-228.83,-954.01,-3620.96
312756.6307,-10515.17,-233.94,-964.26,-3631.31
312756.6317,-10575.82,-287.29,-1025.77,-3687.48
312756.6327,-10672.48,-371.98,-1106.21,-3770.54
312756.6337,-10771.09,-463.2,-1188.14,-3862.05
312756.6347,-10877.66,-568.44,-1290.32,-3967.48
312756.6357,-10989.76,-675.63,-1414.59,-4076.82
312756.6367,-11104.73,-779.82,-1541.9,-4181.81
312756.6377,-11195.04,-864.08,-1634.07,-4268.79
312756.6387,-11246.06,-910.19,-1686.86,-4314.09
312756.6397,-11264.66,-916.2,-1704.79,-4319.76
312756.6407,-11253.69,-899.74,-1690.67,-4308.94
312756.6417,-11215.07,-858.31,-1651.14,-4267.69
312756.6427,-11161.28,-799.18,-1592.45,-4204.94
312756.6437,-11061.43,-704.62,-1483.87,-4100.99
312756.6447,-10930.25,-586.75,-1343.49,-3975.82
312756.6457,-10829.74,-493.96,-1251.98,-3879.02
312756.6467,-10724.31,-395.11,-1154.38,-3777.31
312756.6477,-10627.7,-307.56,-1067.64,-3688.1
312756.6487,-10573.77,-263.26,-1027.16,-3644.42
312756.6497,-10555.08,-254.73,-1024.25,-3641.22
312756.6507,-10559.94,-266.12,-1048.28,-3656.44
312756.6517,-10614.54,-318.67,-1111.89,-3712.13
312756.6527,-10702.42,-403.02,-1167.2,-3798.2
312756.6537,-10795.79,-500.06,-1223.33,-3896.28
312756.6547,-10898.07,-606.16,-1328.47,-4003.33
312756.6557,-11001.45,-702.43,-1424.46,-4098.37
312756.6567,-11075.26,-765.94,-1484.97,-4163.65
312756.6577,-11109.93,-806.0,-1512.38,-4196.5
312756.6587,-11125.85,-829.36,-1545.57,-4222.54
312756.6597,-11140.4,-843.19,-1583.05,-4244.66
312756.6607,-11147.83,-847.63,-1598.36,-4253.15
312756.6617,-11149.03,-835.09,-1592.02,-4233.89
312756.6627,-11097.1,-771.76,-1523.21,-4162.22
312756.6637,-11003.92,-675.39,-1433.13,-4062.8
312756.6647,-10893.92,-569.92,-1330.42,-3956.7
312756.6657,-10762.26,-452.57,-1200.2,-3839.4
312756.6667,-10639.76,-337.08,-1080.32,-3722.29
312756.6677,-10553.41,-250.91,-995.11,-3629.4
312756.6687,-10509.97,-211.05,-957.87,-3591.16
312756.6697,-10501.29,-210.57,-954.1,-3588.77
312756.6707,-10519.22,-240.18,-969.89,-3617.29
312756.6717,-10589.41,-317.91,-1035.64,-3695.63
312756.6727,-10695.79,-419.43,-1138.4,-3805.59
312756.6737,-10789.97,-502.78,-1224.47,-3895.57
312756.6747,-10859.78,-563.76,-1282.84,-3962.61
312756.6757,-10942.41,-637.44,-1362.85,-4043.96
312756.6767,-11057.81,-737.81,-1465.51,-4151.11
312756.6777,-11154.46,-824.02,-1555.59,-4240.23
312756.6787,-11229.75,-890.68,-1634.74,-4298.74
312756.6797,-11256.98,-920.82,-1702.79,-4320.34
312756.6807,-11223.89,-904.04,-1702.26,-4297.92
312756.6817,-11163.57,-853.87,-1642.51,-4243.57
312756.6827,-11121.08,-798.89,-1618.0,-4190.64
312756.6837,-11039.35,-707.01,-1541.47,-4097.46
312756.6847,-10908.8,-580.26,-1375.15,-3962.33
312756.6857,-10770.89,-447.42,-1191.95,-3826.48
312756.6867,-10644.63,-333.31,-1057.58,-3709.41
312756.6877,-10572.53,-267.84,-983.95,-3646.71
312756.6887,-10567.28,-258.87,-980.76,-3645.42
312756.6897,-10546.11,-247.1,-985.57,-3636.65
312756.6907,-10530.76,-237.46,-974.94,-3628.45
312756.6917,-10552.03,-268.36,-995.3,-3662.83
312756.6927,-10630.94,-341.7,-1067.59,-3742.79
312756.6937,-10737.61,-430.73,-1168.54,-3840.88
312756.6947,-10859.59,-530.58,-1289.56,-3952.84
312756.6957,-10985.47,-643.83,-1408.77,-4067.47
312756.6967,-11098.15,-750.35,-1512.86,-4170.47
312756.6977,-11188.65,-836.85,-1603.41,-4256.2
312756.6987,-11255.89,-892.83,-1661.92,-4305.7
312756.6997,-11282.06,-916.1,-1685.1,-4322.0
312756.7007,-11260.94,-907.71,-1679.61,-4308.18
312756.7017,-11197.66,-856.78,-1631.21,-4251.48
312756.7027,-11117.89,-780.53,-1553.68,-4169.61
312756.7037,-11022.38,-683.5,-1456.17,-4069.9
312756.7047,-10902.5,-573.16,-1339.86,-3959.23
312756.7057,-10780.15,-463.72,-1220.61,-3844.26
312756.7067,-10662.51,-360.92,-1112.7,-3737.02
312756.7077,-10555.22,-270.41,-1019.57,-3650.05
312756.7087,-10500.91,-234.08,-979.57,-3616.14
312756.7097,-10495.57,-239.28,-983.43,-3624.96
312756.7107,-10500.58,-248.34,-986.53,-3634.6
312756.7117,-10534.67,-279.14,-1011.23,-3669.69
312756.7127,-10614.21,-350.81,-1073.03,-3745.32
312756.7137,-10738.09,-463.82,-1178.07,-3865.24
312756.7147,-10864.55,-583.51,-1299.29,-3987.31
312756.7157,-10980.7,-683.5,-1414.87,-4091.22
312756.7167,-11105.49,-782.39,-1534.03,-4196.6
312756.7177,-11209.58,-868.32,-1623.39,-4275.75
312756.7187,-11259.27,-905.99,-1668.6,-4311.37
312756.7197,-11280.44,-918.44,-1685.14,-4321.38
312756.7207,-11285.21,-911.09,-1694.49,-4309.32
312756.7217,-11245.11,-866.37,-1669.6,-4262.88
312756.7227,-11153.51,-787.59,-1594.07,-4181.1
312756.7237,-11040.31,-689.65,-1504.99,-4084.78
312756.7247,-10917.0,-578.83,-1395.18,-3973.91
312756.7257,-10818.53,-488.38,-1278.26,-3874.73
312756.7267,-10734.85,-408.17,-1162.48,-3789.52
312756.7277,-10645.82,-332.83,-1046.13,-3710.32
312756.7287,-10581.35,-286.44,-975.56,-3659.44
312756.7297,-10551.17,-262.69,-956.49,-3640.22
312756.7307,-10534.19,-251.29,-953.39,-3637.17
312756.7317,-10546.11,-269.75,-976.13,-3662.54
312756.7327,-10602.43,-329.4,-1041.13,-3728.25
312756.7337,-10694.08,-418.19,-1144.74,-3822.37
312756.7347,-10815.91,-534.96,-1293.23,-3940.63
312756.7357,-10929.92,-639.87,-1431.8,-4051.78
312756.7367,-11037.59,-732.61,-1527.5,-4147.24
312756.7377,-11148.07,-817.63,-1614.09,-4238.27
312756.7387,-11236.91,-887.44,-1678.42,-4306.36
312756.7397,-11283.02,-917.24,-1691.39,-4328.06
312756.7407,-11272.0,-908.61,-1670.07,-4312.71
312756.7417,-11214.11,-857.88,-1612.52,-4252.34
312756.7427,-11131.57,-780.15,-1541.9,-4167.51
312756.7437,-11031.39,-685.17,-1463.46,-4067.61
312756.7447,-10902.55,-573.21,-1351.45,-3953.93
312756.7457,-10780.62,-469.92,-1237.44,-3848.22
312756.7467,-10680.15,-376.03,-1135.64,-3754.14
312756.7477,-10592.84,-291.2,-1032.11,-3672.89
312756.7487,-10543.16,-241.42,-962.93,-3624.96
312756.7497,-10527.47,-226.55,-952.29,-3613.23
312756.7507,-10541.15,-245.19,-982.28,-3635.74
312756.7517,-10587.26,-294.35,-1037.31,-3691.72
312756.7527,-10652.21,-359.82,-1109.7,-3758.48
312756.7537,-10734.75,-449.71,-1210.83,-3851.46
312756.7547,-10839.7,-562.72,-1327.28,-3964.62
312756.7557,-10978.08,-695.13,-1468.18,-4095.84
312756.7567,-11105.54,-807.62,-1586.96,-4208.8
312756.7577,-11215.02,-891.4,-1671.31,-4296.3
312756.7587,-11274.96,-929.5,-1673.03,-4331.78
312756.7597,-11279.63,-928.97,-1640.46,-4324.77
312756.7607,-11258.7,-900.32,-1623.3,-4292.58
312756.7617,-11193.8,-840.81,-1570.22,-4227.02
312756.7627,-11107.59,-768.28,-1493.07,-4144.96
312756.7637,-10995.77,-684.31,-1417.02,-4052.69
312756.7647,-10860.78,-575.78,-1310.78,-3939.1
312756.7657,-10754.49,-468.97,-1208.5,-3842.93
312756.7667,-10674.57,-382.95,-1131.53,-3762.2
312756.7677,-10581.54,-298.64,-1042.08,-3675.94
312756.7687,-10519.41,-244.47,-984.48,-3623.06
312756.7697,-10510.73,-229.36,-973.18,-3610.18
312756.7707,-10522.56,-239.94,-988.63,-3628.68
312756.7717,-10573.53,-288.3,-1035.79,-3680.75
312756.7727,-10645.87,-357.01,-1100.44,-3753.23
312756.7737,-10747.15,-450.42,-1198.96,-3852.08
312756.7747,-10879.61,-565.72,-1319.93,-3970.24
312756.7757,-10999.06,-677.92,-1429.84,-4088.02
312756.7767,-11098.15,-770.38,-1512.05,-4186.73
312756.7777,-11189.03,-848.29,-1593.97,-4260.97
312756.7787,-11260.37,-904.46,-1666.98,-4310.51
312756.7797,-11298.85,-926.16,-1695.49,-4325.2
312756.7807,-11291.27,-905.61,-1676.51,-4297.78
312756.7817,-11234.76,-846.91,-1622.15,-4230.64
312756.7827,-11134.82,-757.5,-1531.79,-4134.27
312756.7837,-11043.84,-671.67,-1438.43,-4047.01
312756.7847,-10963.58,-594.09,-1344.39,-3968.67
312756.7857,-10861.21,-508.98,-1248.46,-3883.65
312756.7867,-10720.06,-403.21,-1126.15,-3776.98
312756.7877,-10559.32,-285.29,-996.3,-3662.44
312756.7887,-10466.48,-216.29,-932.41,-3600.03
312756.7897,-10438.78,-192.12,-923.49,-3583.05
312756.7907,-10446.79,-203.47,-934.65,-3593.83
312756.7917,-10506.35,-264.5,-994.59,-3653.72
312756.7927,-10593.46,-351.86,-1087.43,-3746.65
312756.7937,-10705.38,-456.19,-1191.09,-3855.04
312756.7947,-10820.34,-568.44,-1296.62,-3964.66
312756.7957,-10935.16,-667.76,-1397.66,-4066.99
312756.7967,-11055.14,-762.08,-1508.86,-4164.41
312756.7977,-11157.9,-839.04,-1601.79,-4242.75
312756.7987,-11218.6,-883.63,-1653.34,-4287.58
312756.7997,-11242.01,-896.12,-1670.6,-4298.64
312756.8007,-11241.25,-888.4,-1666.5,-4287.67
312756.8017,-11204.82,-846.34,-1626.73,-4239.13
312756.8027,-11128.76,-773.62,-1549.05,-4162.74
312756.8037,-11028.2,-679.06,-1440.48,-4067.37
312756.8047,-10914.33,-580.74,-1324.65,-3961.04
312756.8057,-10806.13,-485.42,-1222.18,-3864.91
312756.8067,-10699.32,-389.24,-1117.04,-3770.11
312756.8077,-10615.3,-317.76,-1028.97,-3695.92
312756.8087,-10583.21,-292.02,-993.16,-3669.45
312756.8097,-10557.99,-273.7,-970.22,-3650.28
312756.8107,-10527.99,-254.82,-949.24,-3632.31
312756.8117,-10537.01,-270.03,-983.33,-3651.91
312756.8127,-10598.37,-333.6,-1082.52,-3721.29
312756.8137,-10691.64,-420.24,-1201.34,-3813.55
312756.8147,-10826.88,-540.69,-1348.07,-3944.16
312756.8157,-10983.9,-678.44,-1499.89,-4091.93
312756.8167,-11106.44,-789.64,-1610.47,-4202.08
312756.8177,-11180.78,-855.64,-1668.88,-4259.4
312756.8187,-11218.79,-887.01,-1679.28,-4284.19
312756.8197,-11237.05,-896.88,-1654.58,-4292.82
312756.8207,-11249.11,-895.4,-1648.04,-4293.49
312756.8217,-11210.06,-848.58,-1606.23,-4247.38
312756.8227,-11124.61,-772.14,-1527.74,-4167.8
312756.8237,-11002.97,-667.76,-1428.08,-4059.17
312756.8247,-10875.56,-555.28,-1317.36,-3942.73
312756.8257,-10780.67,-468.21,-1222.04,-3855.66
312756.8267,-10688.12,-383.66,-1128.1,-3770.21
312756.8277,-10583.59,-290.25,-1030.25,-3674.46
312756.8287,-10487.41,-205.04,-938.27,-3586.77
312756.8297,-10445.55,-167.13,-890.59,-3544.9
312756.8307,-10469.72,-195.36,-920.25,-3579.95
312756.8317,-10564.71,-292.59,-1011.09,-3684.57
312756.8327,-10677.29,-396.54,-1116.23,-3792.43
312756.8337,-10766.13,-469.64,-1206.02,-3876.02
312756.8347,-10862.02,-552.13,-1309.25,-3965.14
312756.8357,-10968.11,-653.51,-1421.69,-4065.32
312756.8367,-11078.07,-753.59,-1525.83,-4162.12
312756.8377,-11183.5,-841.76,-1636.6,-4252.39
312756.8387,-11251.69,-897.84,-1704.74,-4306.03
312756.8397,-11286.74,-917.96,-1714.28,-4319.0
312756.8407,-11294.51,-913.81,-1693.44,-4311.99
312756.8417,-11250.31,-870.42,-1650.43,-4264.4
312756.8427,-11158.47,-784.78,-1553.11,-4173.99
312756.8437,-11052.9,-690.13,-1432.66,-4073.76
312756.8447,-10939.65,-590.13,-1313.26,-3969.34
312756.8457,-10813.57,-485.9,-1205.54,-3859.81
312756.8467,-10674.24,-376.46,-1119.95,-3746.22
312756.8477,-10551.98,-281.43,-1035.6,-3649.81
312756.8487,-10495.52,-240.42,-977.18,-3613.52
312756.8497,-10504.53,-251.63,-977.09,-3630.88
312756.8507,-10539.72,-279.81,-1000.6,-3666.69
312756.8517,-10602.57,-337.27,-1037.69,-3729.73
312756.8527,-10691.36,-417.8,-1095.53,-3809.74
312756.8537,-10792.02,-503.59,-1188.04,-3893.38
312756.8547,-10876.75,-577.35,-1265.24,-3968.24
312756.8557,-10964.11,-662.57,-1351.64,-4052.97
312756.8567,-11063.43,-760.41,-1447.3,-4154.54
312756.8577,-11148.79,-836.94,-1536.8,-4230.83
312756.8587,-11214.16,-890.78,-1637.32,-4279.8
312756.8597,-11258.17,-918.44,-1719.52,-4311.28
312756.8607,-11224.08,-884.49,-1702.12,-4277.8
312756.8617,-11144.69,-814.63,-1635.07,-4206.75
312756.8627,-11074.21,-739.29,-1568.99,-4128.6
312756.8637,-11002.68,-664.85,-1486.49,-4050.97
312756.8647,-10907.03,-582.5,-1384.83,-3961.23
312756.8657,-10795.21,-485.9,-1281.93,-3862.57
312756.8667,-10689.83,-391.01,-1172.97,-3767.3
312756.8677,-10592.75,-302.36,-1077.84,-3684.09
312756.8687,-10533.05,-249.0,-1003.93,-3640.27
312756.8697,-10516.36,-236.08,-956.06,-3630.45
312756.8707,-10524.23,-242.61,-967.55,-3640.89
312756.8717,-10562.14,-277.42,-1028.01,-3676.08
312756.8727,-10627.6,-344.56,-1105.17,-3744.94
312756.8737,-10722.78,-435.73,-1181.75,-3842.88
312756.8747,-10858.25,-552.89,-1287.99,-3957.84
312756.8757,-10980.8,-666.0,-1404.62,-4067.23
312756.8767,-11079.79,-757.5,-1504.47,-4160.26
312756.8777,-11169.72,-831.94,-1578.47,-4236.79
312756.8787,-11238.34,-887.11,-1643.04,-4289.15
312756.8797,-11271.76,-919.44,-1672.46,-4311.8
312756.8807,-11262.8,-917.48,-1660.68,-4298.78
312756.8817,-11202.0,-865.32,-1603.56,-4238.03
312756.8827,-11120.51,-790.41,-1528.12,-4160.69
312756.8837,-11024.29,-707.72,-1448.49,-4074.05
312756.8847,-10919.67,-608.73,-1350.07,-3975.25
312756.8857,-10805.94,-486.47,-1238.35,-3857.57
312756.8867,-10695.41,-378.94,-1128.05,-3751.85
312756.8877,-10593.51,-293.68,-1031.26,-3665.69
312756.8887,-10521.27,-237.23,-966.74,-3613.14
312756.8897,-10490.18,-212.62,-937.18,-3590.2
312756.8907,-10491.71,-217.1,-941.23,-3599.69
312756.8917,-10547.45,-278.43,-1003.89,-3663.83
312756.8927,-10631.13,-365.11,-1098.92,-3756.62
312756.8937,-10739.18,-464.58,-1219.61,-3858.38
312756.8947,-10869.7,-575.78,-1345.83,-3970.58
312756.8957,-10974.31,-663.85,-1426.89,-4059.98
312756.8967,-11081.65,-754.83,-1514.01,-4151.87
312756.8977,-11194.42,-840.52,-1597.21,-4236.56
312756.8987,-11255.93,-889.35,-1629.07,-4281.66
312756.8997,-11291.46,-920.96,-1653.48,-4309.8
312756.9007,-11296.75,-927.64,-1664.83,-4310.94
312756.9017,-11240.67,-881.62,-1631.93,-4261.4
312756.9027,-11126.66,-790.98,-1550.58,-4170.85
312756.9037,-10997.87,-683.36,-1444.44,-4065.13
312756.9047,-10880.76,-570.34,-1332.71,-3953.31
312756.9057,-10780.05,-469.92,-1229.19,-3851.41
312756.9067,-10674.95,-373.36,-1127.2,-3748.61
312756.9077,-10570.96,-286.63,-1027.97,-3656.58
312756.9087,-10502.67,-243.52,-965.69,-3611.99
312756.9097,-10468.53,-235.89,-936.41,-3604.13
312756.9107,-10471.25,-238.99,-930.07,-3615.09
312756.9117,-10504.63,-262.45,-953.15,-3647.66
312756.9127,-10580.11,-324.11,-1041.46,-3721.09
312756.9137,-10725.55,-445.84,-1206.35,-3851.8
312756.9147,-10870.55,-576.26,-1347.26,-3986.07
312756.9157,-10984.23,-676.44,-1447.39,-4086.49
312756.9167,-11082.13,-763.7,-1535.23,-4170.28
312756.9177,-11187.89,-859.5,-1634.55,-4258.73
312756.9187,-11262.66,-916.0,-1696.4,-4310.8
312756.9197,-11292.41,-930.98,-1713.8,-4323.77
312756.9207,-11271.86,-908.33,-1673.17,-4299.45
312756.9217,-11213.26,-856.83,-1600.46,-4240.04
312756.9227,-11127.28,-787.45,-1536.8,-4168.08
312756.9237,-11025.81,-699.66,-1440.95,-4078.53
312756.9247,-10909.03,-593.28,-1308.78,-3971.29
312756.9257,-10779.29,-481.94,-1190.76,-3857.8
312756.9267,-10645.2,-366.93,-1079.65,-3740.17
312756.9277,-10552.69,-280.9,-1019.53,-3658.25
312756.9287,-10517.65,-238.85,-1012.9,-3624.87
312756.9297,-10492.18,-220.25,-992.11,-3607.94
312756.9307,-10498.72,-228.79,-992.73,-3623.1
312756.9317,-10547.93,-278.52,-1033.26,-3677.75
312756.9327,-10633.8,-353.05,-1106.74,-3758.86
312756.9337,-10750.58,-454.76,-1210.17,-3865.81
312756.9347,-10871.03,-568.63,-1321.32,-3979.54
312756.9357,-10980.66,-673.77,-1426.12,-4084.3
312756.9367,-11095.72,-776.34,-1529.41,-4183.53
312756.9377,-11202.29,-870.32,-1622.39,-4270.74
312756.9387,-11271.53,-928.26,-1680.47,-4324.01
312756.9397,-11300.9,-948.33,-1700.64,-4337.6
312756.9407,-11278.63,-926.02,-1685.95,-4309.27
312756.9417,-11220.79,-881.86,-1647.09,-4259.4
312756.9427,-11137.73,-803.66,-1566.74,-4181.1
312756.9437,-11011.79,-685.26,-1445.01,-4062.99
312756.9447,-10877.13,-561.38,-1324.46,-3942.54
312756.9457,-10774.33,-457.57,-1222.56,-3839.4
312756.9467,-10663.42,-351.48,-1112.18,-3735.73
312756.9477,-10561.09,-263.55,-1009.8,-3645.61
312756.9487,-10523.51,-233.84,-976.28,-3615.86
312756.9497,-10517.46,-235.75,-976.37,-3619.86
312756.9507,-10515.74,-246.0,-978.14,-3633.88
312756.9517,-10549.98,-286.96,-1012.04,-3681.04
312756.9527,-10629.13,-364.88,-1102.4,-3766.82
312756.9537,-10738.95,-463.58,-1213.31,-3867.67
312756.9547,-10852.39,-565.58,-1314.45,-3966.81
312756.9557,-10980.94,-674.77,-1451.83,-4077.86
312756.9567,-11104.63,-780.49,-1582.72,-4185.3
312756.9577,-11195.23,-865.79,-1662.87,-4265.31
312756.9587,-11254.88,-915.34,-1691.01,-4311.37
312756.9597,-11287.5,-931.22,-1687.67,-4326.3
312756.9607,-11276.15,-911.19,-1669.6,-4305.65
312756.9617,-11195.14,-841.57,-1605.37,-4229.26
312756.9627,-11095.81,-760.46,-1522.73,-4144.53
312756.9637,-11001.68,-677.2,-1442.77,-4059.12
312756.9647,-10891.92,-574.06,-1341.15,-3956.65
312756.9657,-10784.06,-464.06,-1230.19,-3846.5
312756.9667,-10694.22,-369.64,-1128.53,-3748.85
312756.9677,-10603.95,-288.39,-1039.6,-3669.6
312756.9687,-10567.24,-263.88,-1007.03,-3643.56
312756.9697,-10564.47,-264.93,-985.38,-3644.66
312756.9707,-10556.37,-257.25,-966.22,-3640.99
312756.9717,-10575.68,-287.15,-993.68,-3672.46
312756.9727,-10649.25,-366.97,-1076.32,-3758.05
312756.9737,-10748.67,-464.2,-1179.31,-3862.72
312756.9747,-10860.73,-570.15,-1293.61,-3975.25
312756.9757,-10980.08,-680.49,-1426.17,-4087.4
312756.9767,-11082.51,-778.77,-1525.97,-4185.39
312756.9777,-11168.2,-867.51,-1606.46,-4267.41
312756.9787,-11233.33,-924.78,-1700.78,-4319.14
312756.9797,-11288.12,-964.36,-1758.91,-4350.38
312756.9807,-11298.99,-968.65,-1746.08,-4344.99
312756.9817,-11235.52,-906.13,-1685.29,-4279.71
312756.9827,-11122.23,-799.13,-1572.8,-4172.18
312756.9837,-11014.46,-691.27,-1453.83,-4064.13
312756.9847,-10910.08,-583.03,-1320.36,-3957.03
312756.9857,-10824.97,-497.68,-1230.62,-3870.06
312756.9867,-10701.04,-386.0,-1110.98,-3759.05
312756.9877,-10546.49,-256.16,-969.93,-3628.35
312756.9887,-10470.44,-193.07,-920.39,-3567.41
312756.9897,-10435.63,-170.56,-892.5,-3545.81
312756.9907,-10407.88,-159.31,-858.74,-3536.22
312756.9917,-10471.06,-212.72,-919.91,-3599.45
312756.9927,-10590.65,-313.0,-1032.59,-3705.17
312756.9937,-10712.34,-418.42,-1141.31,-3811.88
312756.9947,-10849.91,-538.87,-1264.67,-3935.24
312756.9957,-10995.96,-671.34,-1408.53,-4074.14
312756.9967,-11126.47,-793.93,-1542.38,-4200.94
312756.9977,-11227.94,-887.06,-1647.28,-4292.92
312756.9987,-11274.72,-922.39,-1686.29,-4324.96
312756.9997,-11278.87,-921.96,-1692.58,-4325.96
312757.0007,-11268.81,-913.52,-1681.09,-4313.14
312757.0017,-11231.61,-872.52,-1632.6,-4266.45
312757.0027,-11133.34,-784.35,-1536.7,-4171.94
312757.0037,-11008.6,-672.77,-1425.89,-4058.79
312757.0047,-10894.73,-563.43,-1327.09,-3948.93
312757.0057,-10788.68,-470.11,-1231.86,-3853.23
312757.0067,-10701.61,-394.01,-1154.28,-3772.83
312757.0077,-10605.05,-313.23,-1064.11,-3691.01
312757.0087,-10521.6,-253.77,-984.72,-3630.92
312757.0097,-10479.93,-232.08,-949.43,-3609.42
312757.0107,-10498.1,-250.39,-964.5,-3630.3
312757.0117,-10548.69,-302.7,-1007.7,-3685.38
312757.0127,-10601.43,-358.1,-1066.83,-3750.42
312757.0137,-10678.05,-427.39,-1165.1,-3826.95
312757.0147,-10795.26,-521.47,-1291.18,-3931.76
312757.0157,-10924.72,-635.58,-1403.76,-4042.91
312757.0167,-11062.43,-753.78,-1517.01,-4155.11
312757.0177,-11178.07,-855.64,-1613.24,-4252.39
312757.0187,-11235.67,-908.85,-1664.92,-4304.17
312757.0197,-11249.45,-919.82,-1678.66,-4312.99
312757.0207,-11250.83,-914.81,-1668.07,-4303.55
312757.0217,-11208.11,-872.33,-1628.02,-4257.15
312757.0227,-11129.33,-798.32,-1553.68,-4177.9
312757.0237,-11034.92,-710.58,-1461.84,-4082.39
312757.0247,-10915.9,-598.76,-1351.31,-3966.28
312757.0257,-10797.6,-489.66,-1240.4,-3854.94
312757.0267,-10688.59,-390.91,-1141.88,-3758.1
312757.0277,-10616.16,-319.81,-1085.52,-3694.25
312757.0287,-10566.9,-277.33,-1036.55,-3655.72
312757.0297,-10531.76,-249.72,-989.2,-3628.45
312757.0307,-10525.18,-247.81,-982.33,-3632.5
312757.0317,-10563.95,-283.43,-1026.11,-3675.7
312757.0327,-10649.87,-364.83,-1113.03,-3761.15
312757.0337,-10753.68,-463.53,-1211.6,-3864.53
312757.0347,-10868.98,-565.53,-1318.03,-3977.59
312757.0357,-11001.3,-685.02,-1437.85,-4101.42
312757.0367,-11113.69,-786.64,-1535.99,-4199.7
312757.0377,-11180.55,-847.44,-1606.75,-4257.87
312757.0387,-11214.35,-877.67,-1640.27,-4282.33
312757.0397,-11224.13,-891.83,-1648.28,-4286.43
312757.0407,-11219.07,-894.07,-1639.27,-4277.56
312757.0417,-11190.65,-860.12,-1609.52,-4240.85
312757.0427,-11128.09,-790.41,-1550.58,-4170.75
312757.0437,-11032.15,-698.52,-1460.79,-4075.34
312757.0447,-10912.85,-587.56,-1351.45,-3965.09
312757.0457,-10789.97,-470.16,-1233.91,-3850.99
312757.0467,-10679.53,-370.79,-1134.25,-3754.9
312757.0477,-10588.12,-295.4,-1053.14,-3679.71
312757.0487,-10545.35,-253.01,-1004.31,-3639.65
312757.0497,-10526.37,-234.56,-970.03,-3621.48
312757.0507,-10516.6,-234.13,-954.15,-3622.29
312757.0517,-10549.83,-272.32,-996.49,-3668.02
312757.0527,-10624.22,-350.28,-1071.98,-3751.47
312757.0537,-10721.64,-445.56,-1161.19,-3847.89
312757.0547,-10845.71,-556.71,-1273.68,-3959.61
312757.0557,-10989.19,-687.98,-1405.19,-4088.5
312757.0567,-11114.65,-811.77,-1523.26,-4207.42
312757.0577,-11222.36,-908.52,-1624.78,-4301.36
312757.0587,-11283.92,-962.93,-1705.55,-4352.05
312757.0597,-11307.29,-978.9,-1776.03,-4365.11
312757.0607,-11278.73,-949.72,-1762.96,-4328.06
312757.0617,-11192.61,-868.99,-1664.26,-4243.37
312757.0627,-11104.2,-770.62,-1574.09,-4148.91
312757.0637,-11030.39,-676.44,-1461.46,-4052.83
312757.0647,-10922.15,-565.96,-1302.43,-3937.82
312757.0657,-10783.77,-442.84,-1164.53,-3810.17
312757.0667,-10647.68,-330.16,-1061.01,-3701.02
312757.0677,-10558.42,-251.2,-999.4,-3625.3
312757.0687,-10532.43,-229.79,-1001.6,-3617.1
312757.0697,-10511.92,-222.21,-999.21,-3615.43
312757.0707,-10484.84,-215.1,-984.81,-3610.66
312757.0717,-10494.52,-238.13,-1002.74,-3642.18
312757.0727,-10583.97,-324.49,-1090.86,-3736.45
312757.0737,-10742.05,-457.57,-1223.71,-3875.97
312757.0747,-10892.01,-586.56,-1346.3,-4002.81
312757.0757,-11005.74,-697.37,-1453.73,-4111.48
312757.0767,-11114.17,-795.65,-1556.21,-4209.85
312757.0777,-11223.6,-885.58,-1650.43,-4297.4
312757.0787,-11270.95,-928.02,-1671.12,-4328.11
312757.0797,-11281.16,-936.94,-1675.22,-4326.44
312757.0807,-11245.16,-903.56,-1635.5,-4291.15
312757.0817,-11152.84,-815.92,-1536.66,-4196.84
312757.0827,-11044.84,-714.11,-1446.25,-4091.55
312757.0837,-10959.34,-632.48,-1398.04,-4007.63
312757.0847,-10883.62,-569.06,-1339.29,-3939.92
312757.0857,-10790.92,-491.76,-1254.13,-3862.0
312757.0867,-10691.17,-391.01,-1153.56,-3762.91
312757.0877,-10589.08,-293.54,-1054.48,-3672.98
312757.0887,-10531.86,-247.62,-992.39,-3630.69
312757.0897,-10522.08,-243.33,-972.56,-3628.3
312757.0907,-10538.29,-255.39,-977.13,-3645.95
312757.0917,-10594.42,-303.98,-1028.59,-3700.02
312757.0927,-10683.39,-385.86,-1112.18,-3781.18
312757.0937,-10779.43,-473.36,-1204.49,-3868.63
312757.0947,-10892.01,-582.27,-1321.75,-3978.01
312757.0957,-10997.82,-697.57,-1447.53,-4092.07
312757.0967,-11075.12,-794.6,-1565.65,-4187.39
312757.0977,-11137.58,-860.64,-1636.46,-4256.39
312757.0987,-11189.41,-898.41,-1652.57,-4292.39
312757.0997,-11224.65,-914.14,-1651.81,-4300.45
312757.1007,-11243.39,-918.58,-1651.86,-4304.74
312757.1017,-11219.84,-888.63,-1636.46,-4275.94
312757.1027,-11152.46,-818.3,-1592.35,-4202.65
312757.1037,-11043.69,-715.88,-1488.07,-4092.88
312757.1047,-10893.97,-577.88,-1347.16,-3956.27
312757.1057,-10748.24,-441.84,-1200.58,-3817.42
312757.1067,-10642.67,-341.61,-1055.96,-3711.41
312757.1077,-10561.9,-275.04,-960.45,-3643.27
312757.1087,-10528.14,-251.48,-950.67,-3620.77
312757.1097,-10514.45,-241.47,-971.17,-3617.72
312757.1107,-10497.09,-230.36,-972.46,-3617.29
312757.1117,-10513.55,-254.44,-987.34,-3638.22
312757.1127,-10577.39,-316.76,-1056.77,-3706.12
312757.1137,-10678.24,-411.13,-1156.38,-3810.84
312757.1147,-10818.1,-540.64,-1288.03,-3946.97
312757.1157,-10964.92,-663.81,-1417.49,-4074.48
312757.1167,-11080.7,-764.23,-1518.82,-4176.57
312757.1177,-11171.77,-844.62,-1598.02,-4257.97
312757.1187,-11237.48,-895.45,-1645.61,-4304.84
312757.1197,-11278.39,-923.92,-1674.13,-4331.45
312757.1207,-11292.65,-928.97,-1680.18,-4330.83
312757.1217,-11253.64,-885.44,-1640.51,-4281.47
312757.1227,-11167.96,-804.85,-1557.73,-4196.07
312757.1237,-11057.66,-705.62,-1451.06,-4090.6
312757.1247,-10940.79,-596.86,-1347.54,-3978.06
312757.1257,-10796.36,-468.11,-1207.73,-3846.5
312757.1267,-10641.91,-331.35,-1067.45,-3712.37
312757.1277,-10526.32,-233.6,-985.91,-3621.1
312757.1287,-10477.83,-203.94,-966.45,-3593.3
312757.1297,-10462.48,-207.76,-949.91,-3590.2
312757.1307,-10480.5,-228.6,-958.87,-3612.76
312757.1317,-10535.58,-278.62,-1007.03,-3668.93
312757.1327,-10613.49,-359.01,-1088.24,-3751.33
312757.1337,-10717.68,-464.96,-1194.48,-3856.85
312757.1347,-10847.67,-581.12,-1318.07,-3977.3
312757.1357,-10977.22,-692.08,-1432.85,-4092.31
312757.1367,-11093.38,-791.84,-1523.45,-4191.59
312757.1377,-11185.27,-870.75,-1596.12,-4269.41
312757.1387,-11238.05,-907.33,-1632.5,-4306.56
312757.1397,-11266.9,-917.01,-1656.39,-4312.09
312757.1407,-11266.66,-898.89,-1658.68,-4292.3
312757.1417,-11218.45,-846.58,-1619.39,-4236.17
312757.1427,-11138.2,-770.47,-1563.6,-4155.16
312757.1437,-11046.84,-683.83,-1502.99,-4069.95
312757.1447,-10928.63,-577.26,-1382.45,-3960.13
312757.1457,-10816.19,-473.12,-1264.1,-3853.32
312757.1467,-10733.32,-396.82,-1182.46,-3774.45
312757.1477,-10659.84,-324.39,-1105.12,-3706.03
312757.1487,-10607.15,-279.81,-1049.85,-3666.26
312757.1497,-10557.51,-244.81,-1000.36,-3639.32
312757.1507,-10526.04,-233.36,-968.17,-3634.31
312757.1517,-10561.18,-272.7,-995.97,-3676.46
312757.1527,-10636.76,-344.61,-1069.88,-3752.42
312757.1537,-10717.68,-438.88,-1168.97,-3847.5
312757.1547,-10835.93,-557.61,-1300.53,-3970.58
312757.1557,-10962.34,-673.06,-1420.93,-4086.35
312757.1567,-11063.39,-768.52,-1515.25,-4176.33
312757.1577,-11159.61,-846.91,-1589.16,-4243.52
312757.1587,-11215.97,-886.87,-1633.17,-4276.37
312757.1597,-11245.78,-910.23,-1676.23,-4300.98
312757.1607,-11242.82,-904.42,-1682.81,-4296.97
312757.1617,-11191.7,-851.39,-1635.65,-4242.99
312757.1627,-11100.25,-770.04,-1552.63,-4157.93
312757.1637,-11006.79,-692.89,-1460.5,-4071.76
312757.1647,-10908.22,-607.44,-1367.33,-3982.35
312757.1657,-10807.9,-517.23,-1282.69,-3885.7
312757.1667,-10698.65,-413.75,-1170.35,-3781.75
312757.1677,-10575.34,-304.89,-1031.92,-3672.74
312757.1687,-10493.33,-233.98,-955.2,-3604.84
312757.1697,-10481.5,-223.54,-951.1,-3603.27
312757.1707,-10500.48,-240.28,-971.51,-3629.02
312757.1717,-10535.77,-276.76,-1001.41,-3669.69
312757.1727,-10612.06,-345.66,-1060.53,-3741.93
312757.1737,-10716.92,-435.21,-1135.06,-3834.34
312757.1747,-10845.85,-546.5,-1250.12,-3947.5
312757.1757,-10971.98,-653.65,-1371.72,-4055.36
312757.1767,-11085.46,-749.68,-1482.82,-4154.02
312757.1777,-11191.46,-844.57,-1603.17,-4251.53
312757.1787,-11269.38,-913.81,-1690.86,-4317.62
312757.1797,-11296.13,-938.94,-1707.36,-4334.02
312757.1807,-11280.25,-930.69,-1681.42,-4317.95
312757.1817,-11220.36,-893.45,-1648.24,-4281.62
312757.1827,-11124.23,-822.16,-1600.93,-4214.1
312757.1837,-11012.84,-718.5,-1501.37,-4109.05
312757.1847,-10881.38,-598.86,-1355.7,-3979.54
312757.1857,-10754.25,-479.32,-1215.27,-3853.94
312757.1867,-10627.84,-357.68,-1084.9,-3731.11
312757.1877,-10536.1,-267.36,-1029.11,-3641.51
312757.1887,-10483.65,-212.72,-1000.55,-3591.97
312757.1897,-10449.74,-184.01,-961.59,-3566.36
312757.1907,-10475.21,-216.91,-963.64,-3599.5
312757.1917,-10552.98,-296.07,-994.01,-3676.75
312757.1927,-10648.06,-387.38,-1062.44,-3770.35
312757.1937,-10752.63,-485.75,-1174.83,-3871.73
312757.1947,-10874.32,-598.05,-1305.68,-3985.6
312757.1957,-10990.86,-705.43,-1420.83,-4095.6
312757.1967,-11099.58,-799.08,-1524.21,-4191.64
312757.1977,-11190.23,-876.76,-1618.96,-4272.22
312757.1987,-11223.7,-905.8,-1650.81,-4302.22
312757.1997,-11221.12,-896.84,-1643.71,-4294.16
312757.2007,-11213.45,-878.67,-1637.08,-4277.42
312757.2017,-11192.42,-838.95,-1613.62,-4236.94
312757.2027,-11125.57,-761.03,-1545.29,-4157.5
312757.2037,-11025.72,-666.19,-1457.88,-4058.7
312757.2047,-10908.13,-553.85,-1334.86,-3942.2
312757.2057,-10792.92,-448.51,-1210.02,-3838.3
312757.2067,-10685.02,-354.15,-1119.33,-3743.36
312757.2077,-10584.02,-266.55,-1043.84,-3656.72
312757.2087,-10522.89,-214.86,-971.89,-3608.42
312757.2097,-10498.81,-201.94,-922.35,-3597.31
312757.2107,-10505.3,-212.38,-922.25,-3612.95
312757.2117,-10553.08,-258.26,-975.23,-3659.92
312757.2127,-10630.8,-335.6,-1052.38,-3734.21
312757.2137,-10721.92,-434.88,-1146.13,-3830.53
312757.2147,-10831.21,-551.22,-1251.03,-3938.96
312757.2157,-10949.95,-668.95,-1378.87,-4055.69
312757.2167,-11070.01,-782.78,-1522.64,-4172.04
312757.2177,-11161.47,-860.98,-1610.28,-4253.48
312757.2187,-11202.72,-890.92,-1643.47,-4282.14
312757.2197,-11218.74,-896.26,-1660.11,-4287.05
312757.2207,-11222.98,-889.68,-1661.21,-4283.0
312757.2217,-11198.38,-858.97,-1629.97,-4251.24
312757.2227,-11115.98,-783.63,-1555.54,-4171.99
312757.2237,-11008.07,-676.73,-1462.89,-4068.23
312757.2247,-10903.22,-568.91,-1366.66,-3962.04
312757.2257,-10806.51,-478.55,-1275.44,-3870.3
312757.2267,-10706.52,-388.19,-1171.4,-3777.41
312757.2277,-10607.15,-293.59,-1063.68,-3678.85
312757.2287,-10540.92,-235.65,-997.4,-3624.01
312757.2297,-10507.58,-219.54,-965.26,-3611.47
312757.2307,-10508.25,-236.94,-975.85,-3632.83
312757.2317,-10567.9,-296.59,-1021.05,-3691.39
312757.2327,-10669.04,-386.05,-1099.63,-3777.36
312757.2337,-10780.15,-490.52,-1199.77,-3881.31
312757.2347,-10894.68,-598.48,-1319.5,-3993.18
312757.2357,-10988.76,-698.23,-1432.8,-4093.27
312757.2367,-11070.82,-785.45,-1524.07,-4168.08
312757.2377,-11162.71,-872.23,-1620.39,-4247.71
312757.2387,-11244.16,-948.43,-1716.8,-4321.86
312757.2397,-11278.11,-972.75,-1748.66,-4349.47
312757.2407,-11217.4,-916.29,-1675.18,-4298.74
312757.2417,-11113.22,-809.76,-1562.55,-4196.79
312757.2427,-11015.04,-705.15,-1456.55,-4093.7
312757.2437,-10940.27,-622.65,-1371.43,-4012.49
312757.2447,-10867.79,-537.87,-1298.71,-3929.9
312757.2457,-10773.76,-442.55,-1201.2,-3836.44
312757.2467,-10681.15,-356.01,-1106.26,-3748.37
312757.2477,-10599.38,-280.38,-1032.88,-3672.89
312757.2487,-10555.7,-243.38,-1000.12,-3639.27
312757.2497,-10536.48,-225.93,-986.29,-3623.2
312757.2507,-10540.11,-231.46,-1005.13,-3632.26
312757.2517,-10585.07,-277.33,-1058.44,-3682.71
312757.2527,-10654.16,-349.09,-1117.42,-3759.24
312757.2537,-10745.48,-444.17,-1192.76,-3854.04
312757.2547,-10875.8,-566.15,-1299.81,-3971.34
312757.2557,-11004.16,-688.7,-1385.64,-4091.45
312757.2567,-11094.91,-785.59,-1479.44,-4184.91
312757.2577,-11163.09,-854.21,-1564.55,-4252.2
312757.2587,-11226.13,-909.76,-1630.59,-4300.17
312757.2597,-11252.17,-931.55,-1645.42,-4314.14
312757.2607,-11254.41,-930.12,-1643.04,-4302.93
312757.2617,-11207.92,-875.76,-1613.71,-4245.33
312757.2627,-11120.42,-784.73,-1547.15,-4154.97
312757.2637,-11018.47,-680.16,-1436.38,-4048.01
312757.2647,-10862.35,-531.86,-1280.98,-3902.77
312757.2657,-10721.97,-402.02,-1158.57,-3779.6
312757.2667,-10623.36,-313.85,-1076.03,-3698.92
312757.2677,-10559.8,-257.21,-1040.94,-3651.95
312757.2687,-10521.27,-223.64,-1022.77,-3628.11
312757.2697,-10498.86,-213.62,-1002.17,-3619.96
312757.2707,-10499.1,-229.17,-996.26,-3630.92
312757.2717,-10541.01,-279.38,-1032.92,-3680.61
312757.2727,-10626.41,-369.31,-1110.6,-3768.49
312757.2737,-10741.9,-482.99,-1220.04,-3878.4
312757.2747,-10867.55,-600.81,-1346.49,-3992.7
312757.2757,-10992.0,-714.64,-1479.82,-4106.14
312757.2767,-11098.2,-805.95,-1582.58,-4199.31
312757.2777,-11180.45,-874.57,-1636.03,-4273.08
312757.2787,-11238.72,-915.24,-1653.81,-4320.77
312757.2797,-11272.53,-934.46,-1669.45,-4341.56
312757.2807,-11254.36,-912.14,-1643.32,-4312.85
312757.2817,-11174.3,-833.61,-1570.08,-4226.97
312757.2827,-11083.6,-734.76,-1503.47,-4125.69
312757.2837,-10995.01,-644.3,-1416.68,-4031.04
312757.2847,-10877.47,-536.73,-1301.72,-3916.36
312757.2857,-10766.84,-431.44,-1198.29,-3808.26
312757.2867,-10676.29,-346.47,-1103.16,-3726.67
312757.2877,-10586.22,-271.18,-1014.23,-3655.62
312757.2887,-10512.45,-214.53,-948.33,-3598.02
312757.2897,-10482.79,-190.73,-923.11,-3579.71
312757.2907,-10476.4,-193.83,-923.35,-3583.1
312757.2917,-10520.98,-247.0,-975.32,-3636.46
312757.2927,-10616.97,-339.32,-1070.5,-3733.11
312757.2937,-10731.03,-447.37,-1182.6,-3846.36
312757.2947,-10848.62,-561.67,-1303.24,-3964.57
312757.2957,-10967.21,-671.96,-1419.16,-4076.82
312757.2967,-11079.84,-772.19,-1527.12,-4178.62
312757.2977,-11174.3,-856.83,-1619.05,-4262.21
312757.2987,-11233.86,-907.76,-1674.51,-4310.18
312757.2997,-11262.7,-927.07,-1698.88,-4329.3
312757.3007,-11262.23,-920.72,-1697.35,-4319.05
312757.3017,-11212.97,-871.37,-1644.71,-4262.78
312757.3027,-11132.1,-790.07,-1562.55,-4177.9
312757.3037,-11023.95,-684.69,-1456.02,-4066.66
312757.3047,-10899.55,-564.96,-1327.94,-3943.21
312757.3057,-10811.14,-476.07,-1238.44,-3860.04
312757.3067,-10738.71,-408.36,-1171.97,-3794.15
312757.3077,-10663.13,-339.32,-1110.74,-3727.34
312757.3087,-10603.86,-290.2,-1062.63,-3681.99
312757.3097,-10546.69,-252.87,-992.35,-3644.18
312757.3107,-10526.9,-253.3,-966.6,-3640.03
312757.3117,-10559.99,-297.07,-985.24,-3685.05
312757.3127,-10635.09,-372.7,-1054.05,-3759.34
312757.3137,-10735.94,-464.3,-1157.9,-3846.98
312757.3147,-10854.34,-563.67,-1285.12,-3955.17
312757.3157,-10960.96,-648.59,-1402.24,-4048.44
312757.3167,-11055.33,-732.85,-1496.36,-4135.61
312757.3177,-11140.01,-817.49,-1587.82,-4219.25
312757.3187,-11191.85,-868.8,-1649.43,-4268.79
312757.3197,-11211.11,-880.62,-1663.64,-4276.47
312757.3207,-11205.82,-867.94,-1643.99,-4254.87
312757.3217,-11164.86,-832.18,-1602.13,-4214.95
312757.3227,-11099.67,-773.76,-1536.04,-4155.68
312757.3237,-10992.15,-685.07,-1430.75,-4061.79
312757.3247,-10864.02,-568.72,-1314.21,-3942.3
312757.3257,-10741.76,-449.23,-1200.01,-3827.0
312757.3267,-10633.8,-350.95,-1098.97,-3726.2
312757.3277,-10544.78,-268.98,-1017.19,-3647.04
312757.3287,-10494.85,-219.15,-960.54,-3607.51
312757.3297,-10471.54,-198.46,-928.07,-3592.63
312757.3307,-10473.78,-201.56,-924.3,-3596.64
312757.3317,-10520.32,-244.47,-962.83,-3641.37
312757.3327,-10613.73,-332.36,-1051.04,-3733.16
312757.3337,-10728.07,-440.26,-1165.44,-3847.89
312757.3347,-10853.82,-556.42,-1281.79,-3964.52
312757.3357,-10984.85,-670.53,-1404.57,-4076.53
312757.3367,-11111.59,-780.3,-1534.41,-4184.68
312757.3377,-11212.92,-873.71,-1626.01,-4272.6
312757.3387,-11275.25,-931.12,-1664.59,-4322.29
312757.3397,-11304.62,-956.87,-1687.86,-4341.94
312757.3407,-11287.02,-945.19,-1681.04,-4326.92
312757.3417,-11221.98,-887.44,-1634.45,-4267.07
312757.3427,-11132.91,-802.23,-1566.6,-4178.14
312757.3437,-11035.87,-706.15,-1499.61,-4080.11
312757.3447,-10915.61,-588.13,-1424.17,-3967.57
312757.3457,-10792.59,-470.59,-1317.6,-3858.42
312757.3467,-10677.82,-357.06,-1164.53,-3745.84
312757.3477,-10553.27,-251.34,-1004.93,-3632.98
312757.3487,-10488.13,-196.55,-940.42,-3582.86
312757.3497,-10488.94,-195.55,-966.41,-3583.53
312757.3507,-10494.09,-208.33,-976.85,-3597.98
312757.3517,-10531.0,-258.64,-997.88,-3647.38
312757.3527,-10614.68,-341.61,-1075.46,-3737.16
312757.3537,-10714.96,-440.65,-1166.3,-3841.26
312757.3547,-10845.85,-562.0,-1296.14,-3966.86
312757.3557,-10968.54,-675.54,-1419.74,-4087.5
312757.3567,-11079.31,-780.15,-1531.32,-4194.64
312757.3577,-11169.53,-859.5,-1607.47,-4273.99
312757.3587,-11218.93,-900.79,-1650.52,-4313.33
312757.3597,-11238.53,-913.57,-1663.64,-4322.62
312757.3607,-11224.7,-888.92,-1647.66,-4297.78
312757.3617,-11199.09,-846.67,-1622.82,-4248.43
312757.3627,-11117.32,-763.37,-1540.47,-4156.64
312757.3637,-10985.71,-642.01,-1411.15,-4029.27
312757.3647,-10869.41,-532.2,-1306.15,-3915.22
312757.3657,-10774.09,-447.65,-1224.8,-3823.76
312757.3667,-10667.99,-359.15,-1129.2,-3733.25
312757.3677,-10573.96,-284.05,-1034.83,-3660.01
312757.3687,-10526.99,-243.04,-963.07,-3622.96
312757.3697,-10500.48,-216.05,-929.74,-3599.64
312757.3707,-10501.96,-220.35,-955.53,-3610.42
312757.3717,-10546.07,-264.5,-1011.04,-3663.59
312757.3727,-10597.8,-320.63,-1051.28,-3728.87
312757.3737,-10683.35,-404.55,-1116.75,-3817.84
312757.3747,-10818.96,-525.05,-1239.63,-3938.44
312757.3757,-10972.93,-658.75,-1393.37,-4072.62
312757.3767,-11106.44,-776.1,-1524.69,-4188.4
312757.3777,-11210.49,-865.51,-1628.3,-4279.23
312757.3787,-11263.85,-911.71,-1685.1,-4318.67
312757.3797,-11267.52,-911.76,-1678.04,-4313.8
312757.3807,-11249.64,-896.98,-1654.67,-4295.73
312757.3817,-11207.68,-856.11,-1613.28,-4252.96
312757.3827,-11119.18,-770.24,-1524.97,-4159.02
312757.3837,-11007.36,-662.61,-1427.17,-4049.97
312757.3847,-10886.29,-559.33,-1324.89,-3946.02
312757.3857,-10751.11,-449.47,-1204.63,-3834.96
312757.3867,-10631.61,-339.13,-1084.18,-3722.72
312757.3877,-10542.49,-255.73,-992.68,-3639.03
312757.3887,-10505.68,-225.16,-966.6,-3611.37
312757.3897,-10505.49,-224.83,-982.76,-3620.15
312757.3907,-10524.04,-239.71,-1004.7,-3643.42
312757.3917,-10579.68,-287.1,-1055.24,-3697.97
312757.3927,-10663.37,-366.54,-1129.96,-3779.51
312757.3937,-10765.94,-465.2,-1231.96,-3875.45
312757.3947,-10889.1,-575.16,-1350.69,-3987.27
312757.3957,-10996.1,-666.43,-1449.16,-4083.44
312757.3967,-11089.66,-747.39,-1519.87,-4168.61
312757.3977,-11173.11,-821.21,-1579.95,-4241.51
312757.3987,-11234.86,-868.89,-1616.53,-4281.81
312757.3997,-11257.13,-884.39,-1638.7,-4291.06
312757.4007,-11247.68,-883.05,-1657.53,-4288.15
312757.4017,-11212.68,-859.21,-1641.8,-4258.68
312757.4027,-11125.14,-794.65,-1583.29,-4189.59
312757.4037,-10963.01,-663.61,-1447.82,-4053.07
312757.4047,-10806.37,-529.86,-1306.15,-3912.59
312757.4057,-10703.76,-425.39,-1188.95,-3803.35
312757.4067,-10639.29,-355.01,-1090.57,-3733.64
312757.4077,-10560.85,-282.96,-987.48,-3661.35
312757.4087,-10507.06,-245.29,-939.23,-3618.81
312757.4097,-10494.42,-239.32,-940.61,-3614.28
312757.4107,-10486.94,-236.23,-931.5,-3613.76
312757.4117,-10509.83,-258.97,-950.24,-3637.98
312757.4127,-10598.95,-338.22,-1039.93,-3725.1
312757.4137,-10728.79,-453.76,-1170.4,-3847.84
312757.4147,-10861.68,-572.01,-1320.55,-3972.01
312757.4157,-10984.09,-680.54,-1457.5,-4082.92
312757.4167,-11092.0,-777.24,-1560.21,-4179.91
312757.4177,-11197.38,-875.57,-1656.87,-4273.75
312757.4187,-11263.9,-934.74,-1725.34,-4331.4
312757.4197,-11284.64,-947.14,-1763.58,-4345.7
312757.4207,-11259.75,-921.44,-1761.1,-4321.96
312757.4217,-11205.91,-876.47,-1716.85,-4272.99
312757.4227,-11131.1,-801.04,-1614.95,-4191.83
312757.4237,-11029.44,-692.46,-1464.7,-4083.2
312757.4247,-10930.11,-590.52,-1333.9,-3977.2
312757.4257,-10824.97,-491.33,-1199.44,-3873.44
312757.4267,-10665.37,-351.95,-1043.27,-3731.44
312757.4277,-10538.48,-238.85,-942.75,-3616.19
312757.4287,-10488.61,-198.79,-925.49,-3581.72
312757.4297,-10478.69,-195.69,-929.78,-3587.25
312757.4307,-10489.56,-214.05,-956.73,-3612.47
312757.4317,-10520.55,-250.77,-987.58,-3652.95
312757.4327,-10580.78,-305.27,-1030.73,-3711.99
312757.4337,-10685.25,-399.68,-1118.28,-3808.64
312757.4347,-10817.77,-518.85,-1238.97,-3928.38
312757.4357,-10963.16,-650.22,-1376.58,-4056.07
312757.4367,-11098.24,-773.62,-1509.81,-4176.19
312757.4377,-11202.77,-872.18,-1622.53,-4266.6
312757.4387,-11265.85,-925.87,-1702.4,-4317.9
312757.4397,-11270.95,-929.21,-1707.55,-4320.91
312757.4407,-11238.24,-903.61,-1673.41,-4292.82
312757.4417,-11190.03,-855.21,-1631.4,-4250.15
312757.4427,-11108.69,-779.01,-1550.39,-4171.94
312757.4437,-10997.73,-688.93,-1458.26,-4074.76
312757.4447,-10873.99,-581.69,-1349.02,-3961.42
312757.4457,-10755.21,-463.91,-1214.65,-3843.07
312757.4467,-10651.78,-359.44,-1087.76,-3738.02
312757.4477,-10536.67,-260.02,-978.9,-3637.74
312757.4487,-10483.7,-217.25,-948.72,-3598.31
312757.4497,-10474.16,-204.94,-937.89,-3590.97
312757.4507,-10470.87,-199.03,-919.77,-3586.82
312757.4517,-10499.81,-223.68,-952.67,-3614.47
312757.4527,-10581.88,-295.11,-1035.17,-3694.39
312757.4537,-10696.41,-404.55,-1143.74,-3805.02
312757.4547,-10832.88,-538.73,-1280.74,-3942.35
312757.4557,-10977.27,-676.49,-1420.45,-4079.15
312757.4567,-11095.29,-781.82,-1530.6,-4186.58
312757.4577,-11179.69,-860.41,-1612.38,-4262.97
312757.4587,-11233.28,-904.56,-1661.59,-4307.37
312757.4597,-11258.46,-915.38,-1677.56,-4312.13
312757.4607,-11270.14,-915.86,-1681.52,-4306.98
312757.4617,-11245.78,-888.01,-1649.0,-4271.84
312757.4627,-11176.06,-824.02,-1573.8,-4203.42
312757.4637,-11074.83,-726.94,-1487.54,-4107.52
312757.4647,-10956.81,-608.06,-1386.55,-3991.18
312757.4657,-10832.74,-494.1,-1269.05,-3874.78
312757.4667,-10687.88,-368.98,-1136.45,-3753.76
312757.4677,-10549.21,-253.63,-1014.14,-3644.18
312757.4687,-10472.82,-189.88,-945.57,-3583.19
312757.4697,-10454.56,-174.38,-932.26,-3574.99
312757.4707,-10464.43,-189.02,-937.18,-3593.06
312757.4717,-10512.4,-247.62,-986.58,-3652.0
312757.4727,-10598.76,-337.79,-1077.8,-3746.8
312757.4737,-10694.74,-434.68,-1175.59,-3846.65
312757.4747,-10805.42,-537.73,-1279.93,-3949.93
312757.4757,-10931.78,-650.02,-1399.47,-4062.61
312757.4767,-11062.19,-762.03,-1519.73,-4174.85
312757.4777,-11177.3,-856.4,-1616.67,-4263.93
312757.4787,-11235.33,-898.98,-1655.77,-4299.88
312757.4797,-11251.4,-909.57,-1664.35,-4307.03
312757.4807,-11245.82,-904.85,-1667.21,-4300.12
312757.4817,-11200.57,-867.56,-1639.46,-4254.15
312757.4827,-11119.08,-786.4,-1567.03,-4170.47
312757.4837,-11024.81,-693.85,-1469.52,-4074.19
312757.4847,-10914.42,-593.66,-1355.84,-3966.95
312757.4857,-10781.91,-476.79,-1227.09,-3847.6
312757.4867,-10654.64,-369.17,-1113.51,-3741.31
312757.4877,-10550.83,-276.42,-1020.24,-3655.67
312757.4887,-10499.76,-225.16,-970.6,-3610.71
312757.4897,-10480.45,-208.76,-953.39,-3597.78
312757.4907,-10487.94,-214.15,-954.29,-3603.94
312757.4917,-10538.39,-264.07,-998.69,-3653.81
312757.4927,-10623.65,-343.18,-1078.42,-3737.5
312757.4937,-10728.89,-440.88,-1179.89,-3840.3
312757.4947,-10851.1,-552.7,-1303.39,-3954.74
312757.4957,-10976.79,-669.29,-1429.51,-4070.95
312757.4967,-11105.01,-779.25,-1551.25,-4185.63
312757.4977,-11215.55,-866.89,-1660.63,-4277.04
312757.4987,-11271.95,-914.29,-1715.76,-4320.86
312757.4997,-11289.55,-930.83,-1710.42,-4332.83
312757.5007,-11278.2,-922.06,-1673.65,-4319.38
312757.5017,-11218.93,-875.04,-1618.0,-4264.78
312757.5027,-11135.58,-802.37,-1543.05,-4187.2
312757.5037,-11025.86,-701.43,-1445.72,-4084.97
312757.5047,-10889.96,-577.97,-1317.22,-3957.37
312757.5057,-10782.29,-478.12,-1216.22,-3853.13
312757.5067,-10705.9,-397.4,-1145.98,-3774.6
312757.5077,-10626.08,-321.91,-1082.04,-3698.54
312757.5087,-10548.97,-266.08,-1011.75,-3639.22
312757.5097,-10509.06,-236.8,-965.98,-3610.71
312757.5107,-10508.25,-233.94,-960.21,-3614.66
312757.5117,-10556.08,-273.56,-1004.03,-3662.92
312757.5127,-10627.51,-341.37,-1065.21,-3736.45
312757.5137,-10721.4,-434.11,-1147.32,-3833.72
312757.5147,-10835.55,-547.36,-1274.63,-3952.46
312757.5157,-10958.63,-659.8,-1402.38,-4064.37
312757.5167,-11079.5,-763.03,-1525.45,-4170.47
312757.5177,-11184.88,-851.49,-1638.36,-4259.4
312757.5187,-11236.48,-900.7,-1701.21,-4305.6
312757.5197,-11264.66,-922.63,-1739.22,-4323.86
312757.5207,-11278.44,-927.88,-1749.61,-4327.63
312757.5217,-11243.92,-899.12,-1684.76,-4296.59
312757.5227,-11140.54,-811.62,-1551.77,-4202.08
312757.5237,-11008.6,-685.64,-1402.52,-4071.28
312757.5247,-10895.68,-568.1,-1295.9,-3954.89
312757.5257,-10798.74,-471.54,-1217.51,-3853.32
312757.5267,-10694.12,-374.98,-1127.82,-3755.62
312757.5277,-10585.4,-282.86,-1025.77,-3662.06
312757.5287,-10502.39,-219.68,-937.99,-3593.87
312757.5297,-10466.72,-197.46,-907.56,-3565.88
312757.5307,-10466.77,-202.75,-927.88,-3566.69
312757.5317,-10509.78,-248.81,-995.59,-3615.19
312757.5327,-10587.07,-336.74,-1098.82,-3705.45
312757.5337,-10661.03,-414.28,-1163.96,-3795.24
312757.5347,-10776.14,-515.99,-1229.48,-3907.39
312757.5357,-10932.78,-651.31,-1355.55,-4045.3
312757.5367,-11075.02,-770.86,-1498.27,-4171.09
312757.5377,-11163.19,-847.96,-1577.14,-4243.9
312757.5387,-11206.1,-884.91,-1619.2,-4277.56
312757.5397,-11238.29,-907.23,-1665.07,-4306.17
312757.5407,-11254.07,-908.71,-1690.05,-4313.14
312757.5417,-11205.15,-860.02,-1639.65,-4249.76
312757.5427,-11120.99,-782.78,-1556.16,-4162.98
312757.5437,-11024.67,-699.23,-1478.43,-4075.81
312757.5447,-10892.92,-589.9,-1355.6,-3967.43
312757.5457,-10764.79,-480.32,-1222.9,-3854.9
312757.5467,-10651.64,-372.36,-1115.85,-3746.7
312757.5477,-10563.47,-285.77,-1037.22,-3663.87
312757.5487,-10523.8,-241.8,-1003.07,-3624.15
312757.5497,-10514.21,-227.17,-971.89,-3613.42
312757.5507,-10509.21,-224.35,-920.34,-3610.85
312757.5517,-10534.24,-250.96,-932.69,-3639.32
312757.5527,-10620.88,-333.02,-1054.72,-3725.72
312757.5537,-10703.09,-411.13,-1150.32,-3811.22
312757.5547,-10768.7,-480.27,-1220.23,-3886.27
312757.5557,-10882.95,-594.47,-1343.77,-4004.0
312757.5567,-11013.56,-721.03,-1459.98,-4127.17
312757.5577,-11115.84,-813.82,-1542.52,-4217.86
312757.5587,-11189.32,-873.76,-1596.78,-4279.8
312757.5597,-11217.55,-895.64,-1632.5,-4302.12
312757.5607,-11216.98,-893.93,-1651.1,-4296.83
312757.5617,-11169.01,-847.44,-1617.29,-4243.47
312757.5627,-11090.71,-773.57,-1548.58,-4161.84
312757.5637,-10996.58,-685.36,-1452.83,-4066.61
312757.5647,-10871.94,-565.62,-1335.86,-3945.11
312757.5657,-10742.95,-445.89,-1215.22,-3825.24
312757.5667,-10640.57,-349.33,-1108.98,-3728.49
312757.5677,-10545.3,-261.78,-1015.28,-3643.89
312757.5687,-10488.61,-210.33,-962.26,-3593.87
312757.5697,-10486.32,-211.72,-962.31,-3596.45
312757.5707,-10509.54,-234.03,-983.1,-3622.63
312757.5717,-10551.74,-276.33,-1019.86,-3668.64
312757.5727,-10634.85,-356.82,-1093.24,-3754.52
312757.5737,-10751.77,-467.35,-1199.34,-3867.53
312757.5747,-10888.53,-587.75,-1324.75,-3994.32
312757.5757,-11019.33,-703.05,-1449.16,-4111.58
312757.5767,-11127.9,-802.18,-1559.4,-4208.14
312757.5777,-11225.03,-883.58,-1659.01,-4287.0
312757.5787,-11289.17,-929.21,-1709.51,-4330.59
312757.5797,-11311.48,-941.94,-1710.22,-4339.41
312757.5807,-11290.41,-927.83,-1695.68,-4322.86
312757.5817,-11224.22,-873.61,-1650.1,-4261.78
312757.5827,-11129.43,-785.68,-1556.21,-4171.13
312757.5837,-11014.56,-671.34,-1431.89,-4060.22
312757.5847,-10892.82,-560.24,-1309.73,-3940.39
312757.5857,-10788.87,-462.77,-1213.5,-3838.63
312757.5867,-10692.74,-371.69,-1126.58,-3746.7
312757.5877,-10581.92,-273.56,-1015.38,-3647.47
312757.5887,-10486.08,-189.11,-926.07,-3566.6
312757.5897,-10462.33,-166.37,-912.81,-3549.67
312757.5907,-10468.44,-181.39,-930.17,-3568.36
312757.5917,-10503.1,-236.7,-973.65,-3620.91
312757.5927,-10587.36,-328.35,-1061.63,-3717.38
312757.5937,-10689.21,-436.16,-1169.01,-3829.24
312757.5947,-10806.75,-546.07,-1281.69,-3945.45
312757.5957,-10936.5,-656.65,-1402.95,-4063.61
312757.5967,-11049.56,-755.02,-1512.15,-4166.03
312757.5977,-11144.45,-834.61,-1595.45,-4245.71
312757.5987,-11205.25,-885.44,-1648.57,-4294.59
312757.5997,-11224.6,-904.04,-1667.36,-4310.42
312757.6007,-11224.13,-897.6,-1666.4,-4301.21
312757.6017,-11188.41,-853.11,-1630.12,-4253.53
312757.6027,-11107.02,-773.29,-1556.06,-4169.85
312757.6037,-10994.63,-666.19,-1450.16,-4060.27
312757.6047,-10864.45,-539.35,-1323.46,-3928.04
312757.6057,-10744.62,-424.86,-1209.78,-3807.97
312757.6067,-10650.87,-339.89,-1118.99,-3722.0
312757.6077,-10578.2,-274.37,-1054.14,-3655.77
312757.6087,-10533.05,-234.41,-1008.7,-3621.44
312757.6097,-10519.6,-223.68,-988.96,-3612.95
312757.6107,-10528.09,-236.08,-1008.61,-3629.97
312757.6117,-10576.77,-281.29,-1055.43,-3679.09
312757.6127,-10663.46,-358.06,-1100.21,-3759.53
312757.6137,-10767.03,-457.57,-1186.66,-3862.19
312757.6147,-10886.96,-566.58,-1309.06,-3974.63
312757.6157,-11009.22,-672.96,-1414.82,-4082.16
312757.6167,-11123.52,-771.0,-1519.87,-4182.86
312757.6177,-11219.69,-854.11,-1609.04,-4267.6
312757.6187,-11267.38,-897.26,-1658.06,-4308.89
312757.6197,-11277.06,-913.81,-1675.94,-4319.19
312757.6207,-11273.48,-910.62,-1680.42,-4311.04
312757.6217,-11231.61,-867.41,-1644.66,-4270.32
312757.6227,-11143.78,-791.74,-1566.74,-4191.26
312757.6237,-11021.76,-690.6,-1459.65,-4084.54
312757.6247,-10871.65,-572.44,-1329.99,-3957.37
312757.6257,-10722.69,-445.75,-1205.73,-3828.62
312757.6267,-10617.59,-344.13,-1104.64,-3727.87
312757.6277,-10526.37,-260.93,-1004.74,-3646.33
312757.6287,-10477.35,-219.11,-961.64,-3602.55
312757.6297,-10480.36,-209.9,-970.7,-3596.35
312757.6307,-10496.71,-216.72,-989.87,-3606.08
312757.6317,-10552.88,-266.65,-1034.83,-3659.92
312757.6327,-10640.91,-347.9,-1098.16,-3747.32
312757.6337,-10758.26,-453.0,-1204.78,-3858.61
312757.6347,-10883.9,-568.49,-1319.84,-3974.3
312757.6357,-10994.48,-671.48,-1418.97,-4080.73
312757.6367,-11094.86,-766.37,-1499.22,-4173.18
312757.6377,-11182.31,-849.01,-1581.76,-4246.95
312757.6387,-11246.83,-906.13,-1650.48,-4294.21
312757.6397,-11236.86,-896.5,-1651.14,-4280.19
312757.6407,-11187.41,-869.56,-1628.97,-4250.62
312757.6417,-11141.83,-837.42,-1604.51,-4214.72
312757.6427,-11083.65,-777.91,-1544.05,-4160.26
312757.6437,-10999.3,-693.56,-1457.98,-4073.48
312757.6447,-10896.78,-590.71,-1360.85,-3968.57
312757.6457,-10784.48,-483.94,-1251.65,-3857.47
312757.6467,-10671.0,-375.18,-1146.36,-3746.84
312757.6477,-10570.15,-284.77,-1049.42,-3660.01
312757.6487,-10514.31,-233.84,-959.73,-3613.42
312757.6497,-10495.14,-212.19,-919.77,-3594.16
312757.6507,-10494.38,-209.52,-934.22,-3599.98
312757.6517,-10543.63,-249.34,-994.87,-3646.66
312757.6527,-10634.47,-331.12,-1074.03,-3729.01
312757.6537,-10738.42,-434.21,-1150.23,-3834.06
312757.6547,-10850.48,-550.37,-1249.84,-3953.65
312757.6557,-10989.14,-678.4,-1399.04,-4090.17
312757.6567,-11101.25,-782.25,-1515.44,-4191.97
312757.6577,-11162.71,-844.38,-1595.12,-4253.63
312757.6587,-11197.71,-878.95,-1641.85,-4290.34
312757.6597,-11200.1,-886.39,-1642.08,-4294.01
312757.6607,-11184.55,-874.57,-1623.01,-4278.23
312757.6617,-11160.28,-840.04,-1608.56,-4241.75
312757.6627,-11093.62,-772.05,-1545.14,-4168.37
312757.6637,-10990.57,-679.06,-1430.61,-4064.32
312757.6647,-10873.13,-567.34,-1309.73,-3943.01
312757.6657,-10732.84,-429.96,-1186.51,-3800.44
312757.6667,-10606.19,-315.95,-1060.1,-3680.8
312757.6677,-10542.16,-255.2,-992.39,-3626.82
312757.6687,-10515.02,-235.51,-980.42,-3614.57
312757.6697,-10484.6,-215.72,-965.36,-3598.26
312757.6707,-10464.76,-202.13,-946.05,-3589.49
312757.6717,-10513.55,-245.29,-994.63,-3638.79
312757.6727,-10610.15,-329.88,-1081.23,-3726.91
312757.6737,-10704.95,-420.43,-1163.34,-3821.52
312757.6747,-10824.78,-531.72,-1278.5,-3934.48
312757.6757,-10941.46,-640.82,-1389.07,-4044.58
312757.6767,-11042.83,-733.95,-1484.54,-4139.14
312757.6777,-11151.32,-822.59,-1583.67,-4228.74
312757.6787,-11236.76,-883.05,-1654.15,-4287.86
312757.6797,-11275.67,-905.75,-1689.77,-4306.98
312757.6807,-11274.29,-896.79,-1695.97,-4291.15
312757.6817,-11232.19,-853.25,-1657.92,-4242.28
312757.6827,-11156.04,-781.49,-1580.76,-4166.7
312757.6837,-11073.11,-699.38,-1490.93,-4084.11
312757.6847,-10962.73,-596.86,-1383.69,-3977.63
312757.6857,-10831.93,-482.56,-1258.37,-3857.66
312757.6867,-10696.22,-368.69,-1123.62,-3741.12
312757.6877,-10558.65,-270.46,-1009.99,-3641.08
312757.6887,-10481.55,-219.63,-953.91,-3589.25
312757.6897,-10456.28,-201.75,-947.38,-3573.32
312757.6907,-10475.92,-211.95,-983.52,-3593.3
312757.6917,-10545.59,-271.75,-1068.45,-3661.59
312757.6927,-10637.81,-355.15,-1150.47,-3754.09
312757.6937,-10739.23,-452.8,-1221.18,-3857.47
312757.6947,-10862.64,-566.67,-1295.28,-3969.24
312757.6957,-10978.41,-674.3,-1385.4,-4076.05
312757.6967,-11078.6,-762.51,-1487.06,-4167.41
312757.6977,-11160.52,-832.41,-1570.75,-4237.89
312757.6987,-11215.21,-877.57,-1630.59,-4278.8
312757.6997,-11245.11,-908.9,-1659.92,-4300.55
312757.7007,-11257.27,-917.15,-1674.94,-4307.89
312757.7017,-11218.6,-873.8,-1645.47,-4265.83
312757.7027,-11146.5,-802.85,-1578.71,-4190.87
312757.7037,-11033.35,-698.28,-1469.52,-4079.63
312757.7047,-10893.78,-564.38,-1334.95,-3943.3
312757.7057,-10757.54,-441.03,-1207.45,-3823.33
312757.7067,-10654.55,-352.81,-1103.5,-3735.64
312757.7077,-10569.38,-283.86,-1024.06,-3665.26
312757.7087,-10497.43,-223.73,-956.15,-3607.7
312757.7097,-10466.1,-197.6,-933.03,-3583.19
312757.7107,-10455.9,-190.83,-932.03,-3583.15
312757.7117,-10504.91,-241.61,-983.95,-3640.89
312757.7127,-10610.68,-343.04,-1084.66,-3744.98
312757.7137,-10724.83,-448.51,-1189.09,-3846.69
312757.7147,-10858.68,-562.72,-1301.38,-3963.38
312757.7157,-11005.16,-690.46,-1423.6,-4089.93
312757.7167,-11124.42,-790.26,-1539.52,-4195.45
312757.7177,-11203.67,-861.84,-1622.06,-4269.65
312757.7187,-11240.2,-899.79,-1650.24,-4303.41
312757.7197,-11244.3,-907.66,-1645.71,-4303.27
312757.7207,-11236.86,-891.3,-1635.74,-4283.14
312757.7217,-11190.32,-843.48,-1594.21,-4232.22
312757.7227,-11096.34,-767.33,-1518.39,-4149.25
312757.7237,-10995.06,-674.2,-1446.91,-4051.97
312757.7247,-10884.33,-567.15,-1361.32,-3945.4
312757.7257,-10755.87,-453.42,-1228.95,-3827.0
312757.7267,-10609.82,-330.16,-1072.36,-3697.25
312757.7277,-10510.68,-240.76,-984.38,-3612.8
312757.7287,-10477.73,-213.67,-955.92,-3591.25
312757.7297,-10479.26,-212.34,-959.87,-3593.83
312757.7307,-10492.9,-220.16,-987.15,-3606.65
312757.7317,-10534.62,-261.07,-1026.96,-3653.15
312757.7327,-10605.77,-331.07,-1075.03,-3726.53
312757.7337,-10714.68,-432.97,-1160.67,-3828.38
312757.7347,-10846.38,-553.94,-1291.61,-3951.98
312757.7357,-10969.69,-666.0,-1415.49,-4071.38
312757.7367,-11084.37,-767.56,-1525.69,-4177.14
312757.7377,-11176.06,-847.86,-1618.43,-4256.82
312757.7387,-11221.08,-888.4,-1659.44,-4288.53
312757.7397,-11238.43,-899.74,-1658.96,-4294.83
312757.7407,-11239.63,-894.5,-1650.91,-4285.53
312757.7417,-11193.47,-846.29,-1602.08,-4233.46
312757.7427,-11121.85,-774.48,-1539.9,-4161.41
312757.7437,-11021.9,-685.5,-1448.01,-4068.23
312757.7447,-10887.96,-562.57,-1317.79,-3940.01
312757.7457,-10754.21,-436.74,-1209.5,-3815.79
312757.7467,-10659.36,-352.19,-1137.83,-3732.3
312757.7477,-10589.31,-292.83,-1071.55,-3676.99
312757.7487,-10519.93,-240.99,-1006.22,-3626.54
312757.7497,-10480.5,-214.29,-980.9,-3601.84
312757.7507,-10480.69,-220.63,-985.1,-3609.32
312757.7517,-10523.42,-259.92,-1016.0,-3650.43
312757.7527,-10617.31,-343.56,-1071.93,-3739.02
312757.7537,-10723.78,-439.69,-1126.38,-3839.35
312757.7547,-10835.22,-546.22,-1217.08,-3946.88
312757.7557,-10997.87,-695.56,-1379.54,-4098.8
312757.7567,-11140.4,-826.69,-1541.28,-4229.78
312757.7577,-11216.59,-894.64,-1628.59,-4296.06
312757.7587,-11215.02,-886.01,-1628.92,-4280.23
312757.7597,-11176.83,-842.43,-1601.98,-4236.75
312757.7607,-11170.2,-827.41,-1612.71,-4224.97
312757.7617,-11175.25,-823.21,-1622.34,-4216.58
312757.7627,-11125.23,-762.46,-1572.66,-4149.01
312757.7637,-11018.71,-657.03,-1455.97,-4037.09
312757.7647,-10879.8,-539.88,-1311.64,-3913.02
312757.7657,-10750.34,-433.3,-1198.48,-3804.21
312757.7667,-10636.62,-339.7,-1097.77,-3711.65
312757.7677,-10517.03,-245.14,-985.43,-3617.95
312757.7687,-10467.24,-209.76,-952.67,-3584.91
312757.7697,-10469.06,-213.1,-967.5,-3592.06
312757.7707,-10473.82,-210.81,-968.84,-3599.64
312757.7717,-10509.11,-239.94,-994.21,-3633.36
312757.7727,-10590.98,-308.94,-1075.08,-3709.41
312757.7737,-10710.77,-413.56,-1190.47,-3821.23
312757.7747,-10847.09,-532.2,-1313.16,-3943.59
312757.7757,-10968.97,-642.73,-1421.26,-4051.78
312757.7767,-11090.09,-749.78,-1524.97,-4156.54
312757.7777,-11196.95,-836.18,-1618.67,-4239.61
312757.7787,-11259.27,-877.19,-1684.19,-4283.14
312757.7797,-11279.39,-891.49,-1703.21,-4299.12
312757.7807,-11263.56,-882.96,-1676.37,-4292.73
312757.7817,-11227.04,-850.06,-1627.73,-4256.77
312757.7827,-11153.65,-788.55,-1551.25,-4181.0
312757.7837,-11030.15,-688.55,-1440.48,-4075.38
312757.7847,-10881.66,-571.35,-1318.88,-3952.84
312757.7857,-10738.23,-455.09,-1195.62,-3831.58
312757.7867,-10613.92,-352.67,-1092.15,-3725.86
312757.7877,-10525.42,-272.75,-1031.35,-3649.24
312757.7887,-10483.84,-229.22,-988.53,-3602.84
312757.7897,-10448.03,-194.6,-940.08,-3568.7
312757.7907,-10447.17,-193.45,-929.78,-3574.9
312757.7917,-10514.79,-256.44,-986.62,-3645.23
312757.7927,-10600.33,-337.51,-1071.79,-3729.06
312757.7937,-10711.48,-435.3,-1194.91,-3832.39
312757.7947,-10853.01,-557.52,-1360.99,-3960.09
312757.7957,-10966.21,-656.22,-1475.91,-4059.74
312757.7967,-11059.0,-746.06,-1557.45,-4144.81
312757.7977,-11164.09,-839.38,-1655.91,-4236.17
312757.7987,-11251.88,-916.96,-1724.48,-4308.75
312757.7997,-11288.69,-941.37,-1693.58,-4334.07
312757.8007,-11261.66,-913.91,-1620.2,-4300.45
312757.8017,-11199.33,-851.82,-1572.47,-4234.84
312757.8027,-11129.81,-785.88,-1545.0,-4166.32
312757.8037,-11022.38,-692.32,-1469.04,-4063.94
312757.8047,-10891.25,-576.59,-1349.45,-3947.74
312757.8057,-10751.2,-456.19,-1214.55,-3829.53
312757.8067,-10628.46,-346.14,-1091.53,-3721.24
312757.8077,-10552.12,-273.32,-1014.23,-3650.62
312757.8087,-10522.08,-247.81,-984.53,-3634.74
312757.8097,-10527.14,-253.01,-994.3,-3647.42
312757.8107,-10535.1,-257.3,-1002.65,-3651.57
312757.8117,-10565.95,-280.76,-1019.14,-3673.17
312757.8127,-10622.45,-329.45,-1058.29,-3722.72
312757.8137,-10686.07,-393.01,-1102.16,-3783.23
312757.8147,-10797.36,-498.96,-1202.2,-3891.56
312757.8157,-10921.15,-607.73,-1319.55,-4007.67
312757.8167,-11045.84,-716.83,-1450.01,-4123.31
312757.8177,-11161.9,-817.44,-1577.0,-4221.01
312757.8187,-11207.44,-866.99,-1637.17,-4268.74
312757.8197,-11221.7,-887.49,-1663.64,-4286.15
312757.8207,-11217.79,-880.1,-1657.1,-4276.32
312757.8217,-11168.77,-831.65,-1601.08,-4221.11
312757.8227,-11092.71,-751.11,-1518.25,-4139.52
312757.8237,-10994.44,-657.75,-1418.64,-4041.96
312757.8247,-10886.77,-561.81,-1318.55,-3943.3
312757.8257,-10785.91,-466.54,-1223.85,-3845.31
312757.8267,-10681.01,-367.78,-1117.52,-3740.88
312757.8277,-10575.72,-273.08,-1016.38,-3644.75
312757.8287,-10506.39,-215.05,-955.68,-3593.59
312757.8297,-10474.78,-197.22,-935.17,-3580.33
312757.8307,-10467.72,-202.7,-937.65,-3590.39
312757.8317,-10508.92,-246.48,-991.77,-3645.61
312757.8327,-10595.61,-328.4,-1084.38,-3732.16
312757.8337,-10692.17,-416.76,-1171.88,-3821.56
312757.8347,-10800.41,-516.22,-1266.05,-3924.7
312757.8357,-10923.1,-629.66,-1374.01,-4037.67
312757.8367,-11041.69,-734.04,-1473.9,-4140.47
312757.8377,-11134.1,-812.72,-1560.16,-4217.63
312757.8387,-11199.43,-864.89,-1629.64,-4270.94
312757.8397,-11233.81,-887.44,-1663.07,-4296.49
312757.8407,-11233.95,-881.72,-1659.68,-4286.58
312757.8417,-11196.9,-842.57,-1617.72,-4237.99
312757.8427,-11133.05,-774.57,-1549.67,-4165.46
312757.8437,-11040.4,-687.65,-1451.68,-4076.67
312757.8447,-10934.64,-587.56,-1339.96,-3973.72
312757.8457,-10833.46,-489.66,-1241.4,-3869.58
312757.8467,-10735.47,-391.2,-1164.72,-3772.83
312757.8477,-10629.75,-289.06,-1067.78,-3670.6
312757.8487,-10546.3,-218.39,-998.07,-3599.45
312757.8497,-10510.92,-186.25,-984.05,-3573.47
312757.8507,-10512.5,-191.83,-999.12,-3581.33
312757.8517,-10519.46,-221.54,-1009.85,-3611.28
312757.8527,-10560.66,-287.82,-1068.26,-3679.94
312757.8537,-10661.51,-390.15,-1175.45,-3786.71
312757.8547,-10800.22,-517.7,-1305.34,-3918.65
312757.8557,-10940.6,-645.02,-1428.03,-4053.07
312757.8567,-11070.06,-764.99,-1530.74,-4177.43
312757.8577,-11154.13,-842.24,-1587.92,-4254.15
312757.8587,-11189.99,-870.32,-1605.61,-4283.38
312757.8597,-11228.85,-894.02,-1650.38,-4306.65
312757.8607,-11239.91,-898.89,-1672.46,-4306.98
312757.8617,-11187.08,-849.58,-1635.03,-4250.1
312757.8627,-11108.26,-775.0,-1577.0,-4167.6
312757.8637,-11005.12,-675.54,-1471.62,-4061.79
312757.8647,-10867.31,-553.23,-1330.28,-3931.48
312757.8657,-10731.32,-438.55,-1188.99,-3809.36
312757.8667,-10627.65,-344.8,-1070.36,-3711.8
312757.8677,-10542.97,-264.98,-982.28,-3637.31
312757.8687,-10481.07,-215.58,-941.37,-3590.77
312757.8697,-10456.23,-203.42,-938.42,-3577.76
312757.8707,-10473.68,-228.93,-959.21,-3600.07
312757.8717,-10527.66,-285.53,-1024.77,-3660.73
312757.8727,-10618.31,-369.6,-1133.54,-3753.14
312757.8737,-10726.36,-465.49,-1212.64,-3854.08
312757.8747,-10795.98,-527.33,-1277.45,-3920.36
312757.8757,-10857.96,-578.02,-1353.84,-3977.2
312757.8767,-10983.18,-685.69,-1446.82,-4090.17
312757.8777,-11149.46,-834.04,-1588.68,-4242.52
312757.8787,-11239.48,-906.04,-1706.7,-4318.91
312757.8797,-11252.6,-913.19,-1728.49,-4323.72
312757.8807,-11243.77,-896.26,-1697.25,-4303.6
312757.8817,-11219.12,-851.97,-1638.46,-4251.58
312757.8827,-11135.2,-762.75,-1527.26,-4154.87
312757.8837,-11010.84,-650.36,-1397.42,-4039.0
312757.8847,-10891.72,-535.54,-1271.39,-3923.37
312757.8857,-10780.67,-433.49,-1152.71,-3817.84
312757.8867,-10687.11,-350.28,-1084.76,-3733.25
312757.8877,-10604.29,-282.48,-1032.54,-3660.11
312757.8887,-10543.3,-236.08,-987.77,-3619.39
312757.8897,-10499.67,-216.1,-948.57,-3598.55
312757.8907,-10489.7,-222.97,-933.46,-3602.74
312757.8917,-10526.28,-262.83,-965.17,-3644.56
312757.8927,-10567.24,-302.51,-1017.62,-3695.68
312757.8937,-10639.38,-368.69,-1097.92,-3774.17
312757.8947,-10779.57,-491.91,-1230.76,-3906.82
312757.8957,-10932.07,-627.85,-1367.14,-4042.1
312757.8967,-11043.74,-734.0,-1471.0,-4144.62
312757.8977,-11151.03,-830.32,-1590.78,-4241.99
312757.8987,-11233.81,-893.78,-1686.86,-4309.8
312757.8997,-11248.45,-907.04,-1707.46,-4313.52
312757.9007,-11189.56,-858.64,-1650.91,-4258.11
312757.9017,-11127.52,-796.75,-1601.79,-4192.21
312757.9027,-11088.56,-749.59,-1585.1,-4139.52
312757.9037,-11011.94,-675.77,-1491.74,-4059.32
312757.9047,-10878.99,-559.52,-1344.63,-3937.29
312757.9057,-10749.29,-445.56,-1221.47,-3818.94
312757.9067,-10646.92,-348.04,-1108.69,-3725.82
312757.9077,-10549.02,-262.88,-996.3,-3642.18
312757.9087,-10481.55,-210.81,-930.6,-3590.3
312757.9097,-10475.92,-205.71,-925.16,-3586.15
312757.9107,-10499.86,-225.97,-952.91,-3607.94
312757.9117,-10555.55,-282.48,-1013.85,-3664.78
312757.9127,-10643.48,-366.35,-1099.3,-3751.23
312757.9137,-10748.67,-465.82,-1197.05,-3852.99
312757.9147,-10866.93,-576.69,-1305.91,-3966.95
312757.9157,-10983.33,-678.68,-1413.92,-4072.71
312757.9167,-11088.75,-768.14,-1512.15,-4163.79
312757.9177,-11174.3,-831.6,-1593.21,-4235.13
312757.9187,-11220.98,-864.84,-1634.45,-4269.93
312757.9197,-11228.13,-860.36,-1633.93,-4268.6
312757.9207,-11211.54,-838.33,-1622.87,-4248.76
312757.9217,-11192.37,-817.11,-1620.34,-4220.72
312757.9227,-11135.82,-760.41,-1559.21,-4156.69
312757.9237,-11043.98,-670.48,-1469.99,-4065.61
312757.9247,-10932.11,-568.2,-1368.81,-3962.33
312757.9257,-10810.66,-458.34,-1250.74,-3849.84
312757.9267,-10696.7,-362.49,-1142.45,-3751.04
312757.9277,-10592.89,-280.38,-1056.72,-3665.45
312757.9287,-10525.42,-230.46,-993.82,-3616.19
312757.9297,-10484.6,-212.91,-945.76,-3595.54
312757.9307,-10462.14,-202.99,-910.81,-3588.53
312757.9317,-10497.86,-234.56,-941.66,-3626.39
312757.9327,-10593.27,-315.95,-1043.13,-3710.22
312757.9337,-10710.1,-418.62,-1161.67,-3814.75
312757.9347,-10830.4,-535.39,-1289.18,-3935.81
312757.9357,-10952.09,-659.94,-1436.23,-4065.47
312757.9367,-11055.57,-757.98,-1547.91,-4166.65
312757.9377,-11122.47,-819.4,-1599.36,-4223.3
312757.9387,-11171.82,-864.27,-1634.65,-4262.73
312757.9397,-11198.67,-886.49,-1659.68,-4275.51
312757.9407,-11207.34,-888.3,-1668.31,-4271.56
312757.9417,-11171.77,-853.49,-1623.25,-4230.83
312757.9427,-11087.8,-774.67,-1538.04,-4143.33
312757.9437,-10985.47,-679.97,-1439.86,-4049.06
312757.9447,-10868.03,-568.96,-1321.98,-3940.96
312757.9457,-10750.68,-460.48,-1213.46,-3832.05
312757.9467,-10656.98,-374.13,-1120.95,-3743.79
312757.9477,-10576.34,-295.31,-1041.6,-3667.31
312757.9487,-10515.98,-242.33,-1002.07,-3619.48
312757.9497,-10483.89,-216.67,-988.58,-3601.12
312757.9507,-10485.7,-217.63,-979.47,-3602.31
312757.9517,-10523.89,-252.1,-1009.51,-3639.32
312757.9527,-10591.99,-315.71,-1079.89,-3705.07
312757.9537,-10686.73,-406.46,-1173.02,-3800.44
312757.9547,-10789.97,-509.6,-1257.99,-3903.1
312757.9557,-10908.08,-626.66,-1360.61,-4019.88
312757.9567,-11027.39,-738.43,-1475.29,-4130.75
312757.9577,-11154.84,-843.33,-1610.47,-4245.62
312757.9587,-11247.87,-910.66,-1689.1,-4317.71
312757.9597,-11282.16,-927.88,-1695.68,-4335.07
312757.9607,-11276.58,-914.91,-1689.29,-4314.18
312757.9617,-11224.13,-861.93,-1643.37,-4255.39
312757.9627,-11137.39,-774.72,-1551.87,-4164.27
312757.9637,-11043.74,-680.88,-1460.74,-4065.23
312757.9647,-10930.49,-574.11,-1355.46,-3955.94
312757.9657,-10786.49,-455.9,-1209.83,-3832.58
312757.9667,-10637.24,-333.4,-1063.82,-3705.22
312757.9677,-10504.82,-217.96,-956.15,-3592.4
312757.9687,-10435.68,-160.5,-910.62,-3539.13
312757.9697,-10433.53,-172.38,-909.76,-3554.3
312757.9707,-10463.53,-212.1,-932.79,-3594.45
312757.9717,-10523.65,-269.79,-991.3,-3654.24
312757.9727,-10603.62,-340.08,-1066.68,-3728.34
312757.9737,-10702.56,-427.25,-1175.88,-3822.14
312757.9747,-10816.0,-532.67,-1307.73,-3931.95
312757.9757,-10928.39,-638.49,-1425.5,-4040.24
312757.9767,-11048.75,-744.63,-1519.01,-4145.0
312757.9777,-11167.91,-843.95,-1625.35,-4242.52
312757.9787,-11240.77,-897.36,-1704.36,-4292.49
312757.9797,-11273.58,-913.43,-1700.26,-4307.46
312757.9807,-11282.25,-913.05,-1676.27,-4302.5
312757.9817,-11254.98,-880.91,-1658.3,-4265.74
312757.9827,-11164.57,-802.52,-1575.18,-4185.25
312757.9837,-11044.31,-705.53,-1449.39,-4082.49
312757.9847,-10916.66,-595.43,-1329.71,-3972.01
312757.9857,-10779.38,-475.98,-1219.8,-3856.28
312757.9867,-10652.3,-359.73,-1102.4,-3736.54
312757.9877,-10538.48,-258.87,-993.35,-3632.69
312757.9887,-10465.96,-194.12,-951.0,-3573.94
312757.9897,-10440.92,-181.53,-939.51,-3567.12
312757.9907,-10456.61,-202.04,-944.19,-3591.3
312757.9917,-10503.01,-246.57,-980.66,-3637.74
312757.9927,-10577.97,-318.15,-1051.04,-3712.13
312757.9937,-10686.26,-419.57,-1158.91,-3814.98
312757.9947,-10813.76,-539.64,-1278.31,-3928.14
312757.9957,-10932.02,-650.64,-1385.02,-4036.62
312757.9967,-11025.62,-729.47,-1464.03,-4117.78
312757.9977,-11119.61,-810.72,-1551.2,-4199.79
312757.9987,-11205.63,-878.76,-1646.52,-4270.32
312757.9997,-11257.7,-920.53,-1701.55,-4310.85
312758.0007,-11276.01,-931.12,-1718.04,-4322.58
312758.0017,-11251.5,-903.8,-1696.06,-4289.48
312758.0027,-11171.77,-830.13,-1623.11,-4207.52
312758.0037,-11039.26,-709.34,-1493.79,-4082.68
312758.0047,-10888.48,-575.4,-1350.45,-3951.5
312758.0057,-10750.82,-455.57,-1230.67,-3831.72
312758.0067,-10633.09,-347.81,-1115.51,-3726.63
312758.0077,-10544.44,-266.79,-1025.34,-3647.18
312758.0087,-10481.69,-216.2,-962.07,-3592.11
312758.0097,-10452.22,-189.26,-915.1,-3567.41
312758.0107,-10441.59,-184.01,-885.53,-3565.79
312758.0117,-10462.38,-212.24,-916.53,-3595.07
312758.0127,-10550.45,-291.92,-1003.84,-3678.7
312758.0137,-10699.8,-415.04,-1152.18,-3810.22
312758.0147,-10833.17,-532.72,-1282.31,-3932.29
312758.0157,-10941.08,-634.77,-1383.26,-4036.62
312758.0167,-11046.84,-727.84,-1478.91,-4131.51
312758.0177,-11154.27,-817.87,-1586.06,-4222.58
312758.0187,-11230.42,-882.43,-1665.97,-4282.09
312758.0197,-11265.8,-914.67,-1702.74,-4307.89
312758.0207,-11271.53,-919.2,-1708.22,-4305.27
312758.0217,-11228.04,-878.62,-1668.17,-4254.87
312758.0227,-11140.92,-795.46,-1591.25,-4165.41
312758.0237,-11028.24,-692.61,-1491.02,-4058.7
312758.0247,-10891.44,-577.74,-1355.22,-3938.48
312758.0257,-10760.83,-469.26,-1220.89,-3828.29
312758.0267,-10657.12,-377.27,-1124.33,-3735.73
312758.0277,-10558.22,-283.29,-1021.96,-3647.85
312758.0287,-10495.23,-224.3,-933.08,-3594.69
312758.0297,-10468.96,-204.9,-903.08,-3579.66
312758.0307,-10475.54,-213.48,-934.46,-3593.97
312758.0317,-10520.51,-256.25,-987.82,-3642.23
312758.0327,-10587.17,-318.81,-1041.7,-3708.94
312758.0337,-10691.69,-417.28,-1143.26,-3810.98
312758.0347,-10827.07,-541.83,-1289.7,-3938.72
312758.0357,-10956.91,-657.56,-1422.6,-4058.17
312758.0367,-11080.46,-757.79,-1554.58,-4160.74
312758.0377,-11184.31,-843.86,-1656.53,-4242.52
312758.0387,-11249.93,-894.5,-1710.32,-4289.72
312758.0397,-11264.8,-909.14,-1707.89,-4299.26
312758.0407,-11253.74,-905.04,-1683.09,-4285.34
312758.0417,-11209.54,-860.74,-1630.54,-4237.46
312758.0427,-11140.4,-793.08,-1557.06,-4163.36
312758.0437,-11052.23,-708.91,-1475.0,-4073.14
312758.0447,-10926.44,-602.29,-1354.27,-3961.42
312758.0457,-10779.95,-479.89,-1204.44,-3836.78
312758.0467,-10650.3,-372.03,-1086.09,-3730.11
312758.0477,-10547.73,-282.38,-993.25,-3646.71
312758.0487,-10482.17,-226.93,-954.72,-3596.16
312758.0497,-10457.85,-207.66,-952.1,-3584.0
312758.0507,-10458.76,-211.81,-954.29,-3590.16
312758.0517,-10492.18,-242.81,-980.42,-3625.82
312758.0527,-10558.42,-305.32,-1032.92,-3689.58
312758.0537,-10668.61,-405.07,-1136.11,-3796.01
312758.0547,-10804.37,-525.28,-1266.77,-3924.99
312758.0557,-10933.54,-638.82,-1393.6,-4041.48
312758.0567,-11050.65,-737.67,-1502.08,-4140.38
312758.0577,-11150.65,-828.12,-1589.06,-4227.21
312758.0587,-11217.07,-884.01,-1650.81,-4276.75
312758.0597,-11247.59,-905.85,-1675.56,-4294.92
312758.0607,-11261.46,-909.85,-1680.33,-4300.36
312758.0617,-11226.13,-872.47,-1661.59,-4261.4
312758.0627,-11132.34,-798.46,-1595.45,-4181.29
312758.0637,-11012.03,-694.32,-1491.59,-4075.34
312758.0647,-10888.67,-581.31,-1380.4,-3960.18
312758.0657,-10785.2,-480.7,-1275.92,-3859.0
312758.0667,-10702.33,-394.58,-1171.02,-3773.36
312758.0677,-10624.41,-319.81,-1071.79,-3693.44
312758.0687,-10553.55,-262.64,-971.41,-3631.69
312758.0697,-10490.85,-222.73,-905.85,-3586.44
312758.0707,-10463.76,-207.71,-911.09,-3571.8
312758.0717,-10493.23,-235.41,-953.77,-3607.8
312758.0727,-10573.77,-310.8,-1025.25,-3684.09
312758.0737,-10685.78,-411.8,-1135.54,-3788.28
312758.0747,-10813.33,-525.19,-1260.71,-3906.06
312758.0757,-10935.16,-635.72,-1382.59,-4016.92
312758.0767,-11057.0,-744.68,-1502.9,-4127.46
312758.0777,-11165.52,-839.9,-1611.47,-4226.49
312758.0787,-11228.9,-896.26,-1675.8,-4284.86
312758.0797,-11248.69,-916.2,-1704.41,-4305.55
312758.0807,-11237.24,-906.04,-1709.56,-4296.49
312758.0817,-11193.75,-857.78,-1666.45,-4247.48
312758.0827,-11134.86,-788.4,-1605.94,-4177.38
312758.0837,-11050.89,-703.76,-1528.55,-4088.12
312758.0847,-10921.34,-584.98,-1375.25,-3962.95
312758.0857,-10790.35,-464.49,-1189.99,-3837.3
312758.0867,-10658.12,-359.68,-1055.43,-3727.1
312758.0877,-10550.12,-278.9,-979.23,-3646.85
312758.0887,-10502.29,-237.32,-954.01,-3611.14
312758.0897,-10469.15,-207.04,-939.42,-3585.86
312758.0907,-10462.52,-205.18,-949.0,-3589.82
312758.0917,-10511.35,-261.21,-988.87,-3642.18
312758.0927,-10593.46,-349.33,-1055.1,-3722.72
312758.0937,-10702.52,-458.19,-1175.74,-3830.34
312758.0947,-10825.11,-572.73,-1341.92,-3946.16
312758.0957,-10930.63,-663.95,-1464.7,-4041.96
312758.0967,-11048.27,-761.32,-1539.56,-4143.19
312758.0977,-11150.22,-843.81,-1581.14,-4226.73
312758.0987,-11215.97,-883.39,-1630.74,-4275.23
312758.0997,-11223.84,-878.0,-1635.84,-4273.03
312758.1007,-11206.53,-855.26,-1612.76,-4247.43
312758.1017,-11167.62,-807.14,-1582.96,-4200.17
312758.1027,-11100.77,-727.13,-1517.49,-4114.25
312758.1037,-11008.65,-636.05,-1424.88,-4019.26
312758.1047,-10896.06,-538.06,-1313.88,-3921.46
312758.1057,-10806.9,-457.05,-1228.19,-3840.11
312758.1067,-10720.92,-382.47,-1155.61,-3757.67
312758.1077,-10616.59,-306.08,-1062.97,-3670.98
312758.1087,-10531.09,-245.29,-984.76,-3598.31
312758.1097,-10476.3,-218.25,-940.51,-3565.26
312758.1107,-10424.09,-212.19,-910.95,-3562.55
312758.1117,-10445.02,-251.01,-938.99,-3611.28
312758.1127,-10571.72,-352.91,-1069.16,-3723.43
312758.1137,-10735.7,-487.42,-1234.15,-3861.24
312758.1147,-10862.16,-597.52,-1329.23,-3977.59
312758.1157,-10932.54,-666.67,-1373.82,-4048.87
312758.1167,-11011.84,-734.57,-1449.68,-4118.35
312758.1177,-11123.47,-824.07,-1590.01,-4212.57
312758.1187,-11210.73,-885.3,-1691.15,-4278.47
312758.1197,-11247.92,-901.89,-1709.08,-4294.01
312758.1207,-11224.94,-880.0,-1639.75,-4267.65
312758.1217,-11187.46,-842.14,-1555.11,-4222.58
312758.1227,-11103.01,-764.89,-1478.91,-4138.8
312758.1237,-10981.13,-661.56,-1393.8,-4030.32
312758.1247,-10850.05,-548.94,-1294.71,-3914.79
312758.1257,-10720.83,-429.82,-1180.12,-3795.58
312758.1267,-10642.82,-357.1,-1108.5,-3721.43
312758.1277,-10567.33,-294.07,-1037.26,-3656.34
312758.1287,-10476.92,-225.83,-949.72,-3587.1
312758.1297,-10441.54,-199.75,-915.58,-3559.64
312758.1307,-10444.5,-192.02,-920.63,-3562.26
312758.1317,-10486.17,-223.06,-960.16,-3605.22
312758.1327,-10556.46,-294.02,-1028.92,-3682.14
312758.1337,-10658.5,-387.05,-1120.04,-3776.84
312758.1347,-10793.64,-513.27,-1245.69,-3901.2
312758.1357,-10935.83,-651.41,-1388.22,-4034.47
312758.1367,-11062.48,-767.09,-1506.57,-4145.67
312758.1377,-11154.22,-838.57,-1580.52,-4218.39
312758.1387,-11206.72,-881.15,-1621.82,-4257.01
312758.1397,-11242.01,-905.32,-1660.2,-4276.94
312758.1407,-11253.84,-909.9,-1677.08,-4281.28
312758.1417,-11211.92,-869.56,-1630.74,-4235.84
312758.1427,-11122.51,-790.55,-1541.85,-4151.15
312758.1437,-11017.71,-696.18,-1434.42,-4050.21
312758.1447,-10905.17,-595.24,-1327.18,-3946.16
312758.1457,-10793.88,-497.39,-1226.81,-3846.88
312758.1467,-10677.58,-402.31,-1114.08,-3748.42
312758.1477,-10558.13,-303.13,-1024.82,-3646.85
312758.1487,-10456.8,-213.43,-951.86,-3564.41
312758.1497,-10403.16,-155.07,-902.13,-3517.63
312758.1507,-10408.12,-153.3,-909.19,-3522.68
312758.1517,-10476.54,-218.92,-990.49,-3594.69
312758.1527,-10577.06,-314.95,-1086.09,-3696.2
312758.1537,-10692.45,-427.06,-1195.53,-3811.31
312758.1547,-10822.87,-550.22,-1318.5,-3939.92
312758.1557,-10952.9,-666.0,-1440.81,-4059.94
312758.1567,-11070.68,-767.37,-1539.47,-4161.31
312758.1577,-11144.59,-831.08,-1591.83,-4225.87
312758.1587,-11189.22,-869.23,-1641.56,-4259.54
312758.1597,-11211.83,-888.44,-1668.12,-4272.8
312758.1607,-11205.39,-879.1,-1658.2,-4263.26
312758.1617,-11165.48,-829.65,-1615.81,-4213.81
312758.1627,-11092.62,-755.6,-1556.44,-4131.6
312758.1637,-10986.85,-657.65,-1449.54,-4028.89
312758.1647,-10853.1,-540.16,-1310.97,-3909.3
312758.1657,-10723.69,-421.38,-1159.05,-3793.76
312758.1667,-10623.36,-329.26,-1060.49,-3697.11
312758.1677,-10559.66,-274.37,-1013.23,-3640.46
312758.1687,-10531.71,-247.57,-981.62,-3615.43
312758.1697,-10512.59,-229.55,-958.16,-3599.41
312758.1707,-10503.87,-224.92,-955.49,-3598.36
312758.1717,-10538.58,-261.74,-993.35,-3640.56
312758.1727,-10617.11,-336.12,-1070.79,-3721.0
312758.1737,-10726.98,-434.83,-1178.55,-3823.47
312758.1747,-10844.8,-540.54,-1292.23,-3930.38
312758.1757,-10963.82,-649.64,-1405.62,-4040.77
312758.1767,-11075.55,-749.45,-1517.39,-4141.86
312758.1777,-11174.01,-834.89,-1608.9,-4226.69
312758.1787,-11245.68,-893.69,-1671.55,-4281.14
312758.1797,-11267.38,-924.02,-1707.46,-4301.83
312758.1807,-11255.93,-929.69,-1710.18,-4302.41
312758.1817,-11210.63,-893.21,-1666.26,-4260.02
312758.1827,-11125.18,-810.0,-1575.42,-4176.86
312758.1837,-11018.37,-711.06,-1461.22,-4072.19
312758.1847,-10908.7,-611.97,-1355.36,-3967.57
312758.1857,-10790.16,-503.92,-1233.67,-3854.8
312758.1867,-10656.41,-383.33,-1108.03,-3734.88
312758.1877,-10539.63,-271.65,-1020.77,-3630.3
312758.1887,-10457.37,-193.02,-950.19,-3565.22
312758.1897,-10420.94,-165.99,-903.08,-3547.62
312758.1907,-10452.56,-191.78,-931.41,-3572.85
312758.1917,-10514.21,-245.67,-994.87,-3627.73
312758.1927,-10571.43,-300.17,-1048.28,-3687.48
312758.1937,-10655.45,-381.04,-1124.91,-3774.26
312758.1947,-10782.2,-497.29,-1236.15,-3888.18
312758.1957,-10906.03,-606.68,-1353.31,-4000.28
312758.1967,-11022.9,-707.96,-1460.5,-4102.99
312758.1977,-11123.56,-797.32,-1548.81,-4189.21
312758.1987,-11194.52,-858.5,-1617.77,-4244.85
312758.1997,-11247.3,-896.69,-1664.54,-4279.61
312758.2007,-11277.2,-911.24,-1683.28,-4291.87
312758.2017,-11238.91,-872.37,-1650.76,-4245.52
312758.2027,-11137.77,-787.69,-1571.13,-4154.63
312758.2037,-11023.57,-697.66,-1478.48,-4056.98
312758.2047,-10908.46,-602.82,-1377.87,-3960.32
312758.2057,-10775.42,-493.76,-1257.23,-3851.22
312758.2067,-10662.37,-401.12,-1141.31,-3758.53
312758.2077,-10566.95,-309.32,-1032.16,-3672.27
312758.2087,-10496.14,-246.24,-963.02,-3612.38
312758.2097,-10471.35,-220.78,-941.32,-3585.77
312758.2107,-10470.92,-215.77,-944.38,-3585.53
312758.2117,-10506.01,-245.38,-994.4,-3623.06
312758.2127,-10585.64,-319.19,-1067.45,-3703.59
312758.2137,-10699.61,-421.81,-1180.27,-3812.6
312758.2147,-10815.67,-524.95,-1302.72,-3918.93
312758.2157,-10938.6,-636.86,-1418.78,-4035.28
312758.2167,-11045.74,-734.71,-1518.49,-4134.56
312758.2177,-11135.05,-811.58,-1594.69,-4203.18
312758.2187,-11208.92,-874.47,-1659.44,-4256.25
312758.2197,-11233.71,-899.93,-1685.71,-4277.9
312758.2207,-11242.72,-898.41,-1666.16,-4271.36
312758.2217,-11207.53,-849.87,-1616.67,-4218.39
312758.2227,-11134.96,-782.73,-1560.83,-4143.95
312758.2237,-11033.97,-694.99,-1480.87,-4051.88
312758.2247,-10899.35,-570.39,-1369.38,-3931.14
312758.2257,-10792.92,-472.35,-1275.3,-3836.44
312758.2267,-10710.67,-397.35,-1170.49,-3766.73
312758.2277,-10610.06,-309.13,-1031.21,-3680.42
312758.2287,-10536.53,-248.24,-948.38,-3620.96
312758.2297,-10503.87,-218.96,-933.84,-3593.02
312758.2307,-10475.68,-198.89,-904.42,-3572.27
312758.2317,-10498.38,-227.02,-914.14,-3602.6
312758.2327,-10551.12,-284.43,-970.75,-3658.96
312758.2337,-10640.0,-374.56,-1086.19,-3751.09
312758.2347,-10779.67,-512.27,-1237.82,-3892.61
312758.2357,-10905.84,-638.77,-1377.82,-4020.88
312758.2367,-11013.99,-736.05,-1489.21,-4120.45
312758.2377,-11088.75,-809.72,-1555.44,-4185.87
312758.2387,-11145.07,-856.35,-1614.43,-4229.02
312758.2397,-11165.38,-866.7,-1644.8,-4238.18
312758.2407,-11135.44,-831.7,-1617.77,-4206.94
312758.2417,-11105.06,-790.55,-1577.47,-4164.17
312758.2427,-11062.34,-742.29,-1539.04,-4116.73
312758.2437,-10981.66,-667.1,-1452.49,-4037.71
312758.2447,-10874.8,-566.67,-1326.61,-3931.52
312758.2457,-10765.41,-460.96,-1221.47,-3820.28
312758.2467,-10661.56,-362.11,-1137.07,-3724.53
312758.2477,-10580.45,-284.86,-1060.1,-3651.62
312758.2487,-10534.81,-242.09,-1013.66,-3610.75
312758.2497,-10506.54,-221.4,-972.6,-3590.39
312758.2507,-10490.85,-219.44,-941.71,-3589.11
312758.2517,-10521.7,-261.74,-960.54,-3633.83
312758.2527,-10596.32,-351.0,-1049.09,-3722.57
312758.2537,-10704.47,-453.66,-1162.15,-3827.38
312758.2547,-10830.31,-560.62,-1265.72,-3932.52
312758.2557,-10933.45,-654.27,-1367.04,-4025.03
312758.2567,-11026.38,-741.34,-1444.63,-4116.87
312758.2577,-11153.46,-845.0,-1575.57,-4224.35
312758.2587,-11236.0,-901.08,-1665.78,-4277.37
312758.2597,-11265.04,-912.62,-1701.31,-4287.58
312758.2607,-11260.94,-903.37,-1706.7,-4275.27
312758.2617,-11187.94,-845.72,-1636.98,-4210.9
312758.2627,-11087.18,-753.74,-1533.6,-4120.78
312758.2637,-10990.57,-659.85,-1436.81,-4028.08
312758.2647,-10882.0,-563.91,-1337.39,-3930.28
312758.2657,-10778.19,-469.73,-1241.4,-3834.49
312758.2667,-10683.63,-384.52,-1145.6,-3748.99
312758.2677,-10593.22,-304.56,-1056.0,-3664.3
312758.2687,-10541.92,-256.59,-1001.17,-3615.38
312758.2697,-10503.39,-224.97,-961.78,-3586.58
312758.2707,-10473.82,-201.8,-944.23,-3571.42
312758.2717,-10515.36,-244.0,-1005.94,-3619.48
312758.2727,-10611.54,-335.69,-1108.22,-3714.18
312758.2737,-10714.39,-435.07,-1193.0,-3816.46
312758.2747,-10809.85,-539.92,-1277.54,-3921.37
312758.2757,-10907.03,-642.97,-1373.72,-4023.22
312758.2767,-11009.74,-729.18,-1446.29,-4114.15
312758.2777,-11113.45,-807.81,-1535.23,-4195.55
312758.2787,-11204.05,-877.62,-1633.22,-4257.73
312758.2797,-11233.0,-902.56,-1670.41,-4276.32
312758.2807,-11234.24,-900.36,-1685.24,-4272.84
312758.2817,-11199.76,-858.55,-1652.81,-4230.26
312758.2827,-11112.41,-772.57,-1555.01,-4143.05
312758.2837,-11012.03,-674.68,-1440.86,-4039.72
312758.2847,-10898.54,-565.1,-1326.66,-3927.8
312758.2857,-10789.92,-465.68,-1218.94,-3822.9
312758.2867,-10699.8,-380.13,-1134.35,-3733.25
312758.2877,-10606.1,-294.4,-1043.89,-3648.23
312758.2887,-10537.43,-237.27,-979.09,-3591.16
312758.2897,-10518.98,-224.26,-966.36,-3584.58
312758.2907,-10529.23,-238.7,-988.77,-3606.61
312758.2917,-10563.33,-281.19,-1040.13,-3657.91
312758.2927,-10621.6,-349.04,-1106.5,-3728.82
312758.2937,-10703.09,-427.77,-1177.12,-3809.4
312758.2947,-10803.84,-521.14,-1265.81,-3901.86
312758.2957,-10909.56,-620.51,-1359.99,-3999.0
312758.2967,-11013.22,-726.18,-1461.41,-4099.56
312758.2977,-11113.5,-824.55,-1561.69,-4191.83
312758.2987,-11180.21,-884.87,-1627.54,-4247.95
312758.2997,-11203.29,-903.7,-1655.91,-4266.93
312758.3007,-11208.39,-899.36,-1657.06,-4261.68
312758.3017,-11183.31,-861.93,-1624.78,-4216.0
312758.3027,-11114.17,-791.74,-1554.01,-4143.76
312758.3037,-11011.98,-698.33,-1457.36,-4048.16
312758.3047,-10893.78,-591.85,-1345.49,-3936.72
312758.3057,-10767.79,-487.66,-1232.96,-3831.34
312758.3067,-10653.54,-389.19,-1133.87,-3737.55
312758.3077,-10550.55,-296.21,-1035.4,-3645.75
312758.3087,-10472.54,-229.41,-953.2,-3584.19
312758.3097,-10443.88,-202.37,-929.64,-3562.26
312758.3107,-10457.61,-212.53,-951.05,-3578.62
312758.3117,-10516.74,-261.93,-1001.45,-3636.93
312758.3127,-10599.71,-336.93,-1065.54,-3714.28
312758.3137,-10704.04,-435.92,-1166.39,-3817.18
312758.3147,-10820.39,-543.07,-1288.89,-3927.37
312758.3157,-10937.93,-646.83,-1418.73,-4036.86
312758.3167,-11043.65,-734.19,-1522.4,-4129.22
312758.3177,-11141.16,-821.54,-1608.42,-4212.0
312758.3187,-11222.65,-888.16,-1670.17,-4268.69
312758.3197,-11263.56,-917.96,-1696.54,-4290.92
312758.3207,-11263.75,-922.06,-1691.34,-4292.35
312758.3217,-11222.94,-890.97,-1643.94,-4255.34
312758.3227,-11139.63,-824.74,-1567.08,-4181.81
312758.3237,-11031.44,-725.94,-1453.16,-4078.48
312758.3247,-10905.46,-608.16,-1313.78,-3954.84
312758.3257,-10783.44,-500.82,-1215.32,-3843.12
312758.3267,-10648.92,-378.7,-1109.17,-3722.38
312758.3277,-10511.92,-245.43,-981.47,-3593.25
312758.3287,-10451.41,-188.64,-917.91,-3541.28
312758.3297,-10437.44,-184.87,-916.05,-3543.95
312758.3307,-10443.64,-195.22,-942.23,-3561.21
312758.3317,-10492.23,-235.51,-993.82,-3605.18
312758.3327,-10574.91,-309.42,-1066.3,-3684.81
312758.3337,-10683.01,-411.8,-1158.91,-3789.52
312758.3347,-10812.0,-531.96,-1273.68,-3909.64
312758.3357,-10939.27,-647.35,-1394.37,-4028.32
312758.3367,-11045.12,-739.1,-1498.27,-4125.02
312758.3377,-11133.62,-816.82,-1582.86,-4200.79
312758.3387,-11201.86,-872.47,-1652.43,-4250.91
312758.3397,-11232.9,-895.79,-1684.57,-4268.46
312758.3407,-11248.26,-901.46,-1696.01,-4271.56
312758.3417,-11219.31,-881.58,-1661.11,-4243.9
312758.3427,-11139.16,-820.21,-1591.02,-4170.99
312758.3437,-11029.05,-725.65,-1479.24,-4070.04
312758.3447,-10911.8,-615.93,-1342.39,-3962.28
312758.3457,-10803.03,-507.26,-1244.4,-3854.7
312758.3467,-10695.89,-403.6,-1164.48,-3748.94
312758.3477,-10580.25,-299.64,-1044.37,-3641.99
312758.3487,-10482.17,-212.96,-943.47,-3562.5
312758.3497,-10458.09,-196.41,-930.36,-3547.29
312758.3507,-10467.48,-210.48,-948.24,-3561.93
312758.3517,-10497.19,-243.0,-979.9,-3600.17
312758.3527,-10568.19,-315.76,-1041.65,-3681.47
312758.3537,-10679.53,-421.29,-1139.5,-3794.58
312758.3547,-10804.99,-532.67,-1265.96,-3912.93
312758.3557,-10936.93,-648.83,-1405.29,-4033.85
312758.3567,-11063.82,-759.7,-1524.5,-4146.1
312758.3577,-11182.79,-858.5,-1633.45,-4244.76
312758.3587,-11261.8,-916.77,-1722.34,-4302.07
312758.3597,-11294.6,-932.31,-1762.01,-4319.81
312758.3607,-11281.92,-913.72,-1745.18,-4298.64
312758.3617,-11224.46,-862.17,-1692.77,-4241.13
312758.3627,-11139.68,-793.12,-1605.61,-4161.55
312758.3637,-11026.1,-692.08,-1464.08,-4052.11
312758.3647,-10895.25,-574.54,-1319.93,-3928.33
312758.3657,-10787.35,-483.42,-1249.22,-3834.3
312758.3667,-10707.0,-417.14,-1201.63,-3763.72
312758.3677,-10595.51,-314.47,-1074.89,-3654.72
312758.3687,-10517.93,-238.75,-971.37,-3583.57
312758.3697,-10454.04,-188.73,-937.18,-3538.51
312758.3707,-10411.07,-153.06,-919.77,-3508.9
312758.3717,-10448.74,-185.39,-935.03,-3549.67
312758.3727,-10545.64,-281.81,-987.91,-3645.75
312758.3737,-10682.44,-411.18,-1101.16,-3778.03
312758.3747,-10802.08,-536.01,-1221.13,-3899.05
312758.3757,-10906.32,-645.73,-1323.51,-4009.06
312758.3767,-11018.95,-749.87,-1421.55,-4119.06
312758.3777,-11117.56,-839.09,-1503.52,-4214.24
312758.3787,-11166.29,-883.05,-1551.49,-4256.3
312758.3797,-11190.7,-889.35,-1592.21,-4265.26
312758.3807,-11208.06,-888.54,-1630.97,-4261.54
312758.3817,-11176.16,-846.96,-1613.14,-4210.57
312758.3827,-11112.79,-779.49,-1558.35,-4139.23
312758.3837,-11008.98,-685.55,-1462.56,-4038.86
312758.3847,-10883.52,-575.64,-1353.55,-3924.56
312758.3857,-10772.37,-471.21,-1253.89,-3822.42
312758.3867,-10659.08,-371.41,-1134.59,-3721.29
312758.3877,-10545.16,-275.75,-1018.95,-3625.15
312758.3887,-10485.22,-222.06,-956.15,-3575.42
312758.3897,-10479.88,-216.53,-943.71,-3571.99
312758.3907,-10488.13,-235.94,-952.15,-3592.97
312758.3917,-10528.28,-279.57,-984.24,-3640.03
312758.3927,-10592.41,-338.27,-1040.65,-3700.35
312758.3937,-10672.38,-408.89,-1120.38,-3776.74
312758.3947,-10777.28,-504.21,-1233.43,-3878.88
312758.3957,-10914.04,-628.28,-1377.92,-4008.29
312758.3967,-11041.45,-742.39,-1503.56,-4126.41
312758.3977,-11140.49,-824.07,-1595.31,-4208.61
312758.3987,-11188.6,-868.03,-1635.84,-4244.23
312758.3997,-11193.47,-889.97,-1645.71,-4256.3
312758.4007,-11195.04,-902.61,-1647.42,-4263.97
312758.4017,-11165.76,-869.08,-1622.34,-4228.12
312758.4027,-11089.37,-788.5,-1549.39,-4145.48
312758.4037,-10979.22,-681.26,-1439.81,-4030.13
312758.4047,-10871.84,-574.4,-1329.66,-3918.7
312758.4057,-10772.09,-476.88,-1227.09,-3819.13
312758.4067,-10673.57,-381.99,-1123.71,-3724.77
312758.4077,-10576.2,-295.45,-1032.78,-3638.74
312758.4087,-10511.35,-239.94,-978.42,-3588.53
312758.4097,-10481.22,-213.81,-945.71,-3566.17
312758.4107,-10468.53,-206.38,-930.88,-3566.46
312758.4117,-10508.4,-245.19,-973.56,-3612.66
312758.4127,-10592.89,-323.58,-1058.82,-3702.59
312758.4137,-10699.56,-422.62,-1163.53,-3805.97
312758.4147,-10825.06,-535.25,-1281.6,-3915.88
312758.4157,-10951.04,-646.54,-1401.95,-4027.08
312758.4167,-11076.88,-755.17,-1520.01,-4136.42
312758.4177,-11184.69,-849.68,-1613.9,-4227.64
312758.4187,-11250.21,-905.99,-1666.64,-4279.18
312758.4197,-11284.16,-935.75,-1696.87,-4304.12
312758.4207,-11299.8,-948.48,-1713.9,-4313.42
312758.4217,-11274.86,-920.25,-1686.0,-4278.04
312758.4227,-11217.6,-862.93,-1642.8,-4219.34
312758.4237,-11121.56,-782.11,-1578.05,-4134.99
312758.4247,-10966.78,-649.5,-1433.66,-3998.52
312758.4257,-10765.36,-481.22,-1206.73,-3818.56
312758.4267,-10577.63,-319.53,-1027.92,-3657.1
312758.4277,-10471.73,-221.78,-950.77,-3568.17
312758.4287,-10459.62,-207.04,-945.38,-3559.11
312758.4297,-10475.78,-218.06,-954.82,-3570.6
312758.4307,-10481.45,-228.74,-962.54,-3582.91
312758.4317,-10494.61,-251.34,-971.84,-3605.22
312758.4327,-10549.02,-306.08,-1009.89,-3660.68
312758.4337,-10662.65,-410.18,-1112.03,-3774.12
312758.4347,-10807.37,-540.69,-1273.49,-3911.16
312758.4357,-10932.73,-655.41,-1416.44,-4024.17
312758.4367,-11032.63,-740.43,-1502.61,-4111.81
312758.4377,-11116.84,-816.63,-1587.01,-4189.92
312758.4387,-11177.87,-866.94,-1667.12,-4240.89
312758.4397,-11214.21,-891.4,-1715.14,-4267.98
312758.4407,-11237.48,-902.46,-1733.4,-4282.81
312758.4417,-11219.55,-872.8,-1722.19,-4252.53
312758.4427,-11144.73,-796.56,-1649.24,-4168.65
312758.4437,-11029.53,-689.36,-1516.87,-4055.12
312758.4447,-10896.68,-579.74,-1356.03,-3940.3
312758.4457,-10776.85,-482.13,-1202.3,-3836.35
312758.4467,-10665.56,-388.81,-1074.12,-3740.12
312758.4477,-10565.57,-299.12,-966.5,-3650.67
312758.4487,-10499.38,-242.76,-913.52,-3595.02
312758.4497,-10459.52,-224.45,-898.41,-3571.03
312758.4507,-10447.55,-226.69,-906.18,-3569.65
312758.4517,-10495.9,-271.94,-966.17,-3621.67
312758.4527,-10594.08,-352.72,-1067.45,-3717.04
312758.4537,-10690.31,-441.46,-1156.28,-3807.35
312758.4547,-10775.85,-525.28,-1223.18,-3890.32
312758.4557,-10876.9,-618.12,-1320.08,-3987.98
312758.4567,-11010.27,-735.09,-1457.31,-4111.1
312758.4577,-11143.21,-848.01,-1590.2,-4225.11
312758.4587,-11211.54,-902.41,-1663.02,-4278.23
312758.4597,-11227.23,-907.52,-1674.6,-4278.95
312758.4607,-11218.84,-893.4,-1648.71,-4256.92
312758.4617,-11170.39,-846.67,-1600.36,-4203.89
312758.4627,-11106.92,-783.78,-1549.24,-4136.9
312758.4637,-11031.96,-705.81,-1477.43,-4058.79
312758.4647,-10914.37,-595.14,-1361.08,-3945.78
312758.4657,-10771.71,-457.19,-1225.81,-3806.93
312758.4667,-10650.11,-344.99,-1112.08,-3698.02
312758.4677,-10571.29,-278.33,-1041.7,-3633.69
312758.4687,-10509.44,-226.31,-987.58,-3581.91
312758.4697,-10466.05,-189.16,-943.47,-3550.1
312758.4707,-10450.22,-184.82,-919.96,-3549.34
312758.4717,-10487.13,-234.56,-958.25,-3600.31
312758.4727,-10565.14,-313.23,-1038.17,-3677.8
312758.4737,-10667.28,-413.8,-1143.55,-3774.83
312758.4747,-10815.81,-551.65,-1287.13,-3915.26
312758.4757,-10961.25,-683.02,-1426.51,-4051.83
312758.4767,-11053.61,-767.09,-1498.51,-4137.09
312758.4777,-11135.96,-832.7,-1565.03,-4202.13
312758.4787,-11200.81,-890.45,-1618.39,-4254.48
312758.4797,-11252.93,-929.21,-1673.7,-4293.92
312758.4807,-11266.23,-932.6,-1691.91,-4295.45
312758.4817,-11183.02,-859.79,-1620.63,-4214.72
312758.4827,-11073.45,-755.6,-1522.4,-4111.1
312758.4837,-10963.39,-655.27,-1429.37,-4007.39
312758.4847,-10846.52,-552.8,-1336.86,-3900.96
312758.4857,-10738.23,-458.62,-1252.84,-3805.07
312758.4867,-10629.08,-360.35,-1159.86,-3711.08
312758.4877,-10534.96,-266.65,-1064.25,-3624.54
312758.4887,-10486.22,-218.92,-994.87,-3577.57
312758.4897,-10479.88,-210.71,-937.75,-3567.55
312758.4907,-10493.33,-226.69,-918.67,-3581.33
312758.4917,-10544.87,-275.75,-975.42,-3638.46
312758.4927,-10621.36,-356.29,-1071.31,-3724.29
312758.4937,-10705.42,-450.66,-1171.16,-3815.17
312758.4947,-10823.06,-555.23,-1290.13,-3921.46
312758.4957,-10944.8,-657.22,-1400.04,-4025.75
312758.4967,-11054.66,-755.83,-1497.65,-4124.02
312758.4977,-11154.46,-845.62,-1585.2,-4210.47
312758.4987,-11221.55,-901.65,-1642.99,-4271.75
312758.4997,-11253.69,-932.17,-1672.51,-4303.74
312758.5007,-11252.17,-928.31,-1660.68,-4291.96
312758.5017,-11205.58,-880.77,-1608.32,-4237.13
312758.5027,-11131.86,-812.77,-1538.13,-4162.12
312758.5037,-11041.02,-731.13,-1463.75,-4076.34
312758.5047,-10916.95,-624.75,-1376.72,-3968.33
312758.5057,-10767.65,-495.96,-1244.97,-3836.01
312758.5067,-10641.1,-378.04,-1124.95,-3714.42
312758.5077,-10533.1,-279.71,-1029.06,-3618.19
312758.5087,-10452.56,-217.34,-958.63,-3558.68
312758.5097,-10421.33,-196.74,-930.45,-3544.9
312758.5107,-10449.89,-214.62,-940.61,-3566.12
312758.5117,-10529.14,-274.37,-1004.17,-3628.35
312758.5127,-10621.84,-355.43,-1090.34,-3711.7
312758.5137,-10713.29,-439.45,-1172.78,-3799.96
312758.5147,-10821.68,-535.06,-1271.68,-3900.91
312758.5157,-10952.28,-651.12,-1398.75,-4023.65
312758.5167,-11087.13,-766.09,-1540.61,-4143.1
312758.5177,-11194.71,-855.26,-1636.79,-4236.51
312758.5187,-11235.1,-892.07,-1663.73,-4280.85
312758.5197,-11230.33,-893.5,-1665.4,-4279.8
312758.5207,-11222.89,-882.53,-1669.36,-4262.45
312758.5217,-11184.07,-841.33,-1639.56,-4213.67
312758.5227,-11123.94,-774.0,-1580.67,-4141.28
312758.5237,-11034.97,-687.55,-1497.27,-4050.64
312758.5247,-10920.43,-586.32,-1384.93,-3942.06
312758.5257,-10803.75,-483.47,-1265.62,-3837.63
312758.5267,-10680.53,-379.75,-1145.46,-3733.87
312758.5277,-10560.42,-282.81,-1008.75,-3631.93
312758.5287,-10478.31,-220.87,-920.2,-3569.7
312758.5297,-10428.29,-186.97,-893.26,-3534.94
312758.5307,-10426.38,-185.06,-896.41,-3531.98
312758.5317,-10480.69,-235.08,-950.1,-3586.44
312758.5327,-10589.55,-331.93,-1064.97,-3690.77
312758.5337,-10722.11,-450.85,-1187.13,-3815.99
312758.5347,-10838.84,-557.52,-1272.39,-3923.46
312758.5357,-10947.28,-655.27,-1361.42,-4022.74
312758.5367,-11055.66,-751.35,-1474.67,-4122.07
312758.5377,-11155.94,-846.72,-1578.86,-4216.53
312758.5387,-11202.43,-904.42,-1632.07,-4264.93
312758.5397,-11215.02,-916.58,-1663.88,-4276.85
312758.5407,-11216.74,-909.42,-1683.76,-4267.93
312758.5417,-11163.81,-863.17,-1634.88,-4218.86
312758.5427,-11079.46,-793.89,-1558.11,-4149.29
312758.5437,-10974.55,-697.42,-1455.02,-4051.21
312758.5447,-10851.19,-573.02,-1330.42,-3927.04
312758.5457,-10754.4,-473.79,-1230.48,-3825.38
312758.5467,-10657.36,-380.52,-1132.87,-3727.06
312758.5477,-10556.7,-292.97,-1035.45,-3638.89
312758.5487,-10502.86,-244.67,-978.33,-3592.54
312758.5497,-10473.4,-214.53,-951.81,-3565.65
312758.5507,-10463.53,-211.29,-942.99,-3564.17
312758.5517,-10531.0,-271.42,-996.49,-3628.64
312758.5527,-10624.65,-351.1,-1084.47,-3714.18
312758.5537,-10712.48,-437.26,-1170.87,-3803.4
312758.5547,-10826.49,-543.02,-1268.91,-3907.3
312758.5557,-10946.32,-643.92,-1374.58,-4011.11
312758.5567,-11052.18,-743.87,-1477.34,-4110.15
312758.5577,-11161.57,-849.68,-1580.81,-4218.34
312758.5587,-11236.53,-914.91,-1650.76,-4281.62
312758.5597,-11252.79,-923.16,-1680.71,-4291.2
312758.5607,-11241.72,-912.57,-1684.09,-4280.42
312758.5617,-11198.95,-880.43,-1646.09,-4239.89
312758.5627,-11129.95,-816.11,-1578.19,-4170.61
312758.5637,-11020.95,-720.64,-1481.68,-4070.95
312758.5647,-10887.0,-605.63,-1361.7,-3952.46
312758.5657,-10768.84,-490.62,-1242.02,-3835.68
312758.5667,-10653.69,-386.38,-1130.15,-3725.34
312758.5677,-10542.25,-291.54,-1019.86,-3627.87
312758.5687,-10477.4,-233.7,-948.86,-3570.84
312758.5697,-10451.46,-211.1,-930.93,-3552.68
312758.5707,-10453.08,-214.05,-937.46,-3558.83
312758.5717,-10500.81,-257.11,-984.29,-3608.32
312758.5727,-10578.59,-330.97,-1056.86,-3686.33
312758.5737,-10670.57,-419.28,-1143.79,-3777.79
312758.5747,-10789.01,-530.2,-1260.95,-3895.33
312758.5757,-10918.95,-655.37,-1393.32,-4025.51
312758.5767,-11026.19,-754.88,-1497.36,-4125.88
312758.5777,-11132.91,-840.38,-1591.54,-4211.95
312758.5787,-11204.63,-895.93,-1654.2,-4267.17
312758.5797,-11242.58,-921.63,-1683.62,-4290.39
312758.5807,-11252.12,-922.44,-1690.86,-4287.39
312758.5817,-11216.59,-880.34,-1663.78,-4243.37
312758.5827,-11134.15,-796.13,-1580.33,-4158.02
312758.5837,-11019.04,-684.31,-1452.97,-4039.38
312758.5847,-10878.85,-548.55,-1311.02,-3905.63
312758.5857,-10779.91,-448.42,-1220.27,-3808.55
312758.5867,-10697.7,-372.84,-1147.99,-3726.91
312758.5877,-10600.71,-287.91,-1058.15,-3634.83
312758.5887,-10523.75,-220.73,-981.19,-3567.03
312758.5897,-10481.98,-191.88,-945.09,-3538.56
312758.5907,-10483.65,-206.52,-957.63,-3554.68
312758.5917,-10528.47,-264.02,-1012.18,-3614.66
312758.5927,-10608.53,-352.0,-1093.48,-3708.74
312758.5937,-10705.66,-448.85,-1179.65,-3808.83
312758.5947,-10793.02,-548.36,-1262.86,-3905.77
312758.5957,-10888.05,-650.84,-1366.47,-4005.53
312758.5967,-11002.21,-740.24,-1480.91,-4102.99
312758.5977,-11103.82,-820.92,-1570.56,-4185.63
312758.5987,-11166.67,-872.23,-1618.81,-4232.12
312758.5997,-11200.29,-897.6,-1650.52,-4255.1
312758.6007,-11213.64,-897.84,-1673.32,-4256.25
312758.6017,-11185.79,-861.12,-1655.53,-4222.58
312758.6027,-11123.56,-798.42,-1592.97,-4156.16
312758.6037,-11041.59,-717.59,-1503.56,-4070.28
312758.6047,-10922.48,-601.1,-1377.44,-3948.36
312758.6057,-10787.68,-474.41,-1233.77,-3811.88
312758.6067,-10683.11,-381.42,-1128.91,-3715.23
312758.6077,-10604.81,-314.95,-1055.15,-3648.95
312758.6087,-10530.81,-261.31,-985.96,-3595.92
312758.6097,-10474.68,-223.02,-935.6,-3556.82
312758.6107,-10453.94,-216.91,-936.03,-3555.97
312758.6117,-10492.23,-260.64,-982.81,-3609.32
312758.6127,-10580.73,-342.37,-1093.29,-3699.97
312758.6137,-10697.7,-444.32,-1225.76,-3806.69
312758.6147,-10847.76,-582.08,-1349.97,-3949.93
312758.6157,-10986.14,-708.2,-1441.96,-4081.58
312758.6167,-11067.25,-789.59,-1518.06,-4160.4
312758.6177,-11115.65,-829.27,-1559.88,-4199.65
312758.6187,-11136.15,-841.43,-1567.22,-4207.8
312758.6197,-11165.43,-861.12,-1623.58,-4227.54
312758.6207,-11202.0,-882.96,-1692.01,-4250.72
312758.6217,-11191.56,-866.94,-1684.14,-4230.12
312758.6227,-11119.32,-802.09,-1598.55,-4160.74
312758.6237,-11007.02,-695.42,-1465.89,-4045.96
312758.6247,-10904.17,-589.32,-1350.83,-3934.91
312758.6257,-10802.22,-490.76,-1252.56,-3833.15
312758.6267,-10685.06,-381.57,-1160.19,-3727.39
312758.6277,-10570.81,-278.33,-1059.87,-3626.92
312758.6287,-10491.71,-208.66,-983.14,-3558.73
312758.6297,-10476.21,-191.83,-947.9,-3543.47
312758.6307,-10504.25,-217.87,-927.4,-3564.55
312758.6317,-10547.97,-272.13,-962.4,-3616.91
312758.6327,-10602.76,-342.61,-1050.19,-3693.68
312758.6337,-10683.16,-425.72,-1153.23,-3782.27
312758.6347,-10785.77,-524.23,-1251.41,-3884.79
312758.6357,-10916.57,-642.97,-1366.0,-4006.0
312758.6367,-11050.08,-754.02,-1483.87,-4117.39
312758.6377,-11156.13,-845.58,-1582.15,-4210.95
312758.6387,-11215.07,-895.36,-1641.08,-4259.06
312758.6397,-11228.94,-909.9,-1663.21,-4267.31
312758.6407,-11229.23,-905.85,-1664.4,-4260.83
312758.6417,-11203.15,-875.57,-1642.66,-4225.35
312758.6427,-11129.38,-805.0,-1582.0,-4152.01
312758.6437,-11017.37,-713.78,-1494.93,-4053.69
312758.6447,-10885.76,-603.44,-1384.83,-3941.25
312758.6457,-10751.87,-491.48,-1243.4,-3823.61
312758.6467,-10632.23,-383.42,-1104.21,-3713.18
312758.6477,-10540.2,-290.97,-989.63,-3624.15
312758.6487,-10497.09,-240.56,-937.46,-3582.19
312758.6497,-10468.29,-219.2,-910.66,-3559.78
312758.6507,-10465.77,-215.1,-927.26,-3555.58
312758.6517,-10511.11,-254.82,-1000.5,-3597.98
312758.6527,-10584.07,-325.97,-1078.61,-3675.03
312758.6537,-10678.82,-419.52,-1167.49,-3776.03
312758.6547,-10796.5,-529.0,-1279.59,-3892.95
312758.6557,-10924.44,-644.73,-1391.7,-4008.63
312758.6567,-11044.5,-750.97,-1496.89,-4116.87
312758.6577,-11138.49,-833.13,-1584.39,-4192.4
312758.6587,-11200.0,-873.47,-1629.35,-4231.26
312758.6597,-11246.59,-905.85,-1656.34,-4260.35
312758.6607,-11281.49,-933.74,-1684.38,-4287.29
312758.6617,-11262.7,-912.62,-1663.26,-4265.83
312758.6627,-11166.19,-828.17,-1567.22,-4173.8
312758.6637,-11036.49,-716.02,-1452.06,-4057.26
312758.6647,-10913.8,-604.53,-1349.02,-3941.3
312758.6657,-10805.89,-505.64,-1257.75,-3840.07
312758.6667,-10721.54,-428.82,-1180.17,-3758.24
312758.6677,-10634.33,-351.38,-1087.47,-3682.18
312758.6687,-10556.89,-291.25,-1013.04,-3629.68
312758.6697,-10486.84,-244.95,-954.34,-3589.34
312758.6707,-10441.88,-212.43,-915.43,-3560.73
312758.6717,-10450.46,-219.54,-929.78,-3576.33
312758.6727,-10507.49,-273.51,-989.25,-3633.5
312758.6737,-10613.11,-376.51,-1088.81,-3733.25
312758.6747,-10747.62,-500.68,-1222.09,-3855.32
312758.6757,-10887.81,-627.71,-1363.23,-3980.59
312758.6767,-11019.8,-744.92,-1494.84,-4100.23
312758.6777,-11141.06,-846.91,-1614.14,-4205.08
312758.6787,-11220.84,-907.37,-1686.81,-4267.88
312758.6797,-11245.4,-928.12,-1701.93,-4283.71
312758.6807,-11242.72,-924.78,-1691.77,-4274.32
312758.6817,-11193.94,-882.77,-1643.61,-4224.06
312758.6827,-11090.52,-791.36,-1544.86,-4127.36
312758.6837,-10967.45,-679.25,-1430.46,-4015.06
312758.6847,-10868.98,-582.41,-1323.37,-3915.5
312758.6857,-10785.68,-500.01,-1224.09,-3831.1
312758.6867,-10683.49,-404.36,-1125.19,-3735.59
312758.6877,-10573.44,-306.89,-1030.35,-3637.41
312758.6887,-10507.58,-247.19,-980.0,-3587.06
312758.6897,-10478.07,-222.11,-948.86,-3566.69
312758.6907,-10460.9,-215.39,-923.16,-3560.83
312758.6917,-10490.75,-251.72,-961.78,-3600.65
312758.6927,-10580.92,-340.84,-1065.4,-3693.39
312758.6937,-10699.8,-453.04,-1189.66,-3810.22
312758.6947,-10811.71,-554.61,-1285.27,-3911.3
312758.6957,-10905.84,-631.43,-1368.57,-3997.9
312758.6967,-11017.94,-727.03,-1484.44,-4101.18
312758.6977,-11144.93,-841.57,-1609.37,-4212.62
312758.6987,-11211.78,-900.51,-1665.16,-4261.59
312758.6997,-11252.07,-927.31,-1704.69,-4285.24
312758.7007,-11281.11,-951.29,-1736.78,-4299.31
312758.7017,-11246.78,-921.34,-1714.47,-4258.54
312758.7027,-11140.63,-819.11,-1623.58,-4152.01
312758.7037,-11022.62,-713.4,-1516.63,-4040.58
312758.7047,-10891.92,-590.61,-1380.3,-3917.41
312758.7057,-10720.92,-444.56,-1180.27,-3767.68
312758.7067,-10559.08,-315.24,-1035.17,-3637.89
312758.7077,-10456.37,-222.87,-957.35,-3558.45
312758.7087,-10437.49,-196.89,-933.46,-3539.66
312758.7097,-10448.84,-201.89,-928.45,-3546.91
312758.7107,-10459.57,-213.96,-919.58,-3560.26
312758.7117,-10504.77,-258.4,-962.69,-3607.75
312758.7127,-10583.45,-330.5,-1050.04,-3684.95
312758.7137,-10685.73,-424.81,-1154.85,-3782.56
312758.7147,-10814.91,-542.12,-1291.8,-3901.39
312758.7157,-10939.74,-657.18,-1415.54,-4016.78
312758.7167,-11045.98,-752.4,-1503.9,-4113.72
312758.7177,-11150.41,-846.39,-1588.87,-4203.75
312758.7187,-11227.04,-909.76,-1652.1,-4268.17
312758.7197,-11260.8,-932.41,-1673.22,-4289.48
312758.7207,-11263.47,-929.16,-1674.6,-4280.9
312758.7217,-11218.17,-889.11,-1631.21,-4231.74
312758.7227,-11110.4,-799.66,-1536.66,-4136.85
312758.7237,-10995.2,-701.95,-1453.26,-4037.86
312758.7247,-10907.94,-611.11,-1403.19,-3947.74
312758.7257,-10792.07,-506.5,-1289.7,-3837.73
312758.7267,-10679.82,-406.79,-1166.73,-3734.88
312758.7277,-10596.18,-326.06,-1084.9,-3651.0
312758.7287,-10527.14,-266.12,-1021.77,-3590.35
312758.7297,-10496.33,-238.75,-1003.93,-3568.98
312758.7307,-10503.82,-243.85,-1035.64,-3582.62
312758.7317,-10540.82,-277.38,-1066.06,-3628.02
312758.7327,-10602.76,-336.22,-1109.41,-3695.01
312758.7337,-10714.87,-429.87,-1207.54,-3793.91
312758.7347,-10864.45,-546.88,-1316.98,-3916.69
312758.7357,-10981.47,-649.5,-1390.98,-4016.35
312758.7367,-11092.33,-761.56,-1490.4,-4126.64
312758.7377,-11191.32,-863.03,-1581.14,-4224.06
312758.7387,-11244.16,-923.2,-1622.2,-4274.46
312758.7397,-11252.45,-934.55,-1639.65,-4278.95
312758.7407,-11212.16,-903.08,-1628.26,-4243.09
312758.7417,-11144.11,-847.63,-1586.87,-4187.92
312758.7427,-11062.0,-769.57,-1518.54,-4111.58
312758.7437,-10944.84,-655.65,-1409.39,-3997.76
312758.7447,-10817.05,-530.24,-1276.59,-3871.97
312758.7457,-10711.67,-432.92,-1159.1,-3769.45
312758.7467,-10631.04,-354.1,-1084.71,-3695.01
312758.7477,-10544.64,-266.98,-1016.66,-3616.81
312758.7487,-10488.56,-215.82,-965.07,-3568.13
312758.7497,-10458.04,-195.74,-931.84,-3545.19
312758.7507,-10452.61,-196.79,-929.69,-3543.57
312758.7517,-10497.62,-241.47,-982.48,-3592.78
312758.7527,-10590.36,-329.35,-1071.64,-3685.43
312758.7537,-10704.38,-436.83,-1178.07,-3795.24
312758.7547,-10823.2,-538.16,-1286.46,-3902.77
312758.7557,-10940.41,-646.16,-1390.89,-4007.44
312758.7567,-11070.11,-763.61,-1499.75,-4116.25
312758.7577,-11186.55,-864.55,-1596.98,-4210.9
312758.7587,-11246.25,-921.39,-1650.62,-4261.07
312758.7597,-11251.02,-936.84,-1660.06,-4271.79
312758.7607,-11221.98,-917.63,-1640.46,-4246.66
312758.7617,-11159.18,-860.79,-1594.97,-4186.82
312758.7627,-11085.8,-791.93,-1532.17,-4116.87
312758.7637,-11001.02,-704.86,-1448.15,-4028.85
312758.7647,-10879.37,-586.32,-1345.92,-3911.35
312758.7657,-10732.51,-449.56,-1230.76,-3779.89
312758.7667,-10625.98,-353.1,-1147.22,-3688.05
312758.7677,-10554.46,-287.29,-1083.04,-3627.87
312758.7687,-10508.11,-247.91,-1025.82,-3588.77
312758.7697,-10496.67,-237.99,-994.01,-3582.33
312758.7707,-10495.9,-240.18,-974.94,-3593.02
312758.7717,-10537.72,-275.09,-1012.9,-3636.65
312758.7727,-10629.94,-355.1,-1118.04,-3717.38
312758.7737,-10755.92,-467.4,-1243.88,-3830.62
312758.7747,-10882.24,-586.94,-1329.57,-3948.31
312758.7757,-10994.1,-691.99,-1417.54,-4047.11
312758.7767,-11071.97,-771.57,-1501.85,-4119.06
312758.7777,-11155.32,-859.36,-1586.87,-4194.93
312758.7787,-11213.64,-934.12,-1645.09,-4254.77
312758.7797,-11201.0,-950.05,-1651.43,-4267.07
312758.7807,-11170.63,-919.77,-1632.83,-4246.76
312758.7817,-11135.91,-857.31,-1588.39,-4195.83
312758.7827,-11070.44,-776.86,-1531.98,-4111.72
312758.7837,-10986.62,-690.7,-1452.88,-4020.55
312758.7847,-10877.56,-586.65,-1344.06,-3916.36
312758.7857,-10750.01,-468.11,-1227.67,-3795.96
312758.7867,-10621.12,-350.14,-1118.99,-3678.61
312758.7877,-10504.29,-249.1,-1006.03,-3582.53
312758.7887,-10456.56,-212.19,-957.25,-3548.67
312758.7897,-10455.66,-213.77,-948.76,-3550.63
312758.7907,-10454.56,-220.87,-935.13,-3559.35
312758.7917,-10483.98,-255.06,-958.16,-3602.12
312758.7927,-10573.25,-332.69,-1037.69,-3683.28
312758.7937,-10696.6,-435.73,-1153.09,-3790.47
312758.7947,-10822.92,-544.02,-1275.78,-3901.58
312758.7957,-10940.65,-652.84,-1395.03,-4010.25
312758.7967,-11052.9,-756.45,-1508.57,-4115.77
312758.7977,-11149.36,-842.91,-1626.44,-4207.71
312758.7987,-11208.49,-894.98,-1701.74,-4254.1
312758.7997,-11233.38,-911.81,-1730.16,-4266.02
312758.8007,-11242.34,-917.53,-1744.41,-4267.31
312758.8017,-11212.49,-891.54,-1704.98,-4235.65
312758.8027,-11151.89,-838.76,-1606.66,-4174.04
312758.8037,-11068.63,-754.74,-1498.79,-4090.26
312758.8047,-10924.67,-624.04,-1358.8,-3953.89
312758.8057,-10760.88,-481.46,-1216.89,-3807.02
312758.8067,-10613.87,-358.15,-1084.42,-3682.47
312758.8077,-10507.2,-271.18,-977.33,-3592.59
312758.8087,-10434.58,-213.1,-887.73,-3538.42
312758.8097,-10412.31,-194.07,-854.02,-3525.83
312758.8107,-10442.97,-213.38,-890.11,-3550.34
312758.8117,-10505.53,-267.7,-962.64,-3607.27
312758.8127,-10578.2,-338.84,-1048.85,-3685.57
312758.8137,-10665.66,-420.48,-1134.82,-3773.4
312758.8147,-10774.38,-522.66,-1245.07,-3874.78
312758.8157,-10909.03,-639.15,-1371.48,-3993.27
312758.8167,-11036.21,-747.49,-1483.97,-4105.66
312758.8177,-11149.5,-843.24,-1581.86,-4202.27
312758.8187,-11217.79,-901.17,-1645.37,-4258.73
312758.8197,-11252.12,-921.54,-1673.32,-4276.42
