TimeStamp,ECR,FCR,ECU,FCU,time_index
312787.3437,11.734371215214646,11.545549999725322,26.455692904670347,16.686296765723977,31.0
312787.3447,9.978867879509716,9.461201624632922,22.46578042022828,15.212755109761574,31.00099999998929
312787.3457,7.91233960630778,7.116510564454819,18.05472534150941,13.38114040157044,31.00199999997858
312787.3467,5.606307315368223,4.57227307255455,13.332081999809052,11.244302290721894,31.00299999996787
312787.3477,3.148763408789386,1.9009337524204117,8.422201074559487,8.87058544480907,31.00399999995716
312787.3487,0.6426403990320483,-0.814257227582074,3.462622793697438,6.343314256687719,31.00499999994645
312787.3497,-1.797132571495203,-3.4811574736703514,-1.3988283809661117,3.7589568603192145,31.005999999993946
312787.3507,-4.047991181396998,-6.0017429163893095,-6.00830635692058,1.223919564328051,31.006999999983236
312787.3517,-5.98537445956876,-8.276124887142766,-10.21147381834628,-1.149937509005836,31.007999999972526
312787.3527,-7.489354140900902,-10.207366917857634,-13.860059170464886,-3.250833343205402,31.008999999961816
312787.3537,-8.451839773439273,-11.706791707025248,-16.819059614233325,-4.973292388010075,31.009999999951106
312787.3547,-8.783846260015991,-12.699390429234258,-18.974098858326244,-6.224612177098621,31.010999999998603
312787.3557,-8.422254354782856,-13.12890174092683,-20.23837797661555,-6.931061578801488,31.011999999987893
312787.3567,-7.335488285449435,-12.962122307556617,-20.558638268623305,-7.043286490026339,31.012999999977183
312787.3577,-5.527581239603397,-12.192046563714769,-19.919590125624485,-6.540436000028141,31.013999999966472
312787.3587,-3.0401969928459693,-10.83950881981785,-18.346350916757046,-5.432605249702149,31.014999999955762
312787.3597,0.047682457711124296,-8.953109946031052,-15.904571452419004,-3.761314984650391,31.015999999945052
312787.3607,3.622519105781933,-6.607344489255329,-12.698103433224137,-1.5979016763986968,31.01699999999255
312787.3617,7.541354632230171,-3.898990432866,-8.864254359058064,0.9601375128539907,31.01799999998184
312787.3627,11.639049935771814,-0.9419696341965866,-4.566874113462545,3.7946291423386938,31.01899999997113
312787.3637,15.737181857641804,2.138981212001948,0.012299449635225652,6.7736647006224535,31.01999999996042
312787.3647,19.654006022522076,5.2153838553564515,4.683457390181742,9.759498608900632,31.02099999994971
312787.3657,23.214796427068546,8.162321995739534,9.259015785003296,12.616817117115193,31.021999999997206
312787.3667,26.2618298770292,10.865435679673729,13.563659937492469,15.220756211025666,31.022999999986496
312787.3677,28.663301286364426,13.227088354029036,17.443419758890442,17.464064430845745,31.023999999975786
312787.3687,30.320533458462382,15.171254506669582,20.77313500520602,19.262876913331105,31.024999999965075
312787.3697,31.172976099498154,16.646781500331294,23.46179977087143,20.560683972752756,31.025999999954365
312787.3707,31.200662392693648,17.62881513490249,25.455449938541857,21.330230730734037,31.027000000001863
312787.3717,30.423992497029914,18.118332525273456,26.737459556113816,21.573259884088003,31.027999999991152
312787.3727,28.900924276527412,18.13988418467956,27.32632413647094,21.318191742121332,31.028999999980442
312787.3737,26.72185392564904,17.73779543884909,27.27121154901776,20.616007630972753,31.029999999969732
312787.3747,24.002645210799912,16.971202046438417,26.64573631889153,19.5347490552607,31.030999999959022
312787.3757,20.876400491321778,15.908384914021434,25.54054523725423,18.15315244446373,31.03199999994831
312787.3767,17.484648049781157,14.62091604552302,24.055379779303095,16.553998369175474,31.03299999999581
312787.3777,13.968641988213731,13.178128318667504,22.291297643031438,14.817759819237901,31.0339999999851
312787.3787,10.46143197536528,11.642375662481701,20.343691187837837,13.017086532253987,31.03499999997439
312787.3797,7.081264982897628,10.065462378461042,18.29663981270759,11.212566481006354,31.03599999996368
312787.3807,3.9267394803814013,8.486499246869615,16.218986697766972,9.450071005495257,31.036999999952968
312787.3817,1.073958219553688,6.931301303481717,14.162352331160315,7.759829822607108,31.038000000000466
312787.3827,-1.4242645572672203,5.413291344069931,12.161105099288966,6.1572116978108244,31.038999999989755
312787.3837,-3.5372739183352837,3.935728578548982,10.234121272268604,4.645022198289674,31.039999999979045
312787.3847,-5.253824187136603,2.4949570104409196,8.388000657091437,3.2169872388205456,31.040999999968335
312787.3857,-6.578142856470993,1.0842747055191013,6.621275387224802,1.861983467026206,31.041999999957625
312787.3867,-7.52533009483953,-0.30202826623658174,4.929069382650101,0.5685138447039517,31.042999999946915
312787.3877,-8.116648141247508,-1.664924034778564,3.3076417398893967,-0.6710853926377406,31.043999999994412
312787.3887,-8.375231516725941,-2.9976174755730463,1.7582800660776323,-1.8571812387558588,31.044999999983702
312787.3897,-8.322673106012125,-4.283579312046467,0.29009542030675217,-2.980512903727657,31.04599999997299
312787.3907,-7.9768213795692935,-5.495876467588924,-1.0786001241816108,-4.021258467074457,31.04699999996228
312787.3917,-7.350973122885681,-6.597900290306423,-2.320492561190123,-4.949614983511689,31.04799999995157
312787.3927,-6.454479717213638,-7.545449773354139,-3.401026998460505,-5.727847764004799,31.04899999999907
312787.3937,-5.294620330307032,-8.28998793195547,-4.281545228904306,-6.313609679328016,31.04999999998836
312787.3947,-3.8794490584472046,-8.782768550386352,-4.923463753313554,-6.664196926618175,31.05099999997765
312787.3957,-2.221209873952296,-8.97943926023153,-5.293040551056607,-6.741306977355657,31.051999999966938
312787.3967,-0.33984452273656174,-8.844674119496482,-5.366209613865297,-6.515807253978553,31.052999999956228
312787.3977,1.733898888489564,-8.356379537847058,-5.132946063616013,-5.97201502191153,31.053999999945518
312787.3987,3.9562133270407234,-7.50905231336889,-4.6006630561757245,-5.111030753893747,31.054999999993015
312787.3997,6.269208175887894,-6.315944197846983,-3.79623074214398,-3.9527546446895254,31.055999999982305
312787.4007,8.601358883873047,-4.809796346495615,-2.766338446938694,-2.5363403699049205,31.056999999971595
312787.4017,10.86952389084555,-3.042038600191928,-1.5760809896742993,-0.9189893197522458,31.057999999960884
312787.4027,12.982455926922217,-1.0804900193753193,-0.30582291395694383,0.826852277483125,31.058999999950174
312787.4037,14.845573284293565,0.9942652210845221,0.9534366738791278,2.6176773251819387,31.05999999999767
312787.4047,16.36661593781088,3.093531768286806,2.1058275897478143,4.364133926991814,31.06099999998696
312787.4057,17.46170584939256,5.125799821274772,3.0570160672712707,5.976825188886776,31.06199999997625
312787.4067,18.06127139700797,7.002242489623072,3.7207049622641826,7.372188271699588,31.06299999996554
312787.4077,18.115289060575098,8.641958556922368,4.024661214673524,8.477940719763641,31.06399999995483
312787.4087,17.59734253842311,9.976535270298307,3.9157452097263863,9.237623806310902,31.06500000000233
312787.4097,16.50709630595911,10.953575174427506,3.3635071088676556,9.613859300536967,31.065999999991618
312787.4107,14.870918272153949,11.53893277696281,2.362047150133632,9.590059012817415,31.066999999980908
312787.4117,12.74055157604348,11.7175306916443,0.9299974524389958,9.170473513392478,31.067999999970198
312787.4127,10.189912825819182,11.492758510143172,-0.8913436871401232,8.37862302258436,31.068999999959487
312787.4137,7.310266089481396,10.884587825587774,-3.0415245730547675,7.25430423271441,31.069999999948777
312787.4147,4.204171986277709,9.926650867211164,-5.445750622358623,5.849496983483258,31.070999999996275
312787.4157,0.9787246443071754,8.662617134008558,-8.020529332110497,4.22359161664528,31.071999999985565
312787.4167,-2.2613450800111847,7.142254068583242,-10.679618466271469,2.4384121741648626,31.072999999974854
312787.4177,-5.420110442258951,5.417569620143164,-13.339730649204947,0.553517328433035,31.073999999964144
312787.4187,-8.41588840184256,3.5394059643791396,-15.92548558394342,-1.3777802576310645,31.074999999953434
312787.4197,-11.185228583204921,1.5547881892658257,-18.37318865823824,-3.311320086426631,31.07600000000093
312787.4207,-13.685140590868599,-0.49476338817989546,-20.633142760986146,-5.213688768963768,31.07699999999022
312787.4217,-15.893416208758918,-2.573863304253569,-22.67035569702077,-7.062408835183878,31.07799999997951
312787.4227,-17.807083614708556,-4.652861658370818,-24.463672935172738,-8.844776370764688,31.0789999999688
312787.4237,-19.43920697135747,-6.706560634371357,-26.003527678284552,-10.555545204879722,31.07999999995809
312787.4247,-20.81439958633638,-8.712291570075225,-27.28864106033524,-12.19377657180105,31.08099999994738
312787.4257,-21.963537296916215,-10.647669109989321,-28.322110471492167,-13.759260522455387,31.081999999994878
312787.4267,-22.918229379411304,-12.488375520033856,-29.107382981877283,-15.248959988509975,31.082999999984168
312787.4277,-23.705620311471407,-14.206325644787283,-29.644617617308146,-16.653925705672847,31.083999999973457
312787.4287,-24.34405564676854,-15.768521370343068,-29.927894120883828,-17.957080340701634,31.084999999962747
312787.4297,-24.840053091755195,-17.13682795417016,-29.94363142883721,-19.1321780413701,31.085999999952037
312787.4307,-25.18688468982749,-18.268800941892415,-29.67044589475214,-20.144120415142872,31.086999999999534
312787.4317,-25.364911113124492,-19.119572198936766,-29.080520754394026,-20.950664185649895,31.087999999988824
312787.4327,-25.343630636906664,-19.644679222783058,-28.142390486112554,-21.505404152621015,31.088999999978114
312787.4337,-25.085230944526035,-19.803606301539944,-26.824883654559994,-21.761772943614496,31.089999999967404
312787.4347,-24.549278598440928,-19.56371143084959,-25.101831905259143,-21.67768089744462,31.090999999956694
312787.4357,-23.698063846777192,-18.904149396877802,-22.95705505596417,-21.22033746586819,31.091999999945983
312787.4367,-22.502048889583698,-17.819376260025418,-20.38908302609079,-20.370758449227093,31.09299999999348
312787.4377,-20.94485259902104,-16.32183704827812,-17.415080203882,-19.127475486228295,31.09399999998277
312787.4387,-19.02724543261745,-14.44349607001912,-14.073496979718222,-17.509024954246904,31.09499999997206
312787.4397,-16.76972089410049,-12.235963064257405,-10.425081402607434,-15.554897459911944,31.09599999996135
312787.4407,-14.213345324099006,-9.769089948728206,-6.552031188644544,-13.324766773629124,31.09699999995064
312787.4417,-11.418752835190654,-7.128050884692104,-2.555238653989873,-10.895975387893937,31.097999999998137
312787.4427,-8.4633307887874,-4.409059677422068,1.4502379694208989,-8.359417757064302,31.098999999987427
312787.4437,-5.43681601924358,-1.71400960827374,5.341171433612003,-5.8141159653641425,31.099999999976717
312787.4447,-2.4356761305291874,0.8555710932706029,8.99317892600184,-3.360911213371905,31.100999999966007
312787.4457,0.443231243480234,3.2047804611737702,12.288194196990025,-1.0957855732034072,31.101999999955297
312787.4467,3.1091567079962528,5.251319766798307,15.12178492449733,0.8966270694642812,31.102999999944586
312787.4477,5.483532575358198,6.930697045844329,17.40970275101025,2.548788701112383,31.103999999992084
312787.4487,7.505076824584337,8.200224148518114,19.09311114867798,3.814769001986265,31.104999999981374
312787.4497,9.13347223804211,9.041470244948783,20.142045798972994,4.673130392536279,31.105999999970663
312787.4507,10.351297932924588,9.460962004716237,20.556813507283607,5.127935430463048,31.106999999959953
312787.4517,11.164053432929837,9.489067838242216,20.367214776550814,5.207789279934597,31.107999999949243
312787.4527,11.598293128160133,9.177157280631732,19.62966531962141,4.963001989052894,31.10899999999674
312787.4537,11.69806445620645,8.593272797012066,18.422475195821423,4.461119797957297,31.10999999998603
312787.4547,11.519999672552245,7.816676633295648,16.839703736194576,3.781216417625266,31.11099999997532
312787.4557,11.127533794988935,6.931728385648239,14.984129069137165,3.0074410792272457,31.11199999996461
312787.4567,10.584798619099649,6.021601268241789,12.95994166955269,2.2223804557785662,31.1129999999539
312787.4577,9.950767409212611,5.162351962817997,10.865785496471688,1.500800904061828,31.114000000001397
312787.4587,9.274194833557065,4.417819999525469,8.788726902267118,0.9042952713588361,31.114999999990687
312787.4597,8.58981504883525,3.8357516704463714,6.7996350067603775,0.47726901094000934,31.115999999979977
312787.4607,7.916135601506237,3.4454282325403582,4.950317080399411,0.24457223263058064,31.116999999969266
312787.4617,7.255008203612822,3.2569394922121755,3.2725822341704998,0.21092984830491024,31.117999999958556
312787.4627,6.592984626128501,3.2620947838637417,1.779222731437657,0.3621558340616362,31.118999999947846
312787.4637,5.904293593796604,3.436817759860822,0.4667221002977858,0.6679755020142658,31.119999999995343
312787.4647,5.155119210371034,3.7447427798153963,-0.6806599551418501,1.0861367428079383,31.120999999984633
312787.4657,4.308737934087107,4.141630809448149,-1.685899070842063,1.56738071431881,31.121999999973923
312787.4667,3.3309911719122174,4.58016059409187,-2.5738632050047356,2.060774467373239,31.122999999963213
312787.4677,2.1955416305354953,5.014631789974452,-3.3661856954100826,2.51888842986172,31.123999999952503
312787.4687,0.8883861597870508,5.405141904164411,-4.076890761299167,2.9023317428009605,31.125
312787.4697,-0.5888267241706439,5.720865255494279,-4.70922159022762,3.1832345993432587,31.12599999998929
312787.4707,-2.2170077254742804,5.942162734911984,-5.253991749174395,3.3473810068365495,31.12699999997858
312787.4717,-3.9595489027321262,6.061375680804877,-5.689621027157456,3.3948361736640074,31.12799999996787
312787.4727,-5.76397286020336,6.082293216748819,-5.983842752086684,3.339065934252264,31.12899999995716
312787.4737,-7.565157321242262,6.018416428212392,-6.0968982433210615,3.2046960844440604,31.12999999994645
312787.4747,-9.289831763281972,5.890261583641734,-5.985882132598177,3.0241924120080528,31.130999999993946
312787.4757,-10.861921662317114,5.72203663087174,-5.609784605048627,2.833844621000497,31.131999999983236
312787.4767,-12.208236904153921,5.5380815514082125,-4.934704567478301,2.669499422589232,31.132999999972526
312787.4777,-13.26397151262581,5.3594785646967,-3.938688225500433,2.5625040307364038,31.133999999961816
312787.4787,-13.977504561874959,5.2012114900219455,-2.615682262457999,2.536290022359934,31.134999999951106
312787.4797,-14.31406438330082,5.070187864438022,-0.9781761616780903,2.603952591183647,31.135999999998603
312787.4807,-14.25793248582334,4.964339656892035,0.9417643514430918,2.7670695917457824,31.136999999987893
312787.4817,-13.813008407986333,4.872898789662504,3.0932139015354605,3.01586993391608,31.137999999977183
312787.4827,-13.001717488571813,4.777814535365376,5.408824441914154,3.3307157375560568,31.138999999966472
312787.4837,-11.862404254508897,4.656154495567301,7.808785063541095,3.6847220733183272,31.139999999955762
312787.4847,-10.44549885201847,4.483222182164685,10.205958554701692,4.047216479010236,31.140999999945052
312787.4857,-8.808858438991276,4.236043417729663,12.511734032732697,4.38765018658922,31.14199999999255
312787.4867,-7.0127585554404845,3.8968292264961972,14.642065453474958,4.679523365001488,31.14299999998184
312787.4877,-5.115034230952949,3.4560193149855802,16.523148059769344,4.90388279960151,31.14399999997113
312787.4887,-3.1668448864034215,2.9145482018988558,18.096220425043615,5.051992772803706,31.14499999996042
312787.4897,-1.2094639247958887,2.2850518965238247,19.32106498756992,5.126864275526394,31.14599999994971
312787.4907,0.7276189785720973,1.5918392306521347,20.177906277989024,5.143445584358953,31.146999999997206
312787.4917,2.627135780365277,0.8695778952501055,20.667560819100014,5.127416777663953,31.147999999986496
312787.4927,4.483025505231922,0.1607782422223998,20.80986056327558,5.112677791557912,31.148999999975786
312787.4937,6.298126743310833,-0.4877154762330973,20.64053613918725,5.1377591720214095,31.149999999965075
312787.4947,8.080871173048985,-1.0289094331995945,20.206890934222393,5.24150248428104,31.150999999954365
312787.4957,9.841375090022693,-1.4201261055326133,19.562707991295696,5.458441237801945,31.152000000001863
312787.4967,11.587387087067645,-1.6273190330136897,18.762898115025116,5.814354365615265,31.152999999991152
312787.4977,13.320563181504415,-1.628807728962523,17.858413197500216,6.322458194381812,31.153999999980442
312787.4987,15.033504550181865,-1.4180505772689462,16.891912395689907,6.980649606692948,31.154999999969732
312787.4997,16.707911355419927,-1.0051585091883877,15.894584399011833,7.7701175987137745,31.155999999959022
312787.5007,18.31408730090431,-0.41696754459613916,14.884405350269176,8.655511794722527,31.15699999994831
312787.5017,19.81188570853511,0.3043771960529008,13.865961630615741,9.586707174900868,31.15799999999581
312787.5027,21.153033776691395,1.1042326997456684,12.831804900822544,10.502048914497903,31.1589999999851
312787.5037,22.284623064737374,1.9194380009393357,11.765149807338831,11.332815120659015,31.15999999997439
312787.5047,23.153426430258722,2.683123721387877,10.643588380577691,12.008512862411232,31.16099999996368
312787.5057,23.710607852270154,3.3299309988469403,9.443393044317151,12.462536434350316,31.161999999952968
312787.5067,23.916341643442852,3.801178046914172,8.143922533225329,12.637675016287686,31.163000000000466
312787.5077,23.74385693709013,4.049514693357793,6.7316376228803065,12.490964183315597,31.163999999989755
312787.5087,23.182472529593152,4.0426508739259885,5.203277110018389,11.997431685228594,31.164999999979045
312787.5097,22.239281644767722,3.7658298556975978,3.5678345158609663,11.15238738781969,31.165999999968335
312787.5107,20.93927685049642,3.2228327746075274,1.8471034099313637,9.972040819601641,31.166999999957625
312787.5117,19.323859382485793,2.4354367488847486,0.07471116557511867,8.492384612560365,31.167999999946915
312787.5127,17.44783925156094,1.4413913276904027,-1.7062780465346765,6.766443375622454,31.168999999994412
312787.5137,15.375186524874636,0.2911136826241694,-3.4469565254439902,4.86013965284411,31.169999999983702
312787.5147,13.173924537283574,-0.9565812124764026,-5.096997387669212,2.847156917040656,31.17099999997299
312787.5157,10.91064917709898,-2.239314136605195,-6.609450629558549,0.8032716516609028,31.17199999996228
312787.5167,8.64520501686984,-3.4960913783824172,-7.945403718486742,-1.1993263996446348,31.17299999995157
312787.5177,6.426043679898168,-4.671919859715861,-9.078003342924731,-3.0972092956110657,31.17399999999907
312787.5187,4.286732291107151,-5.721676444065653,-9.99539051788732,-4.839916600566922,31.17499999998836
312787.5197,2.2439751431286696,-6.612898691876844,-10.702203484514708,-6.392823120784013,31.17599999997765
312787.5207,0.29736949195830187,-7.3272736620890875,-11.219441976105264,-7.738430990222705,31.176999999966938
312787.5217,-1.5690498655962943,-7.8607307331551395,-11.582648903525852,-8.876001480126199,31.177999999956228
312787.5227,-3.383596948263206,-8.222181095185027,-11.83853536227331,-9.819602245636489,31.178999999945518
312787.5237,-5.1823371835619865,-8.431077182938592,-12.040335240151364,-10.594797807286012,31.179999999993015
312787.5247,-7.003532158842879,-8.514077194319466,-12.24231056551879,-11.2343401949621,31.180999999982305
312787.5257,-8.881654190355556,-8.501182207633866,-12.49392442482851,-11.77331042162668,31.181999999971595
312787.5267,-10.841550974101835,-8.421758476810412,-12.834244882849072,-12.244210843611638,31.182999999960884
312787.5277,-12.893338464232807,-8.300861168672395,-13.287135686201756,-12.672508885896084,31.183999999950174
312787.5287,-15.028542940458802,-8.156238131557487,-13.857727716960582,-13.073084228820113,31.18499999999767
312787.5297,-17.217905931069513,-7.996317346383026,-14.530554569532127,-13.447939283693454,31.18599999998696
312787.5307,-19.411118051827987,-7.8193772534122115,-15.269586415484728,-13.785405801226675,31.18699999997625
312787.5317,-21.5385736154635,-7.613975775491522,-16.020222474433464,-14.06093127561525,31.18799999996554
312787.5327,-23.515053374076604,-7.360583972327209,-16.713120369060803,-14.239372054150449,31.18899999995483
312787.5337,-25.245065322034286,-7.034246819933735,-17.26956773324022,-14.27857103482809,31.19000000000233
312787.5347,-26.62941981703447,-6.607988847072329,-17.607954192381545,-14.133871005361296,31.190999999991618
312787.5357,-27.572499833350015,-6.05660657538313,-17.650794376190643,-13.763122285857877,31.191999999980908
312787.5367,-27.989620769094902,-5.360450260407539,-17.331695321325093,-13.131694207319379,31.192999999970198
312787.5377,-27.81386304064028,-4.5087980244216,-16.601660068172333,-12.216998652303667,31.193999999959487
312787.5387,-27.00180560679,-3.5024658210932227,-15.434173728925066,-11.012080282688594,31.194999999948777
312787.5397,-25.537685135630866,-2.3553725450651615,-13.828623732763297,-9.527917415024087,31.195999999996275
312787.5407,-23.435644428780616,-1.0948832623289917,-11.811752406361157,-7.794200849483078,31.196999999985565
312787.5417,-20.73990164155012,0.23912546439788812,-9.437013686957217,-5.85850311806575,31.197999999974854
312787.5427,-17.522852788321728,1.596407973892,-6.781890183531988,-3.7839033318283626,31.198999999964144
312787.5437,-13.881296872260942,2.9195106226584637,-3.943404607735593,-1.6452781538136567,31.199999999953434
312787.5447,-9.931129126643912,4.147662979791106,-1.0322140982469628,0.4754067173617433,31.20100000000093
312787.5457,-5.8009688353171525,5.221039871069125,1.8342072143970083,2.4943797388183406,31.20199999999022
312787.5467,-1.6252630776567942,6.085000421399572,4.538723575780378,4.331448168005586,31.20299999997951
312787.5477,2.462569833026517,6.693914903373146,6.971442871918096,5.915008965106397,31.2039999999688
312787.5487,6.336424648578681,7.0142335112432,9.035824438106815,7.186255021666219,31.20499999995809
312787.5497,9.882769373975913,7.026528643190274,10.653532922250276,8.102231513394063,31.20599999994738
312787.5507,13.004550792886006,6.7263459668093075,11.767713179241165,8.637515504002408,31.206999999994878
312787.5517,15.623563779850898,6.123818910121414,12.344519784183955,8.784430782717584,31.207999999984168
312787.5527,17.681264048129474,5.242124137074054,12.372904509061357,8.551855228770254,31.208999999973457
312787.5537,19.13816081155776,4.114969550557501,11.86282907105633,7.9628150976437775,31.209999999962747
312787.5547,19.972062329022698,2.783399835748763,10.842212440957688,7.051175728190957,31.210999999952037
312787.5557,20.175549693609636,1.2922680007807785,9.353028165448388,5.857819748656287,31.211999999999534
312787.5567,19.753112364808192,-0.3132516838639084,7.447027405970139,4.426743804467684,31.212999999988824
312787.5577,18.718387282580306,-1.9907462727598122,5.18157235284769,2.8014992716311995,31.213999999978114
312787.5587,17.09190158719074,-3.7029295563811004,2.616022205869191,1.0223521212555793,31.214999999967404
312787.5597,14.89963185257714,-5.419060886554909,-0.19097486868219335,-0.8755526075582153,31.215999999956694
312787.5607,12.172569897925143,-7.115295709015174,-3.1830556699377963,-2.8628560226032858,31.216999999945983
312787.5617,8.947339994919995,-8.773967133680209,-6.306501891172121,-4.915451912140828,31.21799999999348
312787.5627,5.267760356760102,-10.381919729783851,-9.509461501708783,-7.012866833452374,31.21899999998277
312787.5637,1.1870997004573651,-11.928126698541362,-12.740252905329442,-9.13579515256541,31.21999999997206
312787.5647,-3.229336941330307,-13.40090803535729,-15.945093951039206,-11.263134512122535,31.22099999996135
312787.5657,-7.901736950067819,-14.785120908871937,-19.065680418018296,-13.368935039253545,31.22199999995064
312787.5667,-12.733897160300538,-16.059708157680664,-22.037073717648347,-15.419699636681917,31.222999999998137
312787.5677,-17.61238041767439,-17.19596432422184,-24.78634085380768,-17.37244976485272,31.223999999987427
312787.5687,-22.40708853121895,-18.156812941265304,-27.232322047876277,-19.173902800822415,31.224999999976717
312787.5697,-26.9735084193546,-18.89728978646532,-29.286788986213125,-20.760999552358136,31.225999999966007
312787.5707,-31.156733204835188,-19.366303897383567,-30.857110157561713,-22.062884052916278,31.226999999955297
312787.5717,-34.79718450045571,-19.509613217667937,-31.85037360437005,-23.004285656491074,31.227999999944586
312787.5727,-37.737782990645854,-19.273818146997613,-32.17874822387339,-23.510100739916513,31.228999999992084
312787.5737,-39.83214922804871,-18.611057412052617,-31.76570973048479,-23.51083333546163,31.229999999981374
312787.5747,-40.95328193068271,-17.483998757486898,-30.552632651064236,-22.948444860222835,31.230999999970663
312787.5757,-41.00207099519795,-15.870661732114327,-28.505168707387735,-21.782094253284313,31.231999999959953
312787.5767,-39.91496697420032,-13.768597653645829,-25.61880405492775,-19.993228970501775,31.232999999949243
312787.5777,-37.67015295879857,-11.197984936425609,-21.92301750477644,-17.589517549425892,31.23399999999674
312787.5787,-34.291648199162324,-8.203274282088126,-17.48354797289205,-14.607194064882007,31.23499999998603
312787.5797,-29.85090938666384,-4.853131501519182,-12.402415430296893,-11.111507195654939,31.23599999997532
312787.5807,-24.46567428430829,-1.238566077295017,-6.815514116073695,-7.195121083086184,31.23699999996461
312787.5817,-18.29599826211914,2.5307115946927374,-0.8877944016042263,-2.974487776828186,31.2379999999539
312787.5827,-11.537649542252781,6.331506132896314,5.193747304763959,1.415613937185824,31.239000000001397
312787.5837,-4.41323482571845,10.033586815060128,11.228861384152586,5.8290172826881035,31.239999999990687
312787.5847,2.8383945956622125,13.506917232641253,17.01405220543132,10.116095242925955,31.240999999979977
312787.5857,9.973770818512522,16.629134759900285,22.3531177968172,14.132097325447873,31.241999999969266
312787.5867,16.756705613836196,19.292718224480556,27.067482936836203,17.74527366248912,31.242999999958556
312787.5877,22.969670758348077,21.41129900063659,31.005591502181105,20.844176846452168,31.243999999947846
312787.5887,28.42392293136632,22.92463460028089,34.05069083274728,23.343596825440887,31.244999999995343
312787.5897,32.96773745138684,23.80186917534893,36.126464125312175,25.18869615784541,31.245999999984633
312787.5907,36.492268329716666,24.042842848307263,37.20013558926981,26.357061822077515,31.246999999973923
312787.5917,38.9347409211977,23.677369223489624,37.28287229835363,26.858562099982738,31.247999999963213
312787.5927,40.27889098892521,22.76256379471556,36.42751863404019,26.733077201386262,31.248999999952503
312787.5937,40.5527719763895,21.378460776576222,34.72390515940356,26.046344038968243,31.25
312787.5947,39.82424268090455,19.62228853754692,32.29215560039509,24.884303550569275,31.25099999998929
312787.5957,38.19460427658416,17.601872812122263,29.274557634487188,23.34645017342895,31.25199999997858
312787.5967,35.79096608576981,15.428693893368097,25.826653507405755,21.53874800254174,31.25299999996787
312787.5977,32.75797552578261,13.21113464647933,22.108238129783732,19.56669170869319,31.25399999995716
312787.5987,29.249546363914664,11.048420315131471,18.27492376260773,17.52905218575924,31.25499999994645
312787.5997,25.42116329161496,9.025672849377893,14.47084577866095,15.512761697529372,31.255999999993946
312787.6007,21.423237420421138,7.210389827180223,10.822952507820386,13.58926990081707,31.256999999983236
312787.6017,17.395848371192844,5.650521972546824,7.437157246324411,11.81255288711162,31.257999999972526
312787.6027,13.465048941423245,4.3741767676639025,4.396448404247512,10.218796903996962,31.258999999961816
312787.6037,9.740744172732104,3.3908324228353806,1.7608720259321557,8.827622108221037,31.259999999951106
312787.6047,6.3160041832279585,2.693819648125728,-0.4308633277675719,7.64457432178265,31.260999999998603
312787.6057,3.267543884747978,2.263729606621005,-2.158541021823742,6.6645069985044225,31.261999999987893
312787.6067,0.6570141221566863,2.0723436156095896,-3.416819295162337,5.875410883416839,31.262999999977183
312787.6077,-1.4672948199862514,2.0866584792138076,-4.211348134201254,5.262230447173138,31.263999999966472
312787.6087,-3.0687324290779894,2.2726016378078735,-4.55510854734431,4.810234790724315,31.264999999955762
312787.6097,-4.120895799538099,2.5980894097569154,-4.465395923476224,4.5075824185582,31.265999999945052
312787.6107,-4.606824544450428,3.0351725987228697,-3.9617607094267875,4.346825972011825,31.26699999999255
312787.6117,-4.518926267171885,3.5611267945647667,-3.0650817202345895,4.325233256601,31.26799999998184
312787.6127,-3.859647009995549,4.158467981297335,-1.7977949257162562,4.443941060890888,31.26899999997113
312787.6137,-2.642772626472425,4.813994953883757,-0.1851496993224689,4.706093891853432,31.26999999996042
312787.6147,-0.8951336037825978,5.517066349486054,1.7427689399903323,5.11423698613689,31.27099999994971
312787.6157,1.3415997644320654,6.257401260802279,3.9486157595310543,5.667319904983822,31.271999999997206
312787.6167,4.009393045024494,7.0227405151734255,6.385382464061245,6.357714917906115,31.272999999986496
312787.6177,7.032960166082161,7.796716281656515,8.994452938317798,7.168658444982906,31.273999999975786
312787.6187,10.319839085210553,8.557250052730172,11.704515918355247,8.072483723332727,31.274999999965075
312787.6197,13.761676359091963,9.275736461553679,14.431651768967539,9.029932723634708,31.275999999954365
312787.6207,17.236852689282138,9.91717960718501,17.080790154625397,9.990723356398194,31.277000000001863
312787.6217,20.614446257010172,10.441339193285483,19.54859048942091,10.895415603575518,31.277999999991152
312787.6227,23.75938767819148,10.804827351409491,21.72764195826646,11.67848091985438,31.278999999980442
312787.6237,26.538524624544277,10.96398575488143,23.511730563344745,12.272347353108103,31.279999999969732
312787.6247,28.82720000251231,10.878278259937574,24.80179254430034,12.612081941714084,31.280999999959022
312787.6257,30.515867535220536,10.513866862858196,25.5120801032182,12.640293618606178,31.28199999994831
312787.6267,31.516231877328423,9.847005534915185,25.57601670908378,12.311802431033936,31.28299999999581
312787.6277,31.766411998542118,8.86689130926098,24.95122102248399,11.59762863970025,31.2839999999851
312787.6287,31.23468669261848,7.577654774160461,23.62323132533473,10.48790793232392,31.28499999997439
312787.6297,29.921485018359633,5.9992488985431205,21.607561815783665,8.993431786845926,31.28599999996368
312787.6307,27.859423098505037,4.167098376879997,18.949859100261445,7.145636085132753,31.286999999952968
312787.6317,25.11134922506166,2.1304911447213306,15.724088745267307,4.995004335954876,31.288000000000466
312787.6327,21.76652650933355,-0.05018265790375627,12.02885237073035,2.6080002262404856,31.288999999989755
312787.6337,17.93524035574254,-2.30712379411848,7.98209900145929,0.06278297752549711,31.289999999979045
312787.6347,13.742251527762201,-4.56943369393675,3.714634403080802,-2.5559257074761828,31.290999999968335
312787.6357,9.31961145871321,-6.767660697105795,-0.6370647139377914,-5.162374062311136,31.291999999957625
312787.6367,4.799405259658337,-8.838174940927919,-4.93816848564468,-7.6752259499994455,31.292999999946915
312787.6377,0.30698465960741045,-10.726976743477213,-9.062376659831493,-10.02244382816079,31.293999999994412
312787.6387,-4.044801977024985,-12.392595540262574,-12.897848115980583,-12.145189423314187,31.294999999983702
312787.6397,-8.159977135095582,-13.807823338215655,-16.35175554109308,-14.00041995308534,31.29599999997299
312787.6407,-11.962132227591553,-14.96013987753849,-19.353178516509626,-15.561986589036815,31.29699999996228
312787.6417,-15.395351162576102,-15.850815124642793,-21.85420800504921,-16.82018946842107,31.29799999995157
312787.6427,-18.423423553873185,-16.492805601769668,-23.829304044475602,-17.779895316764357,31.29899999999907
312787.6437,-21.027571855574678,-16.90768126078293,-25.273109682118317,-18.45746452718832,31.29999999998836
312787.6447,-23.203051968394103,-17.121916940032754,-26.197061946278318,-18.876850268357913,31.30099999997765
312787.6457,-24.955084002190713,-17.162946883049198,-26.62524144079781,-19.06531120059897,31.301999999966938
312787.6467,-26.294619382603674,-17.05540551567711,-26.589956200444057,-19.049213611473103,31.302999999956228
312787.6477,-27.234447595047317,-16.81795974599196,-26.12755770489273,-18.85038460640592,31.303999999945518
312787.6487,-27.78609103166998,-16.461078772828586,-25.27493760005317,-18.483416590422515,31.304999999993015
312787.6497,-27.957835320727234,-15.985992212121115,-24.06705812539569,-17.954220566292257,31.305999999982305
312787.6507,-27.754105516458417,-15.384965368075502,-22.53573759625072,-17.25999183850386,31.306999999971595
312787.6517,-27.176239614579718,-14.642883559886215,-20.70975832762792,-16.390599837627498,31.307999999960884
312787.6527,-26.224546317942103,-13.739999065560685,-18.616204199433035,-15.331259154330008,31.308999999950174
312787.6537,-24.901380756601544,-12.655568272735666,-16.282785420263288,-14.06619709196031,31.30999999999767
312787.6547,-23.214845884200955,-11.372005788035139,-13.740784699466866,-12.582918566825995,31.31099999998696
312787.6557,-21.182641812653802,-9.879116981599708,-11.028175119022508,-10.876593877452862,31.31199999997625
312787.6567,-18.83554970944633,-8.177947783393677,-8.19242468374964,-8.954066817137903,31.31299999996554
312787.6577,-16.220055418198413,-6.283813447207161,-5.292520090673768,-6.837003292444652,31.31399999995483
312787.6587,-13.399689600576133,-4.228134964429514,-2.399811603777898,-4.563772513139529,31.31500000000233
312787.6597,-10.454779499410346,-2.058817017087896,0.4026043273344226,-2.189767530550485,31.315999999991618
312787.6607,-7.480461183156552,0.16096482048258356,3.022098961081339,0.21398127677126313,31.316999999980908
312787.6617,-4.582975448969865,2.3555500155451017,5.360287126365704,2.5638812106606137,31.317999999970198
312787.6627,-1.8744482853496223,4.4409827655142,7.318158845903601,4.768354994922667,31.318999999959487
312787.6637,0.5334797934980414,6.330296997908457,8.80220333163582,6.733582337385406,31.319999999948777
312787.6647,2.536678670642644,7.939475366089069,9.731035423654669,8.36994237405876,31.320999999996275
312787.6657,4.045622946524011,9.19358534492614,10.041952010662758,9.598611567177631,31.321999999985565
312787.6667,4.9919368930710935,10.03256487457417,9.696816678517221,10.357739179580545,31.322999999974854
312787.6677,5.333795805030304,10.416147677590232,8.686698944698266,10.607643796833596,31.323999999964144
312787.6687,5.0596711624615605,10.327483222109423,7.034778576458126,10.334548135686004,31.324999999953434
312787.6697,4.190038918901952,9.77511268004121,4.797158821786577,9.552489151506691,31.32600000000093
312787.6707,2.776840558053676,8.793100537648924,2.061403206068288,8.30319538956003,31.32699999999022
312787.6717,0.9006796590141336,7.439279110556382,-1.0571966202613161,6.653899353713708,31.32799999997951
312787.6727,-1.334065429258977,5.791725600823801,-4.421417470543907,4.693233073489038,31.3289999999688
312787.6737,-3.8058482040772645,3.9437435429628844,-7.879578362714429,2.525523219487383,31.32999999995809
312787.6747,-6.383762626417318,1.997748501479667,-11.274152925254924,0.26394234030406755,31.33099999994738
312787.6757,-8.935929656323369,0.05854996711167786,-14.450876849837709,-1.9769280251912404,31.331999999994878
312787.6767,-11.337787026693299,-1.7734307966694351,-17.26765797980067,-4.088517699811354,31.332999999984168
312787.6777,-13.479618186091237,-3.4084678583087276,-19.602609184983105,-5.975072876710992,31.333999999973457
312787.6787,-15.272727368878533,-4.772872307673184,-21.36059732892655,-7.559306900029277,31.334999999962747
312787.6797,-16.65379265870272,-5.81297009383001,-22.477828884422166,-8.786466129496374,31.335999999952037
312787.6807,-17.587096016428497,-6.4974437966683904,-22.924162448369383,-9.626526326091524,31.336999999999534
312787.6817,-18.0645228168303,-6.817914567315324,-22.703034839532414,-10.074405148049015,31.337999999988824
312787.6827,-18.103425197358934,-6.787797085828304,-21.849092358899316,-10.148254403895134,31.338999999978114
312787.6837,-17.74263437693364,-6.439610451644073,-20.423813058267516,-9.886064878168801,31.339999999967404
312787.6847,-17.037068987190253,-5.821057493007296,-18.509571419266983,-9.340960974394205,31.340999999956694
312787.6857,-16.05150407357926,-4.990282198712761,-16.202718369704833,-8.575668721169412,31.341999999945983
312787.6867,-14.854127719341232,-4.010771199556857,-13.606315969784495,-7.656699219900038,31.34299999999348
312787.6877,-13.51051349982937,-2.9463758474856707,-10.823171606238606,-6.64879539985182,31.34399999998277
312787.6887,-12.078577360460445,-1.8568962941151843,-7.949761219145266,-5.610143138017395,31.34499999997206
312787.6897,-10.604973092567503,-0.794592325659096,-5.07152088685248,-4.58875363858601,31.34599999996135
312787.6907,-9.123222737841472,0.19812417658004677,-2.2598322150262478,-3.6202922494843506,31.34699999995064
312787.6917,-7.653692588044287,1.0896920020478187,0.429155192412279,-2.7274730070662483,31.347999999998137
312787.6927,-6.205330284598751,1.8591155798920107,2.9539132766570035,-1.9209737960092912,31.348999999987427
312787.6937,-4.778893128716645,2.494543536979069,5.285369737879315,-1.2016704699737337,31.349999999976717
312787.6947,-3.371240424957259,2.990977507217348,7.403576214980135,-0.563855103092518,31.350999999966007
312787.6957,-1.9801491206643698,3.34746260404254,9.293714017156093,0.0009931580392906914,31.351999999955297
312787.6967,-0.6090535435621787,3.5641569399079596,10.942001697632065,0.50036696546784,31.352999999944586
312787.6977,0.728887318692065,3.6396804709657675,12.332069940119652,0.9373017406207841,31.353999999992084
312787.6987,2.0079277833714255,3.5691033285722376,13.442310840543238,1.3077906695975823,31.354999999981374
312787.6997,3.188492539368443,3.3428550866861615,14.24459657909252,1.5993799670551758,31.355999999970663
312787.7007,4.217803983741674,2.946727416359377,14.70460790883444,1.7911495306438807,31.356999999959953
312787.7017,5.032440274395032,2.3630146603152156,14.78383131124889,1.8551308717723132,31.357999999949243
312787.7027,5.562684321359214,1.5727032946179913,14.443093299838148,1.759054400320776,31.35899999999674
312787.7037,5.7383337426388925,0.5584958742884967,13.647320352987814,1.4701679745391514,31.35999999998603
312787.7047,5.495480269062065,-0.6916490913398596,12.3710615520856,0.9597433794023279,31.36099999997532
312787.7057,4.783650112531081,-2.1808519231980115,10.60420368581594,0.2077998925986454,31.36199999996461
312787.7067,3.572636079418758,-3.899944047111468,8.357256599024971,-0.7924665578762525,31.3629999999539
312787.7077,1.8583540119386328,-5.824809337812756,5.665595801953537,-2.03104946164355,31.364000000001397
312787.7087,-0.33287918946964273,-7.914792023885653,2.592119768974898,-3.478732400366735,31.364999999990687
312787.7097,-2.9421268069250743,-10.112436659381682,-0.7720950278895136,-5.0862570990035785,31.365999999979977
312787.7107,-5.877985562084404,-12.344704518159794,-4.309388813284634,-6.785249880917853,31.366999999969266
312787.7117,-9.01922473633025,-14.525672120490762,-7.879412617636209,-8.490934197906542,31.367999999958556
312787.7127,-12.219813501187968,-16.56057491012091,-11.325163795314857,-10.106487617852254,31.368999999947846
312787.7137,-15.316034041232976,-18.350926281075473,-14.480806727055764,-11.528742748032647,31.369999999995343
312787.7147,-18.13519863272789,-19.80033222798788,-17.18075231195147,-12.65479841992856,31.370999999984633
312787.7157,-20.50535091898964,-20.820545715662327,-19.269343738967446,-13.38901299543474,31.371999999973923
312787.7167,-22.26524739912862,-21.337270063277057,-20.610425897594023,-13.649805124198513,31.372999999963213
312787.7177,-23.273891769376206,-21.295230882183816,-21.096068383774366,-13.37569336214671,31.373999999952503
312787.7187,-23.418933708877546,-20.662090741580652,-20.653768314131693,-12.530064405464008,31.375
312787.7197,-22.62334072866345,-19.430874859091258,-19.251574134362002,-11.104264973518934,31.37599999998929
312787.7207,-20.849897276604167,-17.6207010443393,-16.9007349580559,-9.118754797322044,31.37699999997858
312787.7217,-18.103265572917632,-15.275751249835679,-13.655676955796062,-6.622224432188061,31.37799999996787
312787.7227,-14.429540840002517,-12.46257197855713,-9.611321176371858,-3.6887561799728603,31.37899999995716
312787.7237,-9.913431538989888,-9.265932512643438,-4.897966826159936,-0.413273007856448,31.37999999994645
312787.7247,-4.673375156316933,-5.783590326369788,0.3258481944116832,3.094336458793351,31.380999999993946
312787.7257,1.1449537481293284,-2.120401055693648,5.881948276112535,6.7159221612247,31.381999999983236
312787.7267,7.3761863783053805,1.6177419475715702,11.581923101965078,10.332050876224434,31.382999999972526
312787.7277,13.843250138232209,5.329650257481703,17.236633942232935,13.828694218044818,31.383999999961816
312787.7287,20.365213097699773,8.923818151885312,22.665146747624053,17.103104502486026,31.384999999951106
312787.7297,26.76445183912764,12.322269674849375,27.70249585314769,20.068445963736917,31.385999999998603
312787.7307,32.872720191529076,15.463022329603891,32.20581176776871,22.6568760114101,31.386999999987893
312787.7317,38.53583759250726,18.301048912288188,36.058512320893456,24.82092363462119,31.387999999977183
312787.7327,43.61687503907189,20.8077612101931,39.17244194881588,26.533174800424668,31.388999999966472
312787.7337,47.9978772668347,22.969175985199808,41.48803111993211,27.784432018613472,31.389999999955762
312787.7347,51.58030562008743,24.783041931515037,42.97271895706484,28.580652108568714,31.390999999945052
312787.7357,54.28450254870753,26.25529510925532,43.61802103971824,28.939069704419033,31.39199999999255
312787.7367,56.04855454043621,27.39626161286337,43.435718598912516,28.883974648754563,31.39299999998184
312787.7377,56.82695865365784,28.21703552075396,42.45368690952086,28.44262390784497,31.39399999997113
312787.7387,56.58947673677767,28.72642715617802,40.71186705112663,27.641732505955428,31.39499999996042
312787.7397,55.320494142442186,28.928805118780513,38.258819318702066,26.504907507933712,31.39599999994971
312787.7407,53.01909430868433,28.823052864861697,35.14918660044604,25.05127288446515,31.396999999997206
312787.7417,49.69992899842185,28.402737216045736,31.442254530315854,23.29539323398773,31.397999999986496
312787.7427,45.39482102514513,27.65745438459402,27.201637749145835,21.248455124858054,31.398999999975786
312787.7437,40.15489795562188,26.57519197123955,22.495965214445118,18.920521418386283,31.399999999965075
312787.7447,34.052937200951774,25.145435434099983,17.40029895936859,16.32355084715418,31.400999999954365
312787.7457,27.18551874400873,23.362665516763585,11.99791482386151,13.474784792226712,31.402000000001863
312787.7467,19.674541786712073,21.229847052380663,6.382011812973055,10.400054777413668,31.402999999991152
312787.7477,11.667671665733105,18.76150387737499,0.6569056233956341,7.136562644383143,31.403999999980442
312787.7487,3.337344220864248,15.9860097788833,-5.061697015950266,3.73473098463484,31.404999999969732
312787.7497,-5.121938080310732,12.946797951570362,-10.647657180550759,0.2588097792317904,31.405999999959022
312787.7507,-13.498139886808843,9.702294193602922,-15.966781119915947,-3.213952337076491,31.40699999994831
312787.7517,-21.568010491552954,6.324501930024891,-20.880646713786767,-6.595619303607032,31.40799999999581
312787.7527,-29.10496372367296,2.896298067205957,-25.25174450796604,-9.791256321546602,31.4089999999851
312787.7537,-35.888133014619925,-0.4923751628895915,-28.949640614826237,-12.703746284693795,31.40999999997439
312787.7547,-41.7120748881319,-3.7491281498245614,-31.857734000422564,-15.239361490249799,31.41099999996368
312787.7557,-46.39649526543332,-6.784176107415268,-33.88008376315144,-17.313629742558156,31.411999999952968
312787.7567,-49.795325681954544,-9.51540434574653,-34.94773369132086,-18.856988923148347,31.413000000000466
312787.7577,-51.804486909461225,-11.873019870452868,-35.02396767685823,-19.819727289052157,31.413999999989755
312787.7587,-52.367746301935576,-13.803397611994196,-34.10799109375579,-20.17575831405381,31.414999999979045
312787.7597,-51.480197632994845,-15.271801772771767,-32.23664518541638,-19.92487420590817,31.415999999968335
312787.7607,-49.18905832558605,-16.263765025433305,-29.48391398004816,-19.093252421774533,31.416999999957625
312787.7617,-45.59167460904382,-16.785030602361726,-25.958162317865416,-17.732142233100966,31.417999999946915
312787.7627,-40.8308331688651,-16.86009275214159,-21.797232541982495,-15.914819091476922,31.418999999994412
312787.7637,-35.08767986168981,-16.529496914451325,-17.16170847716524,-13.732047833011436,31.419999999983702
312787.7647,-28.57272406638629,-15.846170082624479,-12.226811322473587,-11.286426931027997,31.42099999997299
312787.7657,-21.51554539425452,-14.871133676712033,-7.173508147878129,-8.686082490285798,31.42199999996228
312787.7667,-14.153905611991275,-13.668998057134269,-2.1794787115102374,-6.038233253092371,31.42299999995157
312787.7677,-6.722995392307678,-12.303645276358248,2.5894059343947267,-3.4431516047122837,31.42399999999907
312787.7687,0.5544889220700069,-10.83447440864801,6.986489861751879,-0.9890002213710494,31.42499999998836
312787.7697,7.476835105210613,-9.313515373591489,10.89012403139679,1.252065826260805,31.42599999997765
312787.7707,13.86990784978004,-7.783619721214957,14.207490566301196,3.226267114174856,31.426999999966938
312787.7717,19.591555531539736,-6.277820390212727,16.876282840337804,4.898922287936896,31.427999999956228
312787.7727,24.53373432017214,-4.8198288718835895,18.86425336286325,6.253566369545965,31.428999999945518
312787.7737,28.62244533707866,-3.425520077295773,20.16682475185598,7.289656947667897,31.429999999993015
312787.7747,31.8157550029088,-2.1051545011633026,20.80311978705193,8.01918930486005,31.430999999982305
312787.7757,34.10030955590784,-0.8660142062768191,20.810889680425078,8.462636639068881,31.431999999971595
312787.7767,35.48684975379389,0.2849088910843198,20.24089411405651,8.644683583488893,31.432999999960884
312787.7777,36.005273459359145,1.3385331387928967,19.151305922884095,8.590225409177478,31.433999999950174
312787.7787,35.69977995255703,2.281936817410359,17.602676610132537,8.32106156523115,31.43499999999767
312787.7797,34.62456368677191,3.0974842765924495,15.653910723027606,7.85362529228178,31.43599999998696
312787.7807,32.84041517260281,3.762974165621958,13.35956703278673,7.197969947393693,31.43699999997625
312787.7817,30.412445276724437,4.252837442378579,10.768646037829562,6.358089806259503,31.43799999996554
312787.7827,27.408991909239173,4.540290417408171,7.924852802392052,5.333503027392001,31.43899999995483
312787.7837,23.901611610887702,4.600233882534612,4.868158876416333,4.121882454225743,31.44000000000233
312787.7847,19.965919353897267,4.412595357762786,1.6373436860456776,2.7224004752233664,31.440999999991618
312787.7857,15.682932353685088,3.9657476934792406,-1.726911293523013,1.1393694996161408,31.441999999980908
312787.7867,11.140508844670675,3.2596107494179605,-5.178862418250979,-0.6142814826934708,31.442999999970198
312787.7877,6.434457087534739,2.3080570024054,-8.664971975392636,-2.5141468655348134,31.443999999959487
312787.7887,1.6689246989512072,1.1402960103179742,-12.12205264204914,-4.522498945313829,31.444999999948777
312787.7897,-3.044240167972607,-0.19899805395264664,-15.476641894108296,-6.587757924954197,31.445999999996275
312787.7907,-7.58734494682506,-1.6509354194219734,-18.645826628685498,-8.645448134436949,31.446999999985565
312787.7917,-11.839970718001238,-3.145023996071809,-21.539579802716915,-10.620660694025707,31.447999999974854
312787.7927,-15.683242447699905,-4.602999830617864,-24.064503493740073,-12.431886947854952,31.448999999964144
312787.7937,-19.004993819516976,-5.943603290432108,-26.128713571947152,-13.995941270540452,31.449999999953434
312787.7947,-21.705443675423894,-7.087928065882224,-27.64746645552728,-15.233570979639033,31.45100000000093
312787.7957,-23.70291180511718,-7.964901896747557,-28.549032093613434,-16.075267412080148,31.45199999999022
312787.7967,-24.93905877198662,-8.516430257232987,-28.78026945186578,-16.46675450866369,31.45299999997951
312787.7977,-25.38314312341467,-8.701750434097587,-28.311366608760636,-16.373643803537576,31.4539999999688
312787.7987,-25.034849977032554,-8.500602618726736,-27.13926700506157,-15.78480693359038,31.45499999995809
312787.7997,-23.925352605282786,-7.914921732638506,-25.289410994137295,-14.714123190625457,31.45599999994738
312787.8007,-22.116413455049628,-6.968879920728284,-22.81556740170022,-13.200400403044693,31.456999999994878
312787.8017,-19.697499379393584,-5.707253295096801,-19.797699337128616,-11.305429306919757,31.457999999984168
312787.8027,-16.78106155317833,-4.192234149367975,-16.33798563646148,-9.110299173703678,31.458999999973457
312787.8037,-13.496296506449978,-2.498947581190673,-12.55528691495764,-6.710259795792112,31.459999999962747
312787.8047,-9.98184463053694,-0.7100462372927722,-8.5784870206751,-4.20854691131974,31.460999999952037
312787.8057,-6.377982484670832,1.0901621410759794,-4.5392429471683675,-1.709682093203212,31.461999999999534
312787.8067,-2.8189151369317393,2.8215602118154197,-0.5647290368029866,0.6871950140817265,31.462999999988824
312787.8077,0.574230701573152,4.413551123012661,3.2290405804081868,2.8944089854254345,31.463999999978114
312787.8087,3.699172812371105,5.809435095181823,6.742783799847443,4.8407482592170465,31.464999999967404
312787.8097,6.476569707762958,6.969484511594512,9.897994684431072,6.474986757121143,31.465999999956694
312787.8107,8.852168265120579,7.872490842124555,12.639182613729787,7.767670002236057,31.466999999945983
312787.8117,10.796900076467987,8.515697682380956,14.934198800207087,8.711069065680146,31.46799999999348
312787.8127,12.305008789264752,8.913181439762731,16.772720929089484,9.317374018067886,31.46899999998277
312787.8137,13.390467073528098,9.092880861410315,18.163136568258775,9.615358399329146,31.46999999997206
312787.8147,14.082092884338378,9.092595606093989,19.12821097731538,9.64588237319022,31.47099999996135
312787.8157,14.417886088609391,8.9553614037625,19.700031038796652,9.456701866353601,31.47199999995064
312787.8167,14.439167781756863,8.724657117645613,19.91477404408553,9.097104845815524,31.472999999998137
312787.8177,14.185110034518711,8.439903159510166,19.807852584129265,8.612899156299406,31.473999999987427
312787.8187,13.68819303688027,8.132671344223064,19.40993473572699,8.042229122340233,31.474999999976717
312787.8197,12.971024678512904,7.823947693237345,18.7442373505324,7.412605387926064,31.475999999966007
312787.8207,12.044814445880235,7.522679902132324,17.825349629019126,6.7394035631378575,31.476999999955297
312787.8217,10.909622979045082,7.225711076185697,16.65967822845358,6.025934961829601,31.477999999944586
312787.8227,9.556327170796989,6.919063647438787,15.247430338484763,5.265032032344007,31.478999999992084
312787.8237,7.970065787150042,6.580405452052763,13.585884778899938,4.441937726437034,31.479999999981374
312787.8247,6.134779077929493,6.182416415866351,11.673559754964279,3.5381569545952347,31.480999999970663
312787.8257,4.0383423166056,5.696689920434705,9.514783564975383,2.535832144214129,31.481999999959953
312787.8267,1.6777286089680412,5.097755538225141,7.124121629223685,1.42215300536649,31.482999999949243
312787.8277,-0.9363730913742472,4.366803624560792,4.530115245423411,0.1933078365176459,31.48399999999674
312787.8287,-3.776012037925303,3.494727402679771,1.777844681421608,-1.1424698100130535,31.48499999998603
312787.8297,-6.793930511046193,2.484170832893115,-1.0700635689806337,-2.5631142136329097,31.48599999997532
312787.8307,-9.92330706711179,1.3503732592340991,-3.9342183620368014,-4.032428793941477,31.48699999996461
312787.8317,-13.07940583303551,0.12072424830203703,-6.721094139479966,-5.501354371324982,31.4879999999539
312787.8327,-16.16306662363743,-1.1669280079491582,-9.327387071686447,-6.910724968789505,31.489000000001397
312787.8337,-19.065792515346242,-2.4670467065885187,-11.645799960518497,-8.195280724529605,31.489999999990687
312787.8347,-21.67603513003836,-3.7299797648438684,-13.571809470691232,-9.288578409524547,31.490999999979977
312787.8357,-23.886158287082253,-4.905982324682343,-15.010859728923492,-10.128345604116674,31.491999999969266
312787.8367,-25.599489394196883,-5.949290955051458,-15.885367488971106,-10.661774105099083,31.492999999958556
312787.8377,-26.736851882327297,-6.821848579005539,-16.140922068032776,-10.850246656530084,31.493999999947846
312787.8387,-27.24201277386504,-7.496315669953759,-15.751118881835723,-10.673038896690816,31.494999999995343
312787.8397,-27.085573280634005,-7.958076010757421,-14.720573907808495,-10.129630958113237,31.495999999984633
312787.8407,-26.26696823793166,-8.20604692573707,-13.085817977814942,-9.240391545404504,31.496999999973923
312787.8417,-24.81440903689768,-8.252224159442365,-10.913950475653644,-8.045549138674913,31.497999999963213
312787.8427,-22.78278839932546,-8.120018428345354,-8.299124991423037,-6.602525523650391,31.498999999952503
312787.8437,-20.249746328104088,-7.841561412152858,-5.357126746462523,-4.981860566879625,31.5
312787.8447,-17.310257649593,-7.454261501782077,-2.218465645999253,-3.2620891306853355,31.50099999998929
312787.8457,-14.07022750780261,-6.996963726806438,0.9794656558184667,-1.5240284715054895,31.50199999997858
312787.8467,-10.639660199237547,-6.506106536989976,4.10054389775308,0.15501202985340048,31.50299999996787
312787.8477,-7.125991673077881,-6.012266684263384,7.017734330062227,1.7065825246315498,31.50399999995716
312787.8487,-3.6281449672728265,-5.537442482529739,9.619973441653737,3.075534436434408,31.50499999994645
312787.8497,-0.23178435845511455,-5.093349306625603,11.817605895739428,4.223170893855591,31.505999999993946
312787.8507,2.9938832963792392,-4.680896972897108,13.54600499629266,5.128850451133725,31.506999999983236
312787.8517,5.99756981035515,-4.290897061011763,14.767175908615696,5.789938392221392,31.507999999972526
312787.8527,8.745612735493797,-3.9059214884377162,15.469325470575303,6.220158667949173,31.508999999961816
312787.8537,11.220082944663856,-3.5031144819497166,15.664564012343009,6.446551812649228,31.509999999951106
312787.8547,13.41560008652117,-3.057660528992475,15.385065864753157,6.505375182669941,31.510999999998603
312787.8557,15.335282286263055,-2.546541036146699,14.678141036629928,6.437378839621057,31.511999999987893
312787.8567,16.98633041772782,-1.9521794346508659,13.600749352542337,6.282944027924719,31.512999999977183
312787.8577,18.375769307055652,-1.2655818543382986,12.21401336442097,6.077576423688776,31.513999999966472
312787.8587,19.50683669262161,-0.4886277156737465,10.578256150359746,5.848202897272145,31.514999999955762
312787.8597,20.376429348941116,0.3647528387094389,8.749008731368441,5.61063297202922,31.515999999945052
312787.8607,20.973893118302556,1.2686678841225205,6.774308345655465,5.3684233551076215,31.51699999999255
312787.8617,21.28129238059683,2.1866458742580686,4.693456390922897,5.113238196584911,31.51799999998184
312787.8627,21.275130209653003,3.0742075014194357,2.537239404516582,4.826643663802125,31.51899999997113
312787.8637,20.929329828152913,3.8824023024052887,0.32945507082494063,4.483128347906217,31.51999999996042
312787.8647,20.2191472690979,4.561984674753641,-1.9105555758791732,4.054015567711498,31.52099999994971
312787.8657,19.12557862388336,5.06783473136798,-4.164774574663757,3.511842247255286,31.521999999997206
312787.8667,17.639763700663043,5.363198394917125,-6.413237446751237,2.8347307645741515,31.522999999986496
312787.8677,15.766877615881263,5.423331650057653,-8.63110212189281,2.0102797596431063,31.523999999975786
312787.8687,13.529043953529674,5.238185191468325,-10.786488092155109,1.038547355577556,31.524999999965075
312787.8697,10.966893571212289,4.813853073697901,-12.83942738788612,-0.06620915423541951,31.525999999954365
312787.8707,8.139523000490922,4.172624066854098,-14.742141104410289,-1.275248391182123,31.527000000001863
312787.8717,5.122762826715315,3.3516061730869535,-16.440702996536302,-2.5465795734645464,31.527999999991152
312787.8727,2.0058339144682096,2.400030404332345,-17.877991008197437,-3.8276280659442605,31.528999999980442
312787.8737,-1.1133687899493208,1.3754662696471611,-18.997675312220213,-5.059097651961262,31.529999999969732
312787.8747,-4.133985037060313,0.3392861390867697,-19.748863485569945,-6.179672581650756,31.530999999959022
312787.8757,-6.958406453608568,-0.6482115165091243,-20.090933397757443,-7.131114515140527,31.53199999994831
312787.8767,-9.498459880361066,-1.5325762339242697,-19.998042008297954,-7.863265206979423,31.53299999999581
312787.8777,-11.681008786507286,-2.2694418901886357,-19.462808534776503,-8.338469654717553,31.5339999999851
312787.8787,-13.45247186300155,-2.8278404555494263,-18.498733058252803,-8.534986187142957,31.53499999997439
312787.8797,-14.78185368122818,-3.1922955301077303,-17.141021000073433,-8.449044597767955,31.53599999996368
312787.8807,-15.66201747954927,-3.363513631592805,-15.445629728462936,-8.095341710728334,31.536999999952968
312787.8817,-16.109091629034225,-3.3576240675473734,-13.486521807192402,-7.5059131596910555,31.538000000000466
312787.8827,-16.160073471056887,-3.204055504873161,-11.351283700754907,-6.727476049282761,31.538999999989755
312787.8837,-15.868860314557736,-2.9422657761367126,-9.135431961254168,-5.81748429620836,31.539999999979045
312787.8847,-15.301081330108072,-2.617648639165733,-6.935864813786563,-4.839262411079585,31.540999999968335
312787.8857,-14.528211956407297,-2.2770168113712335,-4.844011898084411,-3.8566721409331177,31.541999999957625
312787.8867,-13.62151385042755,-1.964097381635073,-2.939278829287697,-2.9288110510804026,31.542999999946915
312787.8877,-12.64635251716591,-1.715470180377356,-1.2833711570125008,-2.1052383812338813,31.543999999994412
312787.8887,-11.657400811824608,-1.5573324880793475,0.08398546306933985,-1.422171686298716,31.544999999983702
312787.8897,-10.69514395844454,-1.5033892535975777,1.1475298322548881,-0.9000028837450635,31.54599999997299
312787.8907,-9.783969760109418,-1.5540550382990626,1.9169126487844677,-0.5423536058110744,31.54699999996228
312787.8917,-8.931969317647813,-1.6970232577860629,2.4250471291587563,-0.3367397435368054,31.54799999995157
312787.8927,-8.132404428918406,-1.9091227445171126,2.724493229672573,-0.25675842050588366,31.54899999999907
312787.8937,-7.366634557500912,-2.159254477479748,2.882186007064736,-0.26556267492156843,31.54999999998836
312787.8947,-6.608154900268953,-2.4120949978104114,2.972971622563715,-0.3202643705309226,31.55099999997765
312787.8957,-5.827291545792182,-2.6321780177691925,3.0725255895202275,-0.37681657405164753,31.551999999966938
312787.8967,-4.996040361707515,-2.7879294610784267,3.2502862589798776,-0.3948816573845074,31.552999999956228
312787.8977,-4.092528875451831,-2.8552372941480004,3.5630363546151447,-0.3421952111562341,31.553999999945518
312787.8987,-3.104625664965283,-2.8201855159176956,4.049706293888344,-0.19798821194487032,31.554999999993015
312787.8997,-2.032315069539119,-2.6806669380178874,4.727860382593165,0.044874289864365625,31.555999999982305
312787.9007,-0.888586986518491,-2.446703578422811,5.592171216697203,0.37924976471157734,31.556999999971595
312787.9017,0.3012511250727733,-2.1394353795962626,6.615003415101994,0.7846306176802295,31.557999999960884
312787.9027,1.501766001428554,-1.7888744976275557,7.749032566561656,1.2295152900598185,31.558999999950174
312787.9037,2.670860452054125,-1.4306499984516814,8.931637536415504,1.6749924877263584,31.55999999999767
312787.9047,3.764135621304346,-1.102073639120939,10.09064188993907,2.079168591400309,31.56099999998696
312787.9057,4.7396852324457095,-0.8379307659459744,11.15085857348347,2.4019804715454454,31.56199999997625
312787.9067,5.5628024318758165,-0.6664336256998311,12.040822651005417,2.6098936058652633,31.56299999996554
312787.9077,6.21008206995201,-0.6057638755070792,12.69908627187044,2.679993077324926,31.56399999995483
312787.9087,6.672456880076995,-0.6615774197709309,13.079498916726857,2.6030322801489154,31.56500000000233
312787.9097,6.956809883258214,-0.8257528161713372,13.154999350534872,2.3851056226040424,31.565999999991618
312787.9107,7.085947388764593,-1.0765431363897207,12.919593363411977,2.0477474052373386,31.566999999980908
312787.9117,7.096883191843125,-1.380152109320409,12.388368804345037,1.6264161009930576,31.567999999970198
312787.9127,7.037558435782888,-1.6936122559135431,11.59558928052574,1.167486001758834,31.568999999959487
312787.9137,6.962285631984561,-1.968709725157255,10.59109173903332,0.7240204770382169,31.569999999948777
312787.9147,6.926342857463027,-2.1565909793957894,9.435373165643117,0.3507276824087552,31.570999999996275
312787.9157,6.980241001187654,-2.212611486314492,8.19387242328547,0.09858765619939011,31.571999999985565
312787.9167,7.164232859344911,-2.1009539774844126,6.931023298185559,0.009680264797539147,31.572999999974854
312787.9177,7.503622614203106,-1.7985573398100432,5.704667617407933,0.11273195125803716,31.573999999964144
312787.9187,8.005368045501351,-1.2979560125560938,4.561371966339615,0.41983636856126666,31.574999999953434
312787.9197,8.656351552285228,-0.6087285934412252,3.533092886928926,0.9246954739967744,31.57600000000093
312787.9207,9.423540566237449,0.24261604675847587,2.6354935121533214,1.602583800361998,31.57699999999022
312787.9217,10.256078057989273,1.2143388374179105,1.8680436488992591,2.412073229273266,31.57799999997951
312787.9227,11.08915696067525,2.252628308183183,1.2158524401614237,3.2983847037469056,31.5789999999688
312787.9237,11.84935668634774,3.295946105583446,0.6530061376573241,4.198073600193232,31.57999999995809
312787.9247,12.46097276841007,4.280173092132118,0.14703076336006635,5.044622603920216,31.58099999994738
312787.9257,12.85276665533257,5.144087714416313,-0.3360142847839824,5.774423027411803,31.581999999994878
312787.9267,12.964512344163158,5.834671177439102,-0.8263690193730051,6.332581875682443,31.582999999984168
312787.9277,12.752725278861103,6.311744703507981,-1.3458961313608688,6.678002149021976,31.583999999973457
312787.9287,12.19502647391981,6.551502039314843,-1.904408251585002,6.787247233006239,31.584999999962747
312787.9297,11.29271521614841,6.548600121868583,-2.4974098084092717,6.6568109687249555,31.585999999952037
312787.9307,10.071285893079887,6.316603111218954,-3.1055190312583294,6.303562744668467,31.586999999999534
312787.9317,8.578813375974075,5.88672739943316,-3.6956628385580514,5.763307736013032,31.587999999988824
312787.9327,6.882329198675998,5.30499332204843,-4.223953943061335,5.087580016352286,31.588999999978114
312787.9337,5.062498825495095,4.6280381719391706,-4.639983767825479,4.33895376351898,31.589999999967404
312787.9347,3.2070707288006743,3.9179706434202113,-4.892114255975502,3.5852991798434797,31.590999999956694
312787.9357,1.4036854708212754,3.2367371103765645,-4.933241518907116,2.8935115060326115,31.591999999945983
312787.9367,-0.267303826176691,2.640516588301985,-4.726445729779116,2.3232938347581507,31.59299999999348
312787.9377,-1.7393455724524705,2.1746594116303966,-4.24994093549138,1.921572222377418,31.59399999998277
312787.9387,-2.964942717816822,1.8696347050358055,-3.5007960838580097,1.7180649343685268,31.59499999997206
312787.9397,-3.919163258954861,1.7383583242870397,-2.4970093707092764,1.722421801548108,31.59599999996135
312787.9407,-4.601086373979265,1.775144881597869,-1.2776715893772177,1.9232045523413661,31.59699999995064
312787.9417,-5.033052321215902,1.9563768185719488,0.09886414768722522,2.2888083007930424,31.597999999998137
312787.9427,-5.257786966102968,2.2428244394414025,1.558696639691827,2.770244222810425,31.598999999987427
312787.9437,-5.333668256666357,2.583398337355362,3.0176808086803497,3.3055308507711656,31.599999999976717
312787.9447,-5.328573733290011,2.9199840586136303,4.387869586338809,3.8252926351287018,31.600999999966007
312787.9457,-5.312879127903424,3.192910466540084,5.584524336073537,4.259053451777689,31.601999999955297
312787.9467,-5.352256024877845,3.3465472224349164,6.533060928223482,4.541649946158735,31.602999999944586
312787.9477,-5.500934177888774,3.3345181869695955,7.175294462523237,4.61918076312501,31.603999999992084
312787.9487,-5.79604986046568,3.124056932611773,7.47440193332635,4.453953430177616,31.604999999981374
312787.9497,-6.2535998699771955,2.699113954005909,7.418133858414685,4.0279863608286135,31.605999999970663
312787.9507,-6.866371224210021,2.0619444084078715,7.019962702976257,3.344759805168804,31.606999999959953
312787.9517,-7.604033389737808,1.233048779524734,6.318043138032163,2.429073448886654,31.607999999949243
312787.9527,-8.415380384631396,0.24949294919235032,5.372059145991766,1.3250440531521102,31.60899999999674
312787.9537,-9.232513086693924,-0.838215923992089,4.2582268417565885,0.09244730950852562,31.60999999998603
312787.9547,-9.97657599887532,-1.9703897896043683,3.062891290767089,-1.1982421868587385,31.61099999997532
312787.9557,-10.564523930881004,-3.083147622890907,1.8752845642666163,-2.471644276113683,31.61199999996461
312787.9567,-10.916305264834511,-4.113661372628692,0.7800886112604589,-3.6535622561194754,31.6129999999539
312787.9577,-10.961817563649246,-5.005175074558621,-0.1495369122417289,-4.676812588697403,31.614000000001397
312787.9587,-10.647020575054684,-5.711343270413955,-0.8578464047429277,-5.486275673754509,31.614999999990687
312787.9597,-9.938677757111043,-6.19950871872063,-1.310805810038654,-6.042732191216107,31.615999999979977
312787.9607,-8.827331497520085,-6.452648430797752,-1.4984307269437727,-6.3251736752774415,31.616999999969266
312787.9617,-7.328285917142645,-6.4698503285397635,-1.4349817490890402,-6.331427725366559,31.617999999958556
312787.9627,-5.480558051880233,-6.265327061082348,-1.1570310673907462,-6.077102547020725,31.618999999947846
312787.9637,-3.343945240316617,-5.866114549829883,-0.7196088018333195,-5.593016252138395,31.619999999995343
312787.9647,-0.9945258379153965,-5.308726915803514,-0.1908106654456145,-4.921417930380289,31.620999999984633
312787.9657,1.4809540215804475,-4.635134628474994,0.3546157784669406,-4.111416349526294,31.621999999973923
312787.9667,3.991265496111917,-3.8884899993477346,0.8421033323039038,-3.2140980041776497,31.622999999963213
312787.9677,6.446876482814789,-3.1090383406570994,1.2038848844058274,-2.277833178823577,31.623999999952503
312787.9687,8.765569229643049,-2.330623336981596,1.3848013498667384,-1.3442356666183246,31.625
312787.9697,10.877014650120566,-1.578124916431165,1.3467862992119815,-0.4451626825189179,31.62599999998929
312787.9707,12.725941865836996,-0.8660646320936196,1.0716505499779383,0.3989752409508024,31.62699999997858
312787.9717,14.273694081176684,-0.19848797380308952,0.5619584001509468,1.1794668773892423,31.62799999996787
312787.9727,15.498131354036,0.42990203203942434,-0.1600273992995768,1.8981412181839923,31.62899999995716
312787.9737,16.392009955645662,1.031516417989852,-1.055170478145603,2.564971124234204,31.62999999994645
312787.9747,16.960119829644572,1.622826998027664,-2.0717285392021694,3.1947432708960357,31.630999999993946
312787.9757,17.21558109875836,2.220842865032459,-3.150606135251647,3.8031945103750044,31.631999999983236
312787.9767,17.175775964633782,2.8395189110734376,-4.231050873267416,4.403069203025364,31.632999999972526
312787.9777,16.85841658473283,3.486504489380312,-5.256222025055512,5.000559016656839,31.633999999961816
312787.9787,16.278220696120876,4.16060407876182,-6.1780878489564826,5.592545617873648,31.634999999951106
312787.9797,15.444588375031547,4.85024725221349,-6.961188526563123,6.164981867785127,31.635999999998603
312787.9807,14.36055385562504,5.533160046672047,-7.584926861307275,6.692627259053852,31.636999999987893
312787.9817,13.023138382349476,6.177304684336717,-8.044205805699134,7.140210576549971,31.637999999977183
312787.9827,11.425069072941,6.743022185077199,-8.34840447890831,7.464941605147691,31.638999999966472
312787.9837,9.557671431191967,7.186186118897448,-8.518855164448517,7.620149466833909,31.639999999955762
312787.9847,7.414605767568184,7.462068337082287,-8.585135691947098,7.559702485983381,31.640999999945052
312787.9857,4.9960146109131545,7.529539857732659,-8.58060945818082,7.2427758576890815,31.64199999999255
312787.9867,2.3125899974307473,7.355190061336169,-8.53771748279254,6.638487944642136,31.64299999998184
312787.9877,-0.610937482263058,6.916949114166303,-8.483546330514034,5.729928571062618,31.64399999997113
312787.9887,-3.7333407779684094,6.206842052856897,-8.436160814732148,4.517153252780555,31.64499999996042
312787.9897,-6.995829324974688,5.2325840366681255,-8.402104972751099,3.018811142766276,31.64599999994971
312787.9907,-10.322600497562446,4.017836956349851,-8.375347812277814,1.2722024956643592,31.646999999997206
312787.9917,-13.623079385839343,2.6010769657298027,-8.337794895119458,-0.6682888541693688,31.647999999986496
312787.9927,-16.795748787578102,1.0331577747096765,-8.261318921211075,-2.7342858612661183,31.648999999975786
312787.9937,-19.73331009587571,-0.6262177063393776,-8.11109931015798,-4.847781196592908,31.649999999965075
312787.9947,-22.328777460043316,-2.3127972548077755,-7.84991905133955,-6.9263974585963535,31.650999999954365
312787.9957,-24.482006181084376,-3.962454072076364,-7.44296132696048,-8.88907998612827,31.652000000001863
312787.9967,-26.10610214079518,-5.515801766661695,-6.862589487350768,-10.661712717348083,31.652999999991152
312787.9977,-27.13315786762899,-6.92231961126341,-6.092588034054975,-12.182151787341619,31.653999999980442
312787.9987,-27.51881309347481,-8.14360497254453,-5.13139017163387,-13.404224702407014,31.654999999969732
312787.9997,-27.24523854213855,-9.155454456827766,-3.9939146421236815,-14.300339942753414,31.655999999959022
312788.0007,-26.322281575162965,-9.948589522869943,-2.7117714246175706,-14.862483385713867,31.65699999994831
312788.0017,-24.78667768510413,-10.527974938431276,-1.3317589299802055,-15.1015312632011,31.65799999999581
312788.0027,-22.699406602079602,-10.91081650665206,0.087251654661044,-15.044969565830892,31.6589999999851
312788.0037,-20.141438934622677,-11.123454391565451,1.4787834832463713,-14.733261275022219,31.65999999997439
312788.0047,-17.208262490961676,-11.19747731424179,2.7741694286763323,-14.215230760085102,31.66099999996368
312788.0057,-14.003682751581618,-11.165460070745858,3.908408977305229,-13.54292660750289,31.661999999952968
312788.0067,-10.63344914650582,-11.056764517876825,4.825905270031057,-12.766471040769561,31.663000000000466
312788.0077,-7.199262339735773,-10.893838505362496,5.485521092089504,-11.929401314308958,31.663999999989755
312788.0087,-3.793667450245162,-10.689398563665781,5.864448102314195,-11.064956244322017,31.664999999979045
312788.0097,-0.4962391854946587,-10.444795059855041,5.960489478900264,-10.193664427459014,31.665999999968335
312788.0107,2.6286728005846136,-10.149741365863315,5.792502544803979,-9.322459098632915,31.666999999957625
312788.0117,5.532532572145488,-9.783452675181923,5.398920892956837,-8.445390833392127,31.667999999946915
312788.0127,8.181606004045118,-9.317098664185226,4.834458445448629,-7.54584843815221,31.668999999994412
312788.0137,10.55457630658954,-8.717341024236013,4.165273066142059,-6.6000461472529794,31.669999999983702
312788.0147,12.639152706800425,-7.950615038718769,3.46301776971253,-5.581406599117676,31.67099999997299
312788.0157,14.42813700266374,-6.987734864452712,2.7983185170807743,-4.4653766594485385,31.67199999996228
312788.0167,15.915462974692403,-5.808362909367291,2.234278104870377,-3.234166146176069,31.67299999995157
312788.0177,17.0927200475044,-4.404888700158197,1.8206096328084607,-1.8809026232539037,31.67399999999907
312788.0187,17.9466153931826,-2.78531164162435,1.5889498027515052,-0.412748521434168,31.67499999998836
312788.0197,18.457723483096167,-0.9748105570315128,1.5497967212091306,1.1473751036860755,31.67599999997765
312788.0207,18.600729379688712,0.9841974829026207,1.6913688515759073,2.7606802532845554,31.676999999966938
312788.0217,18.346206070185133,3.0335671428742286,1.9805052921162396,4.374084877442688,31.677999999956228
312788.0227,17.663793532097028,5.102415810615541,2.3655393729836622,5.923368829860713,31.678999999945518
312788.0237,16.526485390872136,7.111369230433873,2.780895512595284,7.337659033422826,31.679999999993015
312788.0247,14.915594424595772,8.977717372188469,3.1530005784410378,8.544857555937167,31.680999999982305
312788.0257,12.825874646570792,10.621049729131121,3.406980614239981,9.477529900661953,31.681999999971595
312788.0267,10.270235160300908,11.968892603297352,3.473542972771758,10.07871980398708,31.682999999960884
312788.0277,7.283494407861677,12.961868360389834,3.2954291063592915,10.30715616916819,31.683999999950174
312788.0287,3.9246923634595863,13.557938216095875,2.832865613180829,10.14136758687235,31.68499999999767
312788.0297,0.277596789940419,13.73537176860786,2.0675362584335253,9.582315504790861,31.68599999998696
312788.0307,-3.5508028600574026,13.494200364857239,1.0047362152338268,8.654289442321774,31.68699999997625
312788.0317,-7.433838549685228,12.856046628216903,-0.3264617500446565,7.403964141315289,31.68799999996554
312788.0327,-11.230579423179112,11.862366281306743,-1.8750172012497128,5.897684356401962,31.68899999995483
312788.0337,-14.79277757991279,10.57127724756041,-3.571517543233475,4.217202420043929,31.69000000000233
312788.0347,-17.972850667203318,9.05327196073327,-5.333210548745648,2.454231723401541,31.690999999991618
312788.0357,-20.632299906471754,7.386200708904411,-7.070002541883186,0.7042828873038314,31.691999999980908
312788.0367,-22.649906996671998,5.649968404376012,-8.690874536199424,-0.939690951345736,31.692999999970198
312788.0377,-23.929056935747642,3.921399753529747,-10.110145310068281,-2.393302999764028,31.693999999959487
312788.0387,-24.403596396920573,2.2696978083319768,-11.253041496603965,-3.585898705571909,31.694999999948777
312788.0397,-24.04175356454201,0.7528518064025149,-12.06011637584824,-4.464466954769464,31.695999999996275
312788.0407,-22.84780487220052,-0.5847507392367145,-12.490182446056707,-4.996007404824814,31.696999999985565
312788.0417,-20.861362389395527,-1.713375351163378,-12.521575342145782,-5.168212473923258,31.697999999974854
312788.0427,-18.15435543257546,-2.6176550388542266,-12.151732923451098,-4.98848091680978,31.698999999964144
312788.0437,-14.82597298780788,-3.295096222755609,-11.3952368905105,-4.481433733849762,31.699999999953434
312788.0447,-10.996002016361576,-3.7536170673691243,-10.280609109904109,-3.6852376420487647,31.70100000000093
312788.0457,-6.797125274906269,-4.008444974398351,-8.846266958911537,-2.647143745112635,31.70199999999022
312788.0467,-2.366819293951624,-4.0787509475440835,-7.1361108570201495,-1.4187098606063218,31.70299999997951
312788.0477,2.160488135026288,-3.9844100867074723,-5.19523652061184,-0.05118881344763902,31.7039999999688
312788.0487,6.660382468771574,-3.743248972818731,-3.066233105634165,1.4084688659229356,31.70499999995809
312788.0497,11.024026494099267,-3.369075510816771,-0.7864500751824296,2.9206270691213243,31.70599999994738
312788.0507,15.161943329140191,-2.8706918809559947,1.6135012373213087,4.454733568866925,31.706999999994878
312788.0517,19.005811401510517,-2.2519765084625685,4.109888607340191,5.9897265625204295,31.707999999984168
312788.0527,22.508253446443923,-1.5129982395706731,6.684674476866642,7.513105352181436,31.708999999973457
312788.0537,25.64078786596148,-0.6520078115150681,9.323188670050751,9.018834735490666,31.709999999962747
312788.0547,28.39027687151732,0.3319496618150632,12.010971768885101,10.504376151357274,31.710999999952037
312788.0557,30.75433628019179,1.4361316798140102,14.730200580840567,11.96723072525256,31.711999999999534
312788.0567,32.73625480856638,2.65127468537397,17.456162008677023,13.401430937099672,31.712999999988824
312788.0577,34.339999055103696,3.9592199460855615,20.15424770434352,14.79442359834103,31.713999999978114
312788.0587,35.565852259865146,5.331320247833814,22.777898269769,16.12474663425068,31.714999999967404
312788.0597,36.40715401518594,6.727884103631317,25.26783653381391,17.36081988379738,31.715999999956694
312788.0607,36.84848305869032,8.098811296313432,27.552803227576923,18.46105400866657,31.716999999945983
312788.0617,36.865468955021186,9.385452533145074,29.551857562057293,19.375343281725414,31.71799999999348
312788.0627,36.42624657820962,10.523598850409385,31.178144658384706,20.04786137267719,31.71899999998277
312788.0637,35.49439686777807,11.447385924086884,32.343877422334444,20.42093900040811,31.71999999997206
312788.0647,34.03306501250174,12.09379681561888,32.966147711550185,20.439682624699383,31.72099999996135
312788.0657,32.009827694686926,12.407374333766954,32.97308390196667,20.05690636295155,31.72199999995064
312788.0667,29.40180557973179,12.344718732654226,32.309819242105185,19.237904001081798,31.722999999998137
312788.0677,26.200492658733438,11.878351911670498,30.94373334500964,17.964589186921632,31.723999999987427
312788.0687,22.41580204318451,10.999575643528955,28.868478516430557,16.238579921701096,31.724999999976717
312788.0697,18.07890485122044,9.720034601003901,26.106399025709884,14.08289393522197,31.725999999966007
312788.0707,13.243556581592134,8.071807379842078,22.709085933195325,11.542045853550176,31.726999999955297
312788.0717,7.985751576300489,6.1059796901964685,18.755969972305994,8.680483264272684,31.727999999944586
312788.0727,2.4017058862632195,3.889790873598885,14.351025004214153,5.579452655653795,31.728999999992084
312788.0737,-3.395674011814111,1.5025746813156224,9.617818457398737,2.3325327346069993,31.729999999981374
312788.0747,-9.281540255667167,-0.9691747696763877,4.693287257543298,-0.9598025383242623,31.730999999970663
312788.0757,-15.124666815579156,-3.4372014874066723,-0.2792754927949945,-4.196137983050088,31.731999999959953
312788.0767,-20.793358050033675,-5.816899011510685,-5.157476468877553,-7.280087119783561,31.732999999949243
312788.0777,-26.161216201297577,-8.032284415233063,-9.806763718681255,-10.125776465985018,31.73399999999674
312788.0787,-31.112312419410152,-10.020128080359717,-14.106538056193386,-12.662390066064463,31.73499999998603
312788.0797,-35.545381296705386,-11.73291398591265,-17.955006572963807,-14.83741050418362,31.73599999997532
312788.0807,-39.37677005733772,-13.140416921852221,-21.27247662947715,-16.61831716922506,31.73699999996461
312788.0817,-42.542008267555964,-14.229813906739533,-24.0029398037041,-17.9926489156166,31.7379999999539
312788.0827,-44.996007726086795,-15.004384373755483,-26.113956283498393,-18.966492087776533,31.739000000001397
312788.0837,-46.71203981695244,-15.480984013683944,-27.595005076267032,-19.56160104316055,31.739999999990687
312788.0847,-47.67975464795488,-15.686587878012107,-28.454598940043336,-19.811482520323672,31.740999999979977
312788.0857,-47.902590667918986,-15.65427878687223,-28.716562194842435,-19.756865385927338,31.741999999969266
312788.0867,-47.394966628507014,-15.419099629525363,-28.415925234171407,-19.441024816906932,31.742999999958556
312788.0877,-46.17964563343116,-15.014188946921282,-27.594896824602188,-18.90543046591629,31.743999999947846
312788.0887,-44.285614331493484,-14.467578552206948,-26.299334330172517,-18.186141950057824,31.744999999995343
312788.0897,-41.746734527881436,-13.799954280594726,-24.576047924436114,-17.311287070728515,31.745999999984633
312788.0907,-38.60130923324224,-13.023574312901323,-22.471157128445462,-16.29983762617142,31.746999999973923
312788.0917,-34.89257321582081,-12.142414765057378,-20.029579500359265,-15.16175684248827,31.747999999963213
312788.0927,-30.669984068767334,-11.153481996960835,-17.295586930973002,-13.899445627673735,31.748999999952503
312788.0937,-25.991068569862964,-10.049108470655224,-14.314230236807028,-12.510276903899715,31.75
312788.0947,-20.923484384159547,-8.819946268447364,-11.133322013977837,-10.989892127928105,31.75099999998929
312788.0957,-15.546899979190568,-7.458299826647271,-7.805592931165878,-9.33585339069353,31.75199999997858
312788.0967,-9.954283210875424,-5.96140427054973,-4.390605970901087,-7.55120635224034,31.75299999996787
312788.0977,-4.252224021292199,-4.334261419980907,-0.9560301665358133,-5.647517596450424,31.75399999995716
312788.0987,1.4400032306528443,-2.591691447613045,2.422061243092362,-3.6470039913575896,31.75499999994645
312788.0997,6.992814159767695,-0.7593396578139752,5.660099819703791,-1.583465927438,31.755999999993946
312788.1007,12.270156806512995,1.12651331609016,8.66923648520824,0.4981385797116687,31.756999999983236
312788.1017,17.134695778261868,3.0203644082565595,11.358810779307296,2.5434985880270733,31.757999999972526
312788.1027,21.45405713760419,4.870021723036583,13.640874086506539,4.4920062931913165,31.758999999961816
312788.1037,25.107717592847504,6.620036904235049,15.435431307170974,6.2808010937801235,31.759999999951106
312788.1047,27.99401953303678,8.215716286928886,16.67596010791835,7.849427419988099,31.760999999998603
312788.1057,30.036736390525245,9.607324360543872,17.314702616723086,9.144657724684038,31.761999999987893
312788.1067,31.190608037269588,10.754065071402755,17.327208894612404,10.125002053284572,31.762999999977183
312788.1077,31.445315838490078,11.627440091929106,16.715647653339538,10.764443505644852,31.763999999966472
312788.1087,30.827468783240004,12.21363735765021,15.510485372735404,11.05500343658206,31.764999999955762
312788.1097,29.400317933105843,12.514692850069371,13.770263181930993,11.007845532429059,31.765999999945052
312788.1107,27.261094063269045,12.548285153104297,11.579360320088417,10.652763990750456,31.76699999999255
312788.1117,24.53605733386074,12.346154384839206,9.043809174727514,10.036054839867695,31.76799999998184
312788.1127,21.373540790944013,11.951271747070784,6.285403424974948,9.216926029427267,31.76899999997113
312788.1137,17.93544387104007,11.414009843986838,3.4345009716609782,8.262745962597778,31.76999999996042
312788.1147,14.387771674267505,10.787664764449511,0.6220516406880129,7.243547373803395,31.77099999994971
312788.1157,10.890907296219874,10.123748546253509,-2.028536645054028,6.22628211835009,31.771999999997206
312788.1167,7.590338869144402,9.467498079704134,-4.4090491862056975,5.269354415794915,31.772999999986496
312788.1177,4.608536138839177,8.854030684712297,-6.433016206634736,4.4179417259437335,31.773999999975786
312788.1187,2.038584885575542,8.305518646041769,-8.040630611089599,3.700544935947872,31.774999999965075
312788.1197,-0.05995178879821602,7.829660178747916,-9.201629480233516,3.127098872366219,31.775999999954365
312788.1207,-1.6626565593742058,7.419601522617364,-9.915906832343595,2.6888305249869195,31.777000000001863
312788.1217,-2.779282279348551,7.055325825465344,-10.21181782682894,2.359889252202999,31.777999999991152
312788.1227,-3.4503076472349212,6.706382534323477,-10.142332653704843,2.100606093048688,31.778999999980442
312788.1237,-3.7413557469989374,6.335699911440878,-9.779383766536416,1.862084108550065,31.779999999969732
312788.1247,-3.7359794749478286,5.904115810731054,-9.206905790970232,1.591693352609969,31.780999999959022
312788.1257,-3.527445801773233,5.3751885657770995,-8.513178914644774,1.2389550879395774,31.78199999994831
312788.1267,-3.210223055682356,4.719818084916727,-7.783143386833999,0.7612589786405535,31.78299999999581
312788.1277,-2.87188578419613,3.9202203851455453,-7.091349508460738,0.12886841441027477,31.7839999999851
312788.1287,-2.586099719402172,2.9728558763001827,-6.496144331767309,-0.6712679225603815,31.78499999997439
312788.1297,-2.4072400745784432,1.8900075460876697,-6.035578960798998,-1.6332713483812333,31.78599999996368
312788.1307,-2.367040175219135,0.699830860489211,-5.725359665598875,-2.7318839009258626,31.786999999952968
312788.1317,-2.4734788365651466,-0.5551591535474932,-5.558976874060366,-3.923876344753518,31.788000000000466
312788.1327,-2.7119113656895064,-1.8210501440617461,-5.509946030052975,-5.151202068408055,31.788999999989755
312788.1337,-3.048249241931931,-3.036692156384184,-5.5359018591375015,-6.345622081123845,31.789999999979045
312788.1347,-3.433815555404263,-4.138687574225062,-5.5841205756436,-7.434388186697505,31.790999999968335
312788.1357,-3.811363098261346,-5.066762526429915,-5.59791838366592,-8.346471616536336,31.791999999957625
312788.1367,-4.121651869361946,-5.769031311211543,-5.523300780247614,-9.018772369087062,31.792999999946915
312788.1377,-4.309950132617981,-6.2066713574668,-5.315222215884809,-9.401745122407554,31.793999999994412
312788.1387,-4.331850063424386,-6.35757739998311,-4.942860596229484,-9.463930751832036,31.794999999983702
312788.1397,-4.15787182292057,-6.218655112093744,-4.393411270159648,-9.194983096203462,31.79599999997299
312788.1407,-3.776459801234179,-5.806537783299997,-3.674050714162084,-8.606919074972694,31.79699999996228
312788.1417,-3.195138627392941,-5.156653091286338,-2.8118970346458103,-7.733483389205128,31.79799999995157
312788.1427,-2.439778183300789,-4.320717030219432,-1.8519857364985748,-6.627691358015682,31.79899999999907
312788.1437,-1.5520986561786587,-3.362874449279005,-0.8534667632349114,-5.357778645096756,31.79999999998836
312788.1447,-0.58571124491393,-2.3548270168472154,0.11560509862245542,-4.0019291642394705,31.80099999997765
312788.1457,0.398877949467016,-1.3703783988870357,0.9843852700895273,-2.6422590089260316,31.801999999966938
312788.1467,1.3397861258370445,-0.47987481186281855,1.685678500380918,-1.3585950403992628,31.802999999956228
312788.1477,2.179244411801296,0.25497740090713533,2.1620964744666824,-0.22259645494189986,31.803999999945518
312788.1487,2.868530883655214,0.7854768646265405,2.371361831291408,0.7072741518976333,31.804999999993015
312788.1497,3.3718870911612737,1.079116450822226,2.2902738747220157,1.3895124219692132,31.805999999982305
312788.1507,3.6690738028459347,1.1213523079822176,1.9169834672594683,1.8017753301407724,31.806999999971595
312788.1517,3.756367512914104,0.9158432476171458,1.2713884105166076,1.9413862528448105,31.807999999960884
312788.1527,3.645961162337071,0.48319389422011194,0.39363986707841564,1.824164502923916,31.808999999950174
312788.1537,3.3638940108309234,-0.1416282369760528,-0.6590724319205411,1.481758212217638,31.80999999999767
312788.1547,2.9467804204381833,-0.9129139588590418,-1.8171304255479839,0.9577951387253465,31.81099999998696
312788.1557,2.4377211390363827,-1.7784967700092578,-3.0040438227267807,0.3032680674516902,31.81199999997625
312788.1567,1.8818524791999014,-2.684276046656507,-4.142424381685896,-0.4283695034952017,31.81299999996554
312788.1577,1.3220119373030417,-3.578548019935608,-5.159825203802672,-1.1859108647651484,31.81399999995483
312788.1587,0.794971668331632,-4.415749092492036,-5.993920630156069,-1.9244579084249707,31.81500000000233
312788.1597,0.32861734050711244,-5.159289765298184,-6.596581572856576,-2.6084699947419057,31.815999999991618
312788.1607,-0.05966249856066111,-5.783261312060012,-6.936522145185213,-3.213549365807535,31.816999999980908
312788.1617,-0.3632501699970328,-6.272920477096673,-7.000343527596422,-3.726852215822239,31.817999999970198
312788.1627,-0.5852597184784094,-6.623987191026203,-6.7919646314414255,-4.146162574634409,31.818999999959487
312788.1637,-0.7363549789600242,-6.840913364366162,-6.330589634700134,-4.477807474795968,31.819999999948777
312788.1647,-0.831721468730996,-6.934384781025706,-5.64750370015404,-4.733712083305749,31.820999999996275
312788.1657,-0.8875823447726522,-6.918392541467985,-4.782096099308858,-4.927980444302839,31.821999999985565
312788.1667,-0.9176995559343213,-6.807248025131095,-3.7775740228669332,-5.073432489301552,31.822999999974854
312788.1677,-0.9303040377945493,-6.612912364529883,-2.67684458374691,-5.1785266149082725,31.823999999964144
312788.1687,-0.9258528845831037,-6.342968496052082,-1.5190060691921432,-5.2450497217611245,31.824999999953434
312788.1697,-0.89592145108183,-5.999485595967504,-0.336806727495283,-5.266868160896464,31.82600000000093
312788.1707,-0.8234134224541555,-5.578920353360496,0.8446906320522131,-5.229912737709491,31.82699999999022
312788.1717,-0.6841248338129453,-5.073078085020403,2.0081443112383264,-5.11343123378169,31.82799999997951
312788.1727,-0.4495439941936987,-4.471031849368826,3.1427291209197765,-4.892397291552306,31.8289999999688
312788.1737,-0.09062429906946715,-3.7617825614900546,4.241897073989942,-4.540829998547161,31.82999999995809
312788.1747,0.4178537239121313,-2.9373498328214587,5.30043229581318,-4.035668194396642,31.83099999994738
312788.1757,1.092798120589829,-1.9959218994650867,6.311216485956347,-3.3607691296119206,31.831999999994878
312788.1767,1.9387026094607065,-0.9446704405586593,7.262163224340603,-2.5105708027547515,31.832999999984168
312788.1777,2.9444139292405485,0.1981446774268742,8.13377105567482,-1.4929748729401935,31.833999999973457
312788.1787,4.081192397191264,1.4020958746617556,8.897686893201488,-0.3310714682229783,31.834999999962747
312788.1797,5.302377116759861,2.624753628822338,9.516568286329376,0.9365672658253,31.835999999952037
312788.1807,6.544820241145544,3.813196285184864,9.945395551709808,2.2571613600367235,31.836999999999534
312788.1817,7.7320859832242155,4.906826793453939,10.13422637211848,3.566546811698234,31.837999999988824
312788.1827,8.77923586327367,5.841322274446505,10.032222216322989,4.793373392127796,31.838999999978114
312788.1837,9.59885901307127,6.553417919543656,9.592624534707271,5.864356285512996,31.839999999967404
312788.1847,10.107871360034553,6.98612759304872,8.778234903240403,6.710144151272825,31.840999999956694
312788.1857,10.234513897973578,7.093940030802207,7.5668703652464515,7.271288417279378,31.841999999945983
312788.1867,9.924937892605412,6.847508754075843,5.956232543055129,7.503768596422276,31.84299999999348
312788.1877,9.148778830197651,6.237378724670644,3.9676512267375625,7.383549944677282,31.84399999998277
312788.1887,7.903190899576195,5.276361935538744,1.6482393447086068,6.909721650050537,31.84499999997206
312788.1897,6.214934131989839,4.000281840687649,-0.9288795663297224,6.105879879665593,31.84599999996135
312788.1907,4.140266476476408,2.466943275085627,-3.6664488567611215,5.019570012083628,31.84699999995064
312788.1917,1.7625786449186769,0.7533379004650489,-6.447054640205871,3.719772492734741,31.847999999998137
312788.1927,-0.8120964159582025,-1.0487488879762954,-9.139003756049926,2.2925911809406245,31.848999999987427
312788.1937,-3.461382930251148,-2.8384197542100154,-11.603729915857741,0.8354654818448058,31.849999999976717
312788.1947,-6.054195896038993,-4.512207673197955,-13.704205488668169,-0.5496373239858364,31.850999999966007
312788.1957,-8.459117135046968,-5.970968726627055,-15.313731053230569,-1.763498134723167,31.851999999955297
312788.1967,-10.552856937211526,-7.126578432772972,-16.324423283523632,-2.716793241080505,31.852999999944586
312788.1977,-12.22813733585704,-7.90789581769936,-16.654729461866758,-3.336523357751713,31.853999999992084
312788.1987,-13.40038453061242,-8.265518201438109,-16.255363967299896,-3.5711961482642005,31.854999999981374
312788.1997,-14.012723188658802,-8.174950791726936,-15.113182967835876,-3.3943425211971627,31.855999999970663
312788.2007,-14.03891443553064,-7.637949497815852,-13.252677705106302,-2.8060931301549066,31.856999999959953
312788.2017,-13.484058369966096,-6.681950649775021,-10.734959568608694,-1.8327116521981133,31.857999999949243
312788.2027,-12.383074249693053,-5.357663344602911,-7.654314268779022,-0.5241597420402264,31.85899999999674
312788.2037,-10.797159304335763,-3.7350541480643438,-4.132599407502478,1.0500614822485086,31.85999999998603
312788.2047,-8.808593203804854,-1.8980858668538587,-0.31193185058936584,2.806402674905093,31.86099999997532
312788.2057,-6.514384509368615,0.06132980535085625,3.6537568802060734,4.653591011714132,31.86199999996461
312788.2067,-4.019336545462282,2.0496504110078595,7.607639054441611,6.499227968369896,31.8629999999539
312788.2077,-1.4291363301103241,3.977767845143524,11.398703535511872,8.256090772990737,31.864000000001397
312788.2087,1.1559599283361264,5.766335549368125,14.88962186203269,9.847611923575233,31.864999999990687
312788.2097,3.6463537393024326,7.349954712149799,17.96322025658459,11.212102726543883,31.865999999979977
312788.2107,5.9668784886723225,8.679932939553217,20.527149677119237,12.305416883548046,31.866999999969266
312788.2117,8.058911949626198,9.725468618167348,22.51651747198913,13.101905823911716,31.867999999958556
312788.2127,9.880789109528989,10.47326364840368,23.894431027000863,13.593683518111215,31.868999999947846
312788.2137,11.406645773831306,10.925712116041057,24.65058818990979,13.788378843707479,31.869999999995343
312788.2147,12.62397304223452,11.097939156737306,24.798213922576963,13.70569285939154,31.870999999984633
312788.2157,13.530279114715317,11.01406104589207,24.369772436310818,13.37318342505926,31.871999999973923
312788.2167,14.129327053367804,10.703095741189962,23.411967500217706,12.821760792010773,31.872999999963213
312788.2177,14.42743871203328,10.194967877774515,21.98057385939629,12.081389752752724,31.873999999952503
312788.2187,14.430324787592511,9.517022985292312,20.13561825260724,11.177456212468895,31.875
312788.2197,14.14082279249372,8.691396150114402,17.937353271190865,10.12817301409623,31.87599999998929
312788.2207,13.557807422523952,7.733478040939829,15.443350108006763,8.943280305623556,31.87699999997858
312788.2217,12.676393895751803,6.6515968045880225,12.706890001471633,7.624151983574689,31.87799999996787
312788.2227,11.48939955786564,5.447900506505368,9.776674503580349,6.16526637126524,31.87899999995716
312788.2237,9.989878632870354,4.120295002132503,6.697718357261097,4.556851733581949,31.87999999994645
312788.2247,8.174415117632131,2.6651793047676895,3.513151986891822,2.78839026306299,31.880999999993946
312788.2257,6.046762999389589,1.0806357866712206,0.2665574570061121,0.8525704524654945,31.881999999983236
312788.2267,3.6213712435100454,-0.6303158405402532,-2.995597252962495,-1.2507733949604423,31.882999999972526
312788.2277,0.9263288797363258,-2.456799294031456,-6.221869773767273,-3.5111993211663224,31.883999999961816
312788.2287,-1.99468652004655,-4.377861839179084,-9.35450299652366,-5.90509397387269,31.884999999951106
312788.2297,-5.081780263566841,-6.361246679032002,-12.329147172614782,-8.394339581905713,31.885999999998603
312788.2307,-8.259725560370164,-8.363348472468893,-15.075833914037474,-10.926421739148795,31.886999999987893
312788.2317,-11.440403079095141,-10.330420783573034,-17.52124298163352,-13.436043118053643,31.887999999977183
312788.2327,-14.526675454878555,-12.200974550836643,-19.592146193151724,-15.848155278355359,31.888999999966472
312788.2337,-17.417425196244768,-13.909182361250325,-21.21976485490861,-18.082175087227373,31.889999999955762
312788.2347,-20.013356587888108,-15.388996922225807,-22.344653673812708,-20.057028514123548,31.890999999945052
312788.2357,-22.223071694430082,-16.578614340825705,-22.92163861255893,-21.69657515582344,31.89199999999255
312788.2367,-23.968887043555828,-17.424871482880366,-22.924298317787233,-22.934920857888933,31.89299999998184
312788.2377,-25.191865985180716,-17.88716600237779,-22.348493514115347,-23.721128022869117,31.89399999997113
312788.2387,-25.855601923133733,-17.94052777104074,-21.214515744579018,-24.02288366788752,31.89499999996042
312788.2397,-25.948394277681917,-17.577547512397313,-19.56754036635205,-23.828779275066466,31.89599999994971
312788.2407,-25.483602183049477,-16.808974899248124,-17.476218308719876,-23.148984909599413,31.896999999997206
312788.2417,-24.498126878187637,-15.66292373261552,-15.029412514940487,-22.0142504684535,31.897999999986496
312788.2427,-23.049146468774705,-14.182753722161516,-12.331261572684317,-20.47332456224603,31.898999999975786
312788.2437,-21.20938938577107,-12.423823806267984,-9.49491738063215,-18.589030953193816,31.899999999965075
312788.2447,-19.06136946634454,-10.449418482714025,-6.635439354441844,-16.43336896487638,31.900999999954365
312788.2457,-16.69110260863031,-8.326225720914483,-3.8624207977945444,-14.082095356518632,31.902000000001863
312788.2467,-14.181872671109536,-6.1197850500416004,-1.2729638036192552,-11.609291789903015,31.902999999991152
312788.2477,-11.608607747095025,-3.8903233863001137,1.0543974378053351,-9.082419550842918,31.903999999980442
312788.2487,-9.033367483389707,-1.6893541658069875,3.064298081987056,-6.558311796599085,31.904999999969732
312788.2497,-6.502333351668127,0.4426634617047479,4.727265379826609,-4.080458291624081,31.905999999959022
312788.2507,-4.044547095645524,2.4774164428241936,6.040321929710873,-1.6778077123250597,31.90699999994831
312788.2517,-1.6724720896801917,4.39851783839885,7.025415517851238,0.6348390881100219,31.90799999999581
312788.2527,0.6157254484308653,6.200044202740421,7.725815344219713,2.8549300381027325,31.9089999999851
312788.2537,2.8324462869570994,7.884024141472416,8.20079678997065,4.988992063440957,31.90999999997439
312788.2547,4.995891498347136,9.457176865243476,8.519090722216479,7.048551968354891,31.91099999996368
312788.2557,7.124773154437273,10.927274451748072,8.751684152961964,9.045599839486528,31.911999999952968
312788.2567,9.23306766775896,12.299538848816967,8.964616427093349,10.988092436457634,31.913000000000466
312788.2577,11.325373245403346,13.573480633123859,9.212413616184035,12.875990275367295,31.913999999989755
312788.2587,13.393374146061731,14.740541496108797,9.532743600158666,14.698269308014874,31.914999999979045
312788.2597,15.41380620574087,15.782820722722631,9.942761107585309,16.43125136879423,31.915999999968335
312788.2607,17.348170733533514,16.67305554360139,10.437456398130973,18.03846631948562,31.916999999957625
312788.2617,19.144271485945694,17.37589700493972,10.99013787994021,19.472105862637836,31.917999999946915
312788.2627,20.73946856750332,17.850389528204648,11.554984869082471,20.675969239143697,31.918999999994412
312788.2637,22.065371204337712,18.053436797208583,12.071419935829441,21.589650074061275,31.919999999983702
312788.2647,23.053545022121867,17.943931458155646,12.469888068163648,22.153586245892512,31.92099999997299
312788.2657,23.641702958638486,17.487151848683403,12.678507030797059,22.314503312922,31.92199999996228
312788.2667,23.779792713788442,16.658993106840494,12.629980831312553,22.03073573141552,31.92299999995157
312788.2677,23.43539335932608,15.449606349160785,12.268152340899245,21.2769134745777,31.92399999999907
312788.2687,22.597889720923796,13.866067836795494,11.553612710276553,20.047554519101563,31.92499999998836
312788.2697,21.281000327540728,11.933785758779303,10.467879717794498,18.359201013406132,31.92599999997765
312788.2707,19.523383081669838,9.696467351321637,9.01579509015332,16.250869459022347,31.926999999966938
312788.2717,17.3872183295192,7.214602523631419,7.225958642849811,13.782740182084112,31.927999999956228
312788.2727,14.95485503373866,4.562559100206608,5.14919859924679,11.03317381728462,31.928999999945518
312788.2737,12.32378454319521,1.824515735577283,2.855255338631569,8.094296808895134,31.929999999993015
312788.2747,9.600360933914663,-0.9104312619979533,0.4280133122112001,5.066529180135026,31.930999999982305
312788.2757,6.892802287274893,-3.553572354272912,-2.040261675119565,2.0525234028970796,31.931999999971595
312788.2767,4.3040725459390865,-6.021846339249946,-4.455146261851004,-0.848966038669154,31.932999999960884
312788.2777,1.9252525420119393,-8.24260899596434,-6.726187061208984,-3.548761633117493,31.933999999950174
312788.2787,-0.17003933617882366,-10.157505817703191,-8.772404627672229,-5.972017982778758,31.93499999999767
312788.2797,-1.9297168201469685,-11.725131458449878,-10.52672642165805,-8.061673691968638,31.93599999998696
312788.2807,-3.3254687032039816,-12.922274380477903,-11.939022150317372,-9.780348921483881,31.93699999997625
312788.2817,-4.35302947712646,-13.743680009052246,-12.977563837547224,-11.110588477097014,31.93799999996554
312788.2827,-5.0305154968076495,-14.200406282807517,-13.628894694790835,-12.05350894926672,31.93899999995483
312788.2837,-5.395042047138862,-14.316978046698933,-13.89624884545856,-12.626059132711996,31.94000000000233
312788.2847,-5.497991253189539,-14.127658245732178,-13.79680231562035,-12.857230918834176,31.940999999991618
312788.2857,-5.399417590352308,-13.67223337962205,-13.358140745320693,-12.783650561028503,31.941999999980908
312788.2867,-5.16214581980228,-12.991750362617813,-12.614390851872669,-12.445028692307847,31.942999999970198
312788.2877,-4.846129351196493,-12.124637926502158,-11.602475189474196,-11.879947184358857,31.943999999959487
312788.2887,-4.503594609047839,-11.103598463453057,-10.358912679457273,-11.122412210849323,31.944999999948777
312788.2897,-4.175403720795393,-9.953570473444747,-8.917505311745638,-10.199510886441248,31.945999999996275
312788.2907,-3.888933502603872,-8.690946126681599,-7.30813352267145,-9.130383084965793,31.946999999985565
312788.2917,-3.6576070334525035,-7.324094422897896,-5.5567418658107135,-7.926573352953173,31.947999999974854
312788.2927,-3.482041430660471,-5.855101412593338,-3.6864478682373507,-6.593675172192147,31.948999999964144
312788.2937,-3.3526091031053085,-4.282508843078969,-1.7195663442389553,-5.134036729628689,31.949999999953434
312788.2947,-3.2530663561147115,-2.6047244505057394,0.3197759759660448,-3.550178419014437,31.95100000000093
312788.2957,-3.1647969720980083,-0.8237018390476051,2.402842122978806,-1.8484897206219757,31.95199999999022
312788.2967,-3.071159739075841,1.0515468495633242,4.493745969440592,-0.042735463178768196,31.95299999997951
312788.2977,-2.9614235014340737,3.0020327685465777,6.547602830394619,1.843087125544088,31.9539999999688
312788.2987,-2.833821488895469,4.9968408941912,8.509737862029345,3.772939506023694,31.95499999995809
312788.2997,-2.6973534218458792,6.992431688712967,10.316215509586154,5.698277650209219,31.95599999994738
312788.3007,-2.5720993426268204,8.933354680281596,11.89581520570688,7.5590940964772715,31.956999999994878
312788.3017,-2.487969585705465,10.754394903851809,13.173421150169798,9.28647306764366,31.957999999984168
312788.3027,-2.4819845912757974,12.384028677160938,14.074633195883212,10.80650650441939,31.958999999973457
312788.3037,-2.5943393175941853,13.748930157367205,14.531258124366895,12.045271368440329,31.959999999962747
312788.3047,-2.863643544916577,14.779157763658855,14.487221390523137,12.934447349053153,31.960999999952037
312788.3057,-3.321827513718793,15.4135709657414,13.904361647152163,13.417071515811806,31.961999999999534
312788.3067,-3.989251988418256,15.604991035884979,12.76754303420188,13.452891179608603,31.962999999988824
312788.3077,-4.870557626569321,15.324628086785657,11.088547524421088,13.022792418384183,31.963999999978114
312788.3087,-5.9517303880709225,14.565350661266265,8.908290452813002,12.13184859474591,31.964999999967404
312788.3097,-7.19875286294496,13.343468575476546,6.297030371040069,10.810645048763085,31.965999999956694
312788.3107,-8.558065850071353,11.698826043494906,3.3524085153154592,9.114682921713207,31.966999999945983
312788.3117,-9.958894133171437,9.693148669865044,0.1953387338211652,7.121833262383506,31.96799999999348
312788.3127,-11.317311516936151,7.40674108164407,-3.0360413370400314,4.927986548676654,31.96899999998277
312788.3137,-12.54175006230242,4.933777523902929,-6.193970443171224,2.6412062297377883,31.96999999997206
312788.3147,-13.539513600523554,2.3765521057703074,-9.129681252228927,0.3748324615683373,31.97099999996135
312788.3157,-14.223750170981981,-0.1608530091591178,-11.702398858880246,-1.7599191561212046,31.97199999995064
312788.3167,-14.52028246545841,-2.5789728068649262,-13.78803570863712,-3.6612687477987964,31.972999999998137
312788.3177,-14.373695396267838,-4.7889248319261934,-15.286909694942558,-5.243501104995142,31.973999999987427
312788.3187,-13.7521359799602,-6.717463211881222,-16.129882604599054,-6.442376406846086,31.974999999976717
312788.3197,-12.650387949808009,-8.310733397077142,-16.28243980304919,-7.218890958221273,31.975999999966007
312788.3207,-11.090932108298762,-9.536457525930402,-15.746398266598975,-7.561098960705538,31.976999999955297
312788.3217,-9.122879678679812,-10.38442112122594,-14.559124006998708,-7.483874479917138,31.977999999944586
312788.3227,-6.818853430235532,-10.865282373487318,-12.790344213282452,-7.026670776545211,31.978999999992084
312788.3237,-4.2700726525965855,-11.007871507545492,-10.536835693159743,-6.249505627714234,31.979999999981374
312788.3247,-1.5800562172957289,-10.855276099039473,-7.91544180519173,-5.2275504478267845,31.980999999970663
312788.3257,1.142521763361368,-10.460106943349167,-5.054999794792039,-4.044814346774719,31.981999999959953
312788.3267,3.7912179689555208,-9.879399322365398,-2.087837857329089,-2.7874815961400397,31.982999999949243
312788.3277,6.268826294418924,-9.169621146209325,0.8584801931620362,-1.5374765547602094,31.98399999999674
312788.3287,8.493424663340523,-8.382231559905204,3.6685261283832777,-0.36679309533247095,31.98499999998603
312788.3297,10.402976312272186,-7.560164565942961,6.2449546188633045,0.6669598878035535,31.98599999997532
312788.3307,11.958137393458104,-6.735509313609104,8.512629410490037,1.5234705258379087,31.98699999996461
312788.3317,13.143090977068184,-5.928532429025693,10.420705573887181,2.1809197862840586,31.9879999999539
312788.3327,13.964410169268461,-5.148050742871505,11.942634744220086,2.6354522978378623,31.989000000001397
312788.3337,14.4481327291258,-4.393028557785539,13.074247299232999,2.89907502566699,31.989999999990687
312788.3347,14.635389261966576,-3.655155300103391,13.830232314689487,2.9962793466299438,31.990999999979977
312788.3357,14.577051788573343,-2.9220684262461702,14.239467566093845,2.9597924961347353,31.991999999969266
312788.3367,14.327947682464071,-2.180831388419845,14.339736081514815,2.825932359684122,31.992999999958556
312788.3377,13.941208628518206,-1.421262246850231,14.172395748751056,2.630059283596342,31.993999999947846
312788.3387,13.463293602172032,-0.6387359771082606,13.777542523237521,2.4025888960014963,31.994999999995343
312788.3397,12.93014249521918,0.16385067275300846,13.190129597369966,2.165954641976734,31.995999999984633
312788.3407,12.364791532620504,0.9751659118340416,12.43738323712527,1.9327960872538728,31.996999999973923
312788.3417,11.776625806165919,1.7756773674868598,11.537703763741408,1.7055108939662067,31.997999999963213
312788.3427,11.162273766162468,2.539003709958338,10.501073093210147,1.4771590041632234,31.998999999952503
312788.3437,10.507980385131777,3.2342305110343936,9.330825355705903,1.2335622609492671,32.0
312788.3447,9.793146633856088,3.828931965397847,8.026491004149666,0.9563162011558807,32.00099999998929
312788.3457,8.994607610001738,4.292562387505993,6.587312046096141,0.6263358168802446,32.00199999997858
312788.3467,8.091151423164169,4.599839366273005,5.015957685430644,0.22750319037205335,32.00299999996787
312788.3477,7.067762513631767,4.73373842874899,3.3219522776856887,-0.2500226626538528,32.00399999995716
312788.3487,5.91910800406622,4.687757265846433,1.5243624425671882,-0.8072340966467109,32.00499999994645
312788.3497,4.651870139205089,4.467182134063025,-0.346626498345588,-1.4347596702528567,32.005999999993946
312788.3507,3.2856530791284984,4.089192370670685,-2.2494917050383876,-2.112607819894225,32.006999999983236
312788.3517,1.8523454160149369,3.5817604867402704,-4.132608936638571,-2.8112335451719126,32.007999999972526
312788.3527,0.39398513321739553,2.9814325703109708,-5.93688004744798,-3.493846386202008,32.008999999961816
312788.3537,-1.040665547937457,2.3301936301636204,-7.599532850607775,-4.119739458779116,32.009999999951106
312788.3547,-2.400488275522442,1.6717226038382056,-9.058740406146272,-4.648302609887267,32.0109999999986
312788.3557,-3.6368680439680445,1.0474115430294593,-10.25860832620666,-5.04330013689967,32.01199999998789
312788.3567,-4.70853403898194,0.49255548370961993,-11.154026068969019,-5.276953846735484,32.01299999997718
312788.3577,-5.5858655421054335,0.03310999550676573,-11.71487716590129,-5.333380070580806,32.01399999996647
312788.3587,-6.254193258433871,-0.31663715008734883,-11.929154435915079,-5.210984356853319,32.01499999995576
312788.3597,-6.715721628779229,-0.5552207280416456,-11.80462475033738,-4.923514906034111,32.01599999994505
312788.3607,-6.98983207871535,-0.6938348101726737,-11.368824277466706,-4.499606033041021,32.01699999999255
312788.3617,-7.111687454380258,-0.754838969092299,-10.667325941361073,-3.980793283189192,32.01799999998184
312788.3627,-7.129228173861594,-0.7690569972933881,-9.760390129757635,-3.418137366604043,32.01899999997113
312788.3637,-7.098813899690626,-0.772116962371892,-8.71827058869536,-2.867739210553001,32.01999999996042
312788.3647,-7.079904454163901,-0.8001845597441041,-7.615583793032386,-2.385548424690268,32.02099999994971
312788.3657,-7.129276146622716,-0.8855115802421801,-6.525248079662796,-2.0219499372490626,32.021999999997206
312788.3667,-7.295324206288039,-1.0522503970728407,-5.512548401464151,-1.816649689010627,32.022999999986496
312788.3677,-7.613002860813144,-1.3129701617353648,-4.629878374421365,-1.7943657582289556,32.023999999975786
312788.3687,-8.099901296252238,-1.6662516864060553,-3.9126533025716768,-1.961766781796,32.024999999965075
312788.3697,-8.75385114971854,-2.0956408853610484,-3.3767813368744912,-2.3059906167506643,32.025999999954365
312788.3707,-9.552319072341277,-2.570114092679351,-3.0179349223539242,-2.7949328558788546,32.02700000000186
312788.3717,-10.453669941214724,-3.0460645065590235,-2.812695112507421,-3.3793305516184136,32.02799999999115
312788.3727,-11.400208776096429,-3.4706712254110035,-2.721463560932709,-3.996496975859668,32.02899999998044
312788.3737,-12.322739612965742,-3.7863751530179974,-2.692868299649869,-4.575404778503234,32.02999999996973
312788.3747,-13.146234089506835,-3.9360729034526893,-2.6692462376460835,-5.042682911182686,32.03099999995902
312788.3757,-13.796095564431488,-3.868561984113899,-2.5926816966611668,-5.329000129382345,32.03199999994831
312788.3767,-14.20444674208221,-3.5437359237097157,-2.411026475060811,-5.375264039880949,32.03299999999581
312788.3777,-14.31586574302719,-2.9370404809040314,-2.083328306462887,-5.138074148522974,32.0339999999851
312788.3787,-14.092047732005117,-2.0427609464743215,-1.5841512030671159,-4.593929700198862,32.03499999997439
312788.3797,-13.51497156625588,-0.8758106864298665,-0.9063777002127456,-3.7418027097285353,32.03599999996368
312788.3807,-12.588293523838562,0.5281766931200367,-0.06222921883587212,-2.603833303632819,32.03699999995297
312788.3817,-11.336859132617233,2.1144971487367052,0.9175874946905579,-1.2240745616738506,32.038000000000466
312788.3827,-9.804402983186245,3.8126560033695545,1.9865192682552377,0.33460859388927405,32.038999999989755
312788.3837,-8.049677745143974,5.541017567139015,3.086330224919023,1.9952140636064826,32.039999999979045
312788.3847,-6.141400737158625,7.212439536262114,4.152383316784717,3.672435968518257,32.040999999968335
312788.3857,-4.1525150394126005,8.740417459804394,5.119525916888492,5.279138448098002,32.041999999957625
312788.3867,-2.1543217914569834,10.045218547065172,5.928009137646907,6.732896683697688,32.042999999946915
312788.3877,-0.21104532630014294,11.0594860223818,6.528869657605455,7.962030867018283,32.04399999999441
312788.3887,1.624657129603629,11.732844824214535,6.888257697478679,8.91061136120086,32.0449999999837
312788.3897,3.3148291929164717,12.03513183860048,6.990299966985588,9.542014204468922,32.04599999997299
312788.3907,4.837720038844837,11.958000122007386,6.838231524935439,9.840745488062925,32.04699999996228
312788.3917,6.187553094400495,11.514794574328622,6.4537012375236325,9.812417445900708,32.04799999995157
312788.3927,7.372626682416278,10.738752129390788,5.874335038601368,9.48193243751075,32.04899999999907
312788.3937,8.411981794922397,9.679727972515924,5.149811785179903,8.890096728151676,32.04999999998836
312788.3947,9.331015143962361,8.399776619697764,4.3368513505011315,8.08902826082503,32.05099999997765
312788.3957,10.15652033697655,6.968011111051009,3.4936194574868993,7.136828048838293,32.05199999996694
312788.3967,10.91169622170525,5.455216584610753,2.674108356941281,6.09204364648528,32.05299999995623
312788.3977,11.611663704935577,3.9287016972475537,1.9230515240250396,5.008460233027549,32.05399999994552
312788.3987,12.25998054266722,2.4478328190772176,1.2718743268745893,3.9307100956456003,32.054999999993015
312788.3997,12.846542902575024,1.06061614463961,0.7360768423757277,2.8910996839283074,32.055999999982305
312788.4007,13.34712286931254,-0.19841972371250827,0.3143002918044238,1.9079244105215267,32.056999999971595
312788.4017,13.724626247950976,-1.30892204899233,-0.010840584552054932,0.985388021148352,32.057999999960884
312788.4027,13.931981208743244,-2.2640161821863583,-0.27025364268989993,0.11508093306874331,32.058999999950174
312788.4037,13.916402549977297,-3.0683704838519374,-0.5044551559030123,-0.7211835393022566,32.05999999999767
312788.4047,13.62463487056009,-3.7352990644191646,-0.7586468787861459,-1.5475095104746222,32.06099999998696
312788.4057,13.008674592727182,-4.28326345900788,-1.077285931162839,-2.389468211983123,32.06199999997625
312788.4067,12.031415688871382,-4.732182041666948,-1.4986990682565116,-3.269543928980916,32.06299999996554
312788.4077,10.671662581472678,-5.099961328005486,-2.0502880705719195,-4.2029679772865,32.06399999995483
312788.4087,8.928006228379648,-5.399626520216584,-2.744814002542675,-5.194388244346998,32.06500000000233
312788.4097,6.821160884065808,-5.637354093060307,-3.578140969906738,-6.2357332018332405,32.06599999999162
312788.4107,4.394499720918999,-5.811604974496562,-4.5286754906081415,-7.30550547760164,32.06699999998091
312788.4117,1.7126939038679865,-5.913433866511062,-5.558570057040114,-8.369593578460876,32.0679999999702
312788.4127,-1.1414641317772016,-5.927921152544181,-6.616585481914903,-9.383535840570755,32.06899999995949
312788.4137,-4.0718034374756416,-5.836551796401045,-7.642343315534872,-10.29602348616231,32.06999999994878
312788.4147,-6.974687897563537,-5.620262973464411,-8.5715629990253,-11.053304286775553,32.070999999996275
312788.4157,-9.745596274180045,-5.262809167301745,-9.34178178463388,-11.604057030230758,32.071999999985565
312788.4167,-12.285804158859984,-4.754057349421718,-9.898008139815499,-11.904258584327966,32.072999999974854
312788.4177,-14.508595381640825,-4.092829135354774,-10.197765817905502,-11.921564394585877,32.073999999964144
312788.4187,-16.344476578716492,-3.288950914511825,-10.215045210780618,-11.638769605519444,32.074999999953434
312788.4197,-17.744963955657585,-2.3642523406813734,-9.942785017038936,-11.056006868042003,32.07600000000093
312788.4207,-18.68464645937461,-1.3523601876552962,-9.393650122962427,-10.19145935341867,32.07699999999022
312788.4217,-19.161391434320223,-0.29725766068374626,-8.599036847955038,-9.08051134959984,32.07799999997951
312788.4227,-19.19473170726634,0.7492935819434274,-7.606408157436226,-7.773409839430884,32.0789999999688
312788.4237,-18.822640239857954,1.7312529980032076,-6.475222336332102,-6.331653781505327,32.07999999995809
312788.4247,-18.097043946728938,2.592408834055986,-5.271853246789281,-4.823449377549865,32.08099999994738
312788.4257,-17.078538111749822,3.280713187761931,-4.063995544284107,-3.3186575455463174,32.08199999999488
312788.4267,-15.830826676720385,3.752433972902291,-2.9150948254352507,-1.8837055959454163,32.08299999998417
312788.4277,-14.415425674611672,3.975724181570419,-1.8793361067178185,-0.5769343664901061,32.08399999997346
312788.4287,-12.88712646023814,3.9332595597268787,-0.9976649576477123,0.5551949680602707,32.08499999996275
312788.4297,-11.290626524435755,3.62368161755625,-0.2952098426322526,1.480698752310186,32.08599999995204
312788.4307,-9.658607639199587,3.0616955416780813,0.21966784891942676,2.183258926240222,32.086999999999534
312788.4317,-8.011386758799361,2.276801130933818,0.5546340161825138,2.66192866729406,32.087999999988824
312788.4327,-6.358099931335823,1.3107667838325645,0.7310607872463163,2.9294312165407956,32.088999999978114
312788.4337,-4.699219928132957,0.2140788635308924,0.7803925033049175,3.0092675118213275,32.089999999967404
312788.4347,-3.030070270246311,-0.9583006420795278,0.7396003028270937,2.931966047412044,32.09099999995669
312788.4357,-1.3448955855429714,-2.1514664112326822,0.6462201538634157,2.730892200507692,32.09199999994598
312788.4367,0.35900895167972413,-3.3149602053339327,0.5335130111926689,2.4380756767070912,32.09299999999348
312788.4377,2.0776121746289054,-4.4065995534249955,0.4262754045617165,2.080509469020765,32.09399999998277
312788.4387,3.7973623021438585,-5.395378039311227,0.33776473205349444,1.677322143064171,32.09499999997206
312788.4397,5.493666085899558,-6.263160111230789,0.268091638215789,1.23813229319398,32.09599999996135
312788.4407,7.130862315577238,-7.005010883845259,0.20428264797454243,0.7627687312571337,32.09699999995064
312788.4417,8.663762473560618,-7.628135693427865,0.12204402822090778,0.242394710754958,32.09799999999814
312788.4427,10.040663723477886,-8.149542241058073,-0.010920584996592082,-0.33807632451326014,32.09899999998743
312788.4437,11.207578718894442,-8.592666562373557,-0.23035332848479645,-0.9965272419017469,32.09999999997672
312788.4447,12.113289107768297,-8.983310146077926,-0.5700995251554216,-1.74951714535861,32.10099999996601
312788.4457,12.71472913545444,-9.34530867270355,-1.0565294730428285,-2.6079473211227717,32.1019999999553
312788.4467,12.982152945678957,-9.696385530380429,-1.7033185967168885,-3.573002544806382,32.102999999944586
312788.4477,12.903539996889345,-10.044631803280058,-2.507165721749608,-4.632844761146159,32.103999999992084
312788.4487,12.487748198225734,-10.38599938623603,-3.4449570813378467,-5.760475131642206,32.10499999998137
312788.4497,11.766029344539813,-10.703100062478397,-4.472759412486085,-6.91307593843603,32.10599999997066
312788.4507,10.791666680049493,-10.9654794210107,-5.52686014182569,-8.033005389133823,32.10699999995995
312788.4517,9.637666380717656,-11.131392045711673,-6.526881376618537,-9.050459018510486,32.10799999994924
312788.4527,8.392617087969453,-11.150957069048847,-7.380795157513577,-9.887646404746897,32.10899999999674
312788.4537,7.155006830889573,-10.970435166451757,-7.991479220232477,-10.464177359456095,32.10999999998603
312788.4547,6.026437733426958,-10.53725283931869,-8.264293615463286,-10.703222870503847,32.11099999997532
312788.4557,5.104290993136595,-9.80531879055778,-8.115044665032144,-10.537925835599316,32.11199999996461
312788.4567,4.474456566583685,-8.74013852932022,-7.477645498016555,-9.917494389759925,32.1129999999539
312788.4577,4.204747404449435,-7.323241213853129,-6.310788143241301,-8.81242121746596,32.1140000000014
312788.4587,4.33956597713518,-5.555486846807379,-4.603011235535592,-7.218335399718244,32.11499999999069
312788.4597,4.896285804087347,-3.458917497703046,-2.3756741613153127,-5.158103737771457,32.11599999997998
312788.4607,5.86366246229067,-1.0769444300609183,0.3164782785387513,-2.681946171683991,32.116999999969266
312788.4617,7.202411013653999,1.5271881533964624,3.3872725715554184,0.13449874320130387,32.117999999958556
312788.4627,8.847896715297324,4.2735666143948094,6.723480317455004,3.1940433035651528,32.118999999947846
312788.4637,10.714701228736443,7.07015522157488,10.191296614315798,6.383470140155071,32.11999999999534
312788.4647,12.702664743606897,9.818358757460542,13.644429142255332,9.580271937691661,32.12099999998463
312788.4657,14.703880647844937,12.419140615441213,16.93316641942465,12.660075457722373,32.12199999997392
312788.4667,16.61004504860521,14.779187954920802,19.91371218615286,15.50415637242704,32.12299999996321
312788.4677,18.31954518034099,16.81661384291607,22.45705467118434,18.00644771683076,32.1239999999525
312788.4687,19.74370967202804,18.465731632869264,24.456685814694733,20.079495021969578,32.125
312788.4697,20.81173538623054,19.68052455247955,25.834591535599365,21.65891035203624,32.12599999998929
312788.4707,21.473940614890882,20.43655498397865,26.545089486603445,22.706015847433157,32.12699999997858
312788.4717,21.70315923649176,20.73120142984979,26.57628061509672,23.208531614309322,32.12799999996787
