TimeStamp,ECR,FCR,ECU,FCU,time_index
312819.1767,36.30086804302213,31.463795473447075,21.468705773473374,32.0080469334198,62.83299999998417
312819.1777,14.72592584441598,10.602916970053075,-0.7626469694045442,9.205767431113399,62.83399999997346
312819.1787,-7.34799574918723,-10.670814841879524,-22.87597748772659,-13.958844533178441,62.83499999996275
312819.1797,-29.352390839410685,-31.74833802937486,-44.29361386500753,-36.72775010682637,62.83599999995204
312819.1807,-50.76368034178026,-52.074615699639835,-64.50361905584387,-58.424446770069224,62.836999999999534
312819.1817,-71.11943545247043,-71.16540792836473,-83.07417335029082,-78.47346242967137,62.837999999988824
312819.1827,-90.02983482095017,-88.61900833292891,-99.66278876725495,-96.41297068183209,62.838999999978114
312819.1837,-107.18422286369588,-104.12286672720732,-114.02035417132448,-111.90061575847083,62.839999999967404
312819.1847,-122.35296236951181,-117.45533013338661,-125.99032130072621,-124.71302261639818,62.84099999995669
312819.1857,-135.38506203830164,-128.48300303739487,-135.50361175740304,-134.73978933487982,62.84199999994598
312819.1867,-146.202290346823,-137.154438941783,-142.57003688339913,-141.97299955556608,62.84299999999348
312819.1877,-154.7906476147107,-143.4910186815835,-147.26716456209192,-146.49344266004303,62.84399999998277
312819.1887,-161.1901506998686,-147.5759417528883,-149.727633056728,-148.45478599890043,62.84499999997206
312819.1897,-165.48388804435663,-149.54225575651583,-150.12590161436327,-148.06691061777934,62.84599999996135
312819.1907,-167.78723172399586,-149.56078195927142,-148.6653460877002,-145.5795094391943,62.84699999995064
312819.1917,-168.2379583111716,-147.82867251274592,-145.5664658791646,-141.26686966518605,62.84799999999814
312819.1927,-166.98784699246644,-144.55917123904027,-141.0567810133706,-135.41453792246304,62.84899999998743
312819.1937,-164.19611003171778,-139.97296163524337,-135.36278303418584,-128.3083182524827,62.84999999997672
312819.1947,-160.02478753479272,-134.29129034021855,-128.70408013055464,-120.2258008900803,62.85099999996601
312819.1957,-154.63602566794805,-127.73086870919961,-121.28966470503615,-111.4303842165875,62.8519999999553
312819.1967,-148.19097331939813,-120.50039442578462,-113.31604803487345,-102.16755102474961,62.852999999944586
312819.1977,-140.84989164920498,-112.79841124500669,-104.96686604674922,-92.66300706837833,62.853999999992084
312819.1987,-132.77298445999415,-104.81214602988588,-96.41347245852366,-83.12219367272915,62.85499999998137
312819.1997,-124.121429886966,-96.71693172945876,-87.81600539731652,-73.73065040144067,62.85599999997066
312819.2007,-115.05812491298518,-88.67584171301267,-79.32444037097277,-64.65472634862068,62.85699999995995
312819.2017,-105.74773754257345,-80.8392194157776,-71.07922014574783,-56.04221236185515,62.85799999994924
312819.2027,-96.35578621111398,-73.34387834674699,-63.21117004040261,-48.022579913031954,62.85899999999674
312819.2037,-87.04661759995362,-66.31185921045318,-55.84055122799613,-40.70665080976652,62.85999999998603
312819.2047,-77.98031571109712,-59.84874973347884,-49.075258566209776,-34.185669192119406,62.86099999997532
312819.2057,-69.30872950829107,-54.04168510635945,-43.00831646439983,-28.529886884268695,62.86199999996461
312819.2067,-61.170937461508295,-48.95724023197019,-37.714950672675506,-23.786890202010856,62.8629999999539
312819.2077,-53.6885614292205,-44.639489027070475,-33.24960261647384,-19.979978617271673,62.8640000000014
312819.2087,-46.961389936813255,-41.10853396378858,-29.643296860146723,-17.1069450513626,62.86499999999069
312819.2097,-41.0637673812274,-38.35979789830423,-26.901767077759185,-15.139600469741715,62.86599999997998
312819.2107,-36.04215160698838,-36.36432122126978,-25.004692294573758,-14.02433326762583,62.866999999969266
312819.2117,-31.914143420323892,-35.07022568951671,-23.90629891917003,-13.683902764124955,62.867999999958556
312819.2127,-28.66915825079361,-34.40540061668495,-23.537455402240916,-14.020546097710712,62.868999999947846
312819.2137,-26.270756135882237,-34.2813486121118,-23.809238775814702,-14.920342046954568,62.86999999999534
312819.2147,-24.660487375971652,-34.59800935807401,-24.617801355046502,-16.258638518043295,62.87099999998463
312819.2157,-23.76296393899398,-35.249273708233716,-25.850227420294424,-17.906227489317637,62.87199999997392
312819.2167,-23.49174616082962,-36.128818188816815,-27.390958409932257,-19.735855530305773,62.87299999996321
312819.2177,-23.75555295868894,-37.135840937562726,-29.12829300168911,-21.628600302488962,62.8739999999525
312819.2187,-24.464270164360546,-38.18027007007705,-30.96044347745659,-23.47963053787246,62.875
312819.2197,-25.534249401057746,-39.187046357064105,-32.80065525281075,-25.202901173074086,62.87599999998929
312819.2207,-26.892457708437252,-40.09915174630768,-34.58097063287379,-26.734414103832354,62.87699999997858
312819.2217,-28.479149380805513,-40.87915756722072,-36.25433404870188,-28.033791390367263,62.87799999996787
312819.2227,-30.248875368611436,-41.50919178330616,-37.79488329919611,-29.084050815271432,62.87899999995716
312819.2237,-32.16980796118454,-41.989361578017494,-39.19643556194844,-29.889629831966,62.87999999994645
312819.2247,-34.221523298245394,-42.33480280643566,-40.469342244041364,-30.47285808691127,62.880999999993946
312819.2257,-36.391535240326185,-42.57164840800173,-41.63603700027007,-30.869215873137797,62.881999999983236
312819.2267,-38.670996285628405,-42.73230208398337,-42.725721698600246,-31.12182265824757,62.882999999972526
312819.2277,-41.05006238992586,-42.85046222199348,-43.76871383282873,-31.275665701112374,62.883999999961816
312819.2287,-43.513450584371576,-42.95635842717126,-44.791007950128375,-31.372097140365995,62.884999999951106
312819.2297,-46.036697879085516,-43.07263730218148,-45.80957995652106,-31.44409681286124,62.8859999999986
312819.2307,-48.58355893269807,-43.21126767418899,-46.82888869089573,-31.51272025234371,62.88699999998789
312819.2317,-51.10486518547644,-43.37173460149452,-47.83891087082485,-31.58503417578449,62.88799999997718
312819.2327,-53.53902073647345,-43.5406658376967,-48.814894652989416,-31.653696463066552,62.88899999996647
312819.2337,-55.81414455838706,-43.6928960122587,-49.71884807037054,-31.69817809560229,62.88999999995576
312819.2347,-57.851700873667625,-43.79383585558311,-50.502607779557565,-31.68746605590339,62.89099999994505
312819.2357,-59.57130608900205,-43.80288955014622,-51.112177394756365,-31.583944027260504,62.89199999999255
312819.2367,-60.89627666851457,-43.67756459007354,-51.492898369747586,-31.34803552813814,62.89299999998184
312819.2377,-61.75939995454484,-43.3778547640144,-51.59493226058365,-30.943122637233007,62.89399999997113
312819.2387,-62.10837743068763,-42.87045404037832,-51.37849957620122,-30.340229546259547,62.89499999996042
312819.2397,-61.910410650275395,-42.13237926829416,-50.818340766749934,-29.521986055337972,62.89599999994971
312819.2407,-61.155472248576835,-41.15364059432719,-49.90693746890239,-28.485459221477623,62.896999999997206
312819.2417,-59.857921346706064,-39.938694267690614,-48.65615012067327,-27.243554536139943,62.897999999986496
312819.2427,-58.05627312182294,-38.506533639791776,-47.097080245572975,-25.824830215125125,62.898999999975786
312819.2437,-55.811101970168096,-36.889408787257345,-45.278137496750965,-24.27172558967636,62.899999999965075
312819.2447,-53.20123025258183,-35.130300138530195,-43.261466391354354,-22.63736187176716,62.900999999954365
312819.2457,-50.31851350537896,-33.279393586767746,-41.11804862841385,-20.981215416205835,62.90200000000186
312819.2467,-47.261662943821676,-31.389901919044426,-38.92192831269017,-19.364076197560316,62.90299999999115
312819.2477,-44.12963458980032,-29.513640506965004,-36.74409643625258,-17.842776578073803,62.90399999998044
312819.2487,-41.01515293401451,-27.696787967177844,-34.646608785702036,-16.465200489352053,62.90499999996973
312819.2497,-37.99892204525578,-25.976242750892897,-32.67749415770218,-15.266058413695802,62.90599999995902
312819.2507,-35.14501000805351,-24.376926372028148,-30.86693881278806,-14.263841407956749,62.90699999994831
312819.2517,-32.49778009115138,-22.910289226695344,-29.225115112413366,-13.459254864700595,62.90799999999581
312819.2527,-30.08059510722378,-21.5741550796804,-27.741868473429914,-12.835290698437078,62.9089999999851
312819.2537,-27.896354322516288,-20.35390715748035,-26.388301837009124,-12.358939004206556,62.90999999997439
312819.2547,-25.92975123111742,-19.22488556089604,-25.120117555188177,-11.984382317090231,62.91099999996368
312819.2557,-24.15098206038611,-18.15574557206982,-23.88241016167698,-11.657372788128471,62.91199999995297
312819.2567,-22.520504257932604,-17.11243127073227,-22.615465902133508,-11.32037879248316,62.913000000000466
312819.2577,-20.994353870460994,-16.062358118615723,-21.26102936412128,-10.918013770681972,62.913999999989755
312819.2587,-19.52948910126854,-14.978377850859138,-19.768453223720613,-10.4022336256589,62.914999999979045
312819.2597,-18.08863805048921,-13.842121167452481,-18.100158229042357,-9.736812292085563,62.915999999968335
312819.2607,-16.644190172436723,-12.646376187786306,-16.23589594047832,-8.900675832229286,62.916999999957625
312819.2617,-15.180776820376856,-11.396257270196228,-14.175420082621699,-7.889786633767993,62.917999999946915
312819.2627,-13.69632556600906,-10.109040072475977,-11.939322663895812,-6.717410080292818,62.91899999999441
312819.2637,-12.201531720953088,-8.812672654562652,-9.567963777782037,-5.412752646386261,62.9199999999837
312819.2647,-10.717852757929133,-7.543105744705547,-7.118602577311184,-4.0181174203629615,62.92099999997299
312819.2657,-9.274280976612665,-6.34070478232002,-4.661004165633075,-2.5848652361530173,62.92199999996228
312819.2667,-7.903271963511642,-5.24610012867957,-2.271937079399435,-1.1685830344846175,62.92299999995157
312819.2677,-6.636289128814398,-4.295890527273207,-0.029075374458390233,0.1760652600192763,62.92399999999907
312819.2687,-5.49945980966356,-3.5186325683089517,1.9951312379188622,1.4003032819581498,62.92499999998836
312819.2697,-4.509822809556156,-2.931523671898299,3.7390606205672072,2.4655427401194747,62.92599999997765
312819.2707,-3.6725825709616187,-2.538120291279138,5.156494501155727,3.3466101082805637,62.92699999996694
312819.2717,-2.979678113640215,-2.3273330057492427,6.219773131393401,4.033599400138248,62.92799999995623
312819.2727,-2.409836295776302,-2.2738156779830994,6.921275903089472,4.5321897644327445,62.92899999994552
312819.2737,-1.9301228874118104,-2.3397290956119186,7.273140273794674,4.862420789694367,62.929999999993015
312819.2747,-1.4988471490734319,-2.4777239573071688,7.305302295278861,5.056072578241851,62.930999999982305
312819.2757,-1.069532026560429,-2.6348670810308024,7.062102333349302,5.152936526608257,62.931999999971595
312819.2767,-0.5955472474351908,-2.7571402939703007,6.597833536036739,5.1963725375974965,62.932999999960884
312819.2777,-0.03492823221807703,-2.7940830152564575,5.971705247678043,5.228618170619722,62.933999999950174
312819.2787,0.6451224983017589,-2.7031329518598177,5.242739832538139,5.286338059826961,62.93499999999767
312819.2797,1.4645299167466401,-2.4532463765132055,4.465115055758878,5.396875501894231,62.93599999998696
312819.2807,2.4278418673879396,-2.0274476349396293,3.6844063081088505,5.575595039718998,62.93699999997625
312819.2817,3.523214439105977,-1.424060278078656,2.935079720930606,5.824592392157729,62.93799999996554
312819.2827,4.723030332668787,-0.6564995623032402,2.2394492734332188,6.132907384695187,62.93899999995483
312819.2837,5.986130694926831,0.24835439945508542,1.6081524594394556,6.47822063638453,62.94000000000233
312819.2847,7.261478070288301,1.2530454462251692,1.0420360972766567,6.829861119633223,62.94099999999162
312819.2857,8.492921157034196,2.313411585328365,0.535192995800173,7.152814718647973,62.94199999998091
312819.2867,9.624615656221563,3.3830599182658068,0.07876676038470855,7.4123173556736965,62.9429999999702
312819.2877,10.606581468270917,4.418009897598567,-0.33494139597215533,7.578550948634814,62.94399999995949
312819.2887,11.399852560780765,5.381051224599639,-0.7085648230445719,7.630943180079342,62.94499999994878
312819.2897,11.980704886147384,6.2453895306923455,-1.0364461656193646,7.561604839668965,62.945999999996275
312819.2907,12.343527498078394,6.997221439117519,-1.3025101167467095,7.377518453714748,62.946999999985565
312819.2917,12.502025268180379,7.636984097262566,-1.4795374408812176,7.101211468768142,62.947999999974854
312819.2927,12.488596819370239,8.179152811986144,-1.5299982694781984,6.769794907768333,62.948999999964144
312819.2937,12.351903768016369,8.650601578335474,-1.4084387766628053,6.432409844397952,62.949999999953434
312819.2947,12.152820623785708,9.087681405082881,-1.0652491004453073,6.146283500258411,62.95100000000093
312819.2957,11.95911207215715,9.53229684428552,-0.4514883952085208,5.971738630697374,62.95199999999022
312819.2967,11.839310621656958,10.027359872995511,0.4756795308407009,5.966610137852076,62.95299999997951
312819.2977,11.856350399657199,10.612062683813233,1.747466961773679,6.18059054622702,62.9539999999688
312819.2987,12.061543990765614,11.317430952291842,3.378416365570239,6.6500441849471175,62.95499999995809
312819.2997,12.48946529962229,12.162594782971242,5.362360806299473,7.393796482243778,62.95599999994738
312819.3007,13.154224394234365,13.152148081587269,7.669847350644302,8.410322501976536,62.95699999999488
312819.3017,14.047497126468537,14.274864892551673,10.247358256363409,9.676635256623792,62.95799999998417
312819.3027,15.138514427366163,15.50391304292913,13.018508408958347,11.149020925313117,62.95899999997346
312819.3037,16.37603826572849,16.798563501767173,15.887221219849925,12.765599290293785,62.95999999996275
312819.3047,17.692170002498223,18.10725176408855,18.742705484773623,14.450519397038764,62.96099999995204
312819.3057,19.007669281888138,19.371718880317587,21.46588938817326,16.119448551261037,62.961999999999534
312819.3067,20.23832340996002,20.531856762473677,23.936830576576902,17.685891672198704,62.962999999988824
312819.3077,21.301811344302948,21.530814929875575,26.042525955792065,19.067799205550962,62.963999999978114
312819.3087,22.124461904729415,22.31990032537888,27.68450060558085,20.193892743971684,62.964999999967404
312819.3097,22.64731669970086,22.862820635752428,28.785566180747693,21.009160980172947,62.96599999995669
312819.3107,22.830973379635797,23.138882838003855,29.295204433360784,21.479052427016903,62.96699999994598
312819.3117,22.658797874403607,23.144856552471513,29.193145027992855,21.5920085210936,62.96799999999348
312819.3127,22.138244421790343,22.895336803168835,28.490858124205925,21.360130231636184,62.96899999998277
312819.3137,21.300195141412914,22.421580968028742,27.23085728731887,20.817939045020612,62.96999999997206
312819.3147,20.1964102501004,21.76893661689868,25.483891044804817,20.01936342391799,62.97099999996135
312819.3157,18.895348825972793,20.993107017449784,23.344275119764124,19.03323861135909,62.97199999995064
312819.3167,17.476762491148712,20.155606944074812,20.923766322466495,17.937736370832877,62.97299999999814
312819.3177,16.025567299601125,19.318833023942016,18.344490014932905,16.814230065397687,62.97399999998743
312819.3187,14.625553166955601,18.541203501281267,15.731496438412092,15.741141380621162,62.97499999997672
312819.3197,13.353490798139408,17.87280927505022,13.205532046462,14.788304595900787,62.97599999996601
312819.3207,12.27414386205536,17.35196287999405,10.876570362796114,14.012324130284874,62.9769999999553
312819.3217,11.436594817702268,17.002940332299676,8.83855778097559,13.453297405651524,62.977999999944586
312819.3227,10.872156503047814,16.835091576335202,7.165702559486934,13.133138280190488,62.978999999992084
312819.3237,10.593982031633358,16.843360413941795,5.910482920868732,13.05557990904377,62.97999999998137
312819.3247,10.598318511078077,17.01011752305601,5.103387696263504,13.207775167800117,62.98099999997066
312819.3257,10.867191990028253,17.3080839152284,4.754246119383293,13.563263297852528,62.98199999995995
312819.3267,11.372177217682685,17.704019248525594,4.854867072000435,14.085947541530915,62.98299999994924
312819.3277,12.078809101892869,18.162779773800636,5.382604932133383,14.734641949226043,62.98399999999674
312819.3287,12.951142250544729,18.651321007015678,6.304408295426326,15.467704226724305,62.98499999998603
312819.3297,13.955965113656708,19.14223318568003,7.580894001437044,16.247278900852486,62.98599999997532
312819.3307,15.066225401894862,19.61645166067207,9.17002210729408,17.04272983849637,62.98699999996461
312819.3317,16.263318073787804,20.06487400887701,11.03002301215705,17.8329372133518,62.9879999999539
312819.3327,17.538016306834265,20.4887317326093,13.121336962665064,18.607261283705263,62.9890000000014
312819.3337,18.889976163493518,20.89869523794306,15.407456525485824,19.365120699670488,62.98999999999069
312819.3347,20.32590175009926,21.312823207188423,17.854700160303437,20.114281658942243,62.99099999997998
312819.3357,21.8566036471005,21.753588205574808,20.4310750706983,20.868090998511903,62.991999999969266
312819.3367,23.4933044285758,22.244307263451464,23.10449629603341,21.64199743184238,62.992999999958556
312819.3377,25.24362889074992,22.805369500051558,25.840705116393828,22.44977943956868,62.993999999947846
312819.3387,27.107754635669547,23.45067619225385,28.601265354509557,23.299928366799172,62.99499999999534
312819.3397,29.075186979820682,24.184689614432486,31.342007457857015,24.19261812584336,62.99599999998463
312819.3407,31.122561856297676,25.00042728855916,34.0122383899515,25.117630379666743,62.99699999997392
312819.3417,33.212777436358635,25.878643855994643,36.5549459793729,26.053502610160468,62.99799999996321
312819.3427,35.29561991242783,26.788322974365553,38.908109087414175,26.968036427430246,62.9989999999525
312819.3437,37.30989485829361,27.68846838621461,41.00709238114559,27.820158134355683,63.0
312819.3447,39.1869183570652,28.531049923414027,42.78797095413222,28.56297778715356,63.00099999998929
312819.3457,40.85507759921062,29.264840092196582,44.19151004318072,29.147761736238763,63.00199999997858
312819.3467,42.24505363047761,29.839782147593063,45.16743185256535,29.528430420263817,63.00299999996787
312819.3477,43.29522140982212,30.211470846939722,45.678545517512745,29.666128758871388,63.00399999995716
312819.3487,43.9567124468109,30.345308547233714,45.70430419606431,29.533397705801054,63.00499999994645
312819.3497,44.197646412414294,30.219924074285803,45.24338731256993,29.117504661482712,63.005999999993946
312819.3507,44.006108548924225,29.82950763483089,44.31498343944503,28.422564958718297,63.006999999983236
312819.3517,43.391562800480486,29.184815668864587,42.95856301207648,27.47019940447288,63.007999999972526
312819.3527,42.38453541998019,28.312725184023954,41.232069024312956,26.298612890539953,63.008999999961816
312819.3537,41.03456625629103,27.25435551229948,39.20860434510284,24.96013260180157,63.009999999951106
312819.3547,39.40658906551415,26.061913031639914,36.97184131127043,23.517396169484282,63.0109999999986
312819.3557,37.57605188198084,24.79453770508307,34.610507969841244,22.038515154509188,63.01199999998789
312819.3567,35.62320897256017,23.51352719767314,32.212402642618784,20.59164401644418,63.01299999997718
312819.3577,33.62709527174825,22.277375304436188,29.858444254070243,19.239448675672758,63.01399999996647
312819.3587,31.659724571481366,21.137080443113835,27.617274013162316,18.033985341088066,63.01499999995576
312819.3597,29.78103104329865,20.132155118202224,25.540883118109175,17.0124675187597,63.01599999994505
312819.3607,28.035001940018617,19.28770092061233,23.661654497393087,16.194319935668446,63.01699999999255
312819.3617,26.447334512998015,18.612812213372536,21.991082025425552,15.579799956386374,63.01799999998184
312819.3627,25.02480347420579,18.10044500953602,20.520279703475,15.150321216901379,63.01899999997113
312819.3637,23.75636104696343,17.72874796724242,19.22223015203351,14.870454655412127,63.01999999996042
312819.3647,22.61582582948874,17.463713451614556,18.055561871486333,14.691424257512486,63.02099999994971
312819.3657,21.56586553976007,17.262881715060768,16.969503345322668,14.555773896372902,63.021999999997206
312819.3667,20.562856984975667,17.07973251518369,15.909552775005812,14.402771270805198,63.022999999986496
312819.3677,19.562126192559614,16.868335454966097,14.823335669868154,14.174045824596618,63.023999999975786
312819.3687,18.523040398290647,16.58780904511425,13.666105288763378,13.818936394034335,63.024999999965075
312819.3697,17.413444543027385,16.206160940234287,12.405375000968116,13.299053271932898,63.025999999954365
312819.3707,16.213005998524636,15.703145720765042,11.024254078424098,12.591635652359214,63.02700000000186
312819.3717,14.915145419792,15.071875681241272,9.523181688139344,11.691401708776697,63.02799999999115
312819.3727,13.527377655436764,14.319044624778728,7.91990641163901,10.61073366222639,63.02899999998044
312819.3737,12.070050132326651,13.463762463953648,6.247726090934789,9.378200121780296,63.02999999996973
312819.3747,10.573630905905777,12.535136013276698,4.552169282361378,8.035577288094027,63.03099999995902
312819.3757,9.074848292488744,11.568855275737096,2.8864491816084197,6.633673911781071,63.03199999994831
312819.3767,7.612103753051221,10.603142654697422,1.306139178642952,5.2273783397155436,63.03299999999581
312819.3777,6.220657440807617,9.674485252987212,-0.1364052628421286,3.8704185953328603,63.0339999999851
312819.3787,4.928113591170519,8.813591590612987,-1.3973283682941549,2.610351204391711,63.03499999997439
312819.3797,3.750707626559932,8.041991567509776,-2.4457369462443754,1.4842690119139168,63.03599999996368
312819.3807,2.690820570823165,7.369634463665119,-3.266899887338661,0.5156450287330154,63.03699999995297
312819.3817,1.7360262388254357,6.793740407118592,-3.863860934032203,-0.2873844744100264,63.038000000000466
312819.3827,0.8598241587761006,6.299035711295414,-4.257294336932084,-0.932137758542115,63.038999999989755
312819.3837,0.024041030412150024,5.8593639734596445,-4.483603161797803,-1.4399053420021184,63.039999999979045
312819.3847,-0.8172877018065512,5.4405263688432814,-4.591431064575318,-1.843025685412693,63.040999999968335
312819.3857,-1.712900054675418,5.0040797373801515,-4.63691384445613,-2.1808203701686484,63.041999999957625
312819.3867,-2.70862167817151,4.511722124662871,-4.678121959934179,-2.4948042910049195,63.042999999946915
312819.3877,-3.841560758956366,3.929832206879849,-4.769227259207342,-2.823659642499278,63.04399999999441
312819.3887,-5.134760884866337,3.233707860953567,-4.954958298598092,-3.198487751042044,63.0449999999837
312819.3897,-6.592862020097539,2.4110723257587705,-5.265885527552678,-3.638827488927808,63.04599999997299
312819.3907,-8.199239026930682,1.4644819220084688,-5.715002238179383,-4.149855434506514,63.04699999996228
312819.3917,-9.914959919638967,0.4123710159845463,-6.295946492321717,-4.721068156155685,63.04799999995157
312819.3927,-11.67974388434633,-0.7114018582999853,-6.983054635648856,-5.326602086669763,63.04899999999907
312819.3937,-13.414917122727381,-1.8595003608681977,-7.733263202189079,-5.927185482975602,63.04999999998836
312819.3947,-15.02817986548252,-2.974399902421057,-8.489699645965617,-6.473555611711071,63.05099999997765
312819.3957,-16.419827916824335,-3.9927415081853534,-9.186640375605341,-6.9110283295513915,63.05199999996694
312819.3967,-17.489932993341828,-4.850367406313162,-9.755382660990776,-7.184790950707417,63.05299999995623
312819.3977,-18.145891205226736,-5.487588058006182,-10.130487931774839,-7.245414168343895,63.05399999994552
312819.3987,-18.30970743881557,-5.854205262120787,-10.25581649780724,-7.054052292160436,63.054999999993015
312819.3997,-17.924399240490825,-5.913835996203627,-10.089791528921845,-6.5868259261752815,63.055999999982305
312819.4007,-16.958975736372935,-5.647144924284818,-9.609401629234279,-5.837955181341411,63.056999999971595
312819.4017,-15.411568499550995,-5.053693942528925,-8.812569719606294,-4.821327550340135,63.057999999960884
312819.4027,-13.310450774734708,-4.152245079294917,-7.7186698411537895,-3.5703315143986485,63.058999999950174
312819.4037,-10.712864188172631,-2.9794961918119185,-6.367148100912003,-2.1359506321331527,63.05999999999767
312819.4047,-7.701760964762124,-1.5873734296534059,-4.814382473229838,-0.5832774674394456,63.06099999998696
312819.4057,-4.380747196730425,-0.039136477982019094,-3.129081346298769,1.0132436614540627,63.06199999997625
312819.4067,-0.8676624887990528,1.5953404936919544,-1.3866566606847832,2.575415943935607,63.06299999996554
312819.4077,2.7126602883359237,3.244677642266561,0.3368988276831105,4.027223034984006,63.06399999995483
312819.4087,6.2358539740011345,4.841023897441031,1.9710581477850246,5.300556898987437,63.06500000000233
312819.4097,9.58509188568771,6.324567964450685,3.4561712357388754,6.34022277447818,63.06599999999162
312819.4107,12.657228660607379,7.647134745256066,4.747747633687453,7.107773965147675,63.06699999998091
312819.4117,15.36755976405649,8.774570969602603,5.81923128699515,7.583842146077906,63.0679999999702
312819.4127,17.65289313181192,9.68774624703733,6.66303727026948,7.768773336923101,63.06899999995949
312819.4137,19.472791738172152,10.382133508123214,7.289790720490405,7.681541555138765,63.06999999994878
312819.4147,20.80901936043745,10.866072282467472,7.725883107140244,7.357075668840756,63.070999999996275
312819.4157,21.66338656585495,11.157945722792487,8.009623100351856,6.8422842336555885,63.071999999985565
312819.4167,22.05433416940789,11.28260521594347,8.186392878194264,6.191183656145674,63.072999999974854
312819.4177,22.012693903434847,11.2674447737744,8.303312763953548,5.459615253898921,63.073999999964144
312819.4187,21.57712149777266,11.138554576195693,8.403958752331118,4.700069036919224,63.074999999953434
312819.4197,20.789701268351184,10.917366561804794,8.523664914778422,3.957113405398156,63.07600000000093
312819.4207,19.69217432210041,10.618146699335508,8.685877381939498,3.2638625463572657,63.07699999999022
312819.4217,18.323150360233196,10.246594561347822,8.899915305636355,2.6398040133979834,63.07799999997951
312819.4227,16.716536022481733,9.799690654846929,9.160348153552674,2.090168792075584,63.0789999999688
312819.4237,14.901264392203446,9.266797834247924,9.448032540466102,1.6068690977937143,63.07999999995809
312819.4247,12.902256319681682,8.6318886002844,9.732682149575808,1.1708708474557061,63.08099999994738
312819.4257,10.742400684695575,7.876648765724191,9.976688043998346,0.7557238792843942,63.08199999999488
312819.4267,8.445222475597406,6.984112102514769,10.139779337914426,0.3318577699461098,63.08299999998417
312819.4277,6.037826782873168,5.942419878187452,10.184028413534966,-0.12882416847867875,63.08399999997346
312819.4287,3.553671753637878,4.748279827294528,10.078669117463104,-0.6485481151760502,63.08499999996275
312819.4297,1.0347377680514558,3.409723143162548,9.80421416267874,-1.2399436844101712,63.08599999995204
312819.4307,-1.467277943845157,1.9478232462254528,9.355427509240993,-1.9033926080284458,63.086999999999534
312819.4317,-3.8910087360080743,0.39714002314900165,8.742821887916698,-2.6257461809501965,63.087999999988824
312819.4327,-6.166841530839286,-1.1952218841671851,7.99249952770942,-3.3805659982989105,63.088999999978114
312819.4337,-8.219697929102855,-2.771914624517477,7.144320908640022,-4.129887431960819,63.089999999967404
312819.4347,-9.973003668218915,-4.268845765661921,6.248555487822509,-4.827350042008411,63.09099999995669
312819.4357,-11.353538556225413,-5.619588978260562,5.361323114889702,-5.422399081693488,63.09199999994598
312819.4367,-12.296749458060178,-6.760325893710351,4.539259955018039,-5.865151277354044,63.09299999999348
312819.4377,-12.752039375533368,-7.6348782887129465,3.833925785805517,-6.1114470916343935,63.09399999998277
312819.4387,-12.687523658688775,-8.199371644939397,3.2865022671097135,-6.127587694713969,63.09499999997206
312819.4397,-12.093772736608646,-8.426096794733413,2.9233108659207696,-5.894280232501977,63.09599999996135
312819.4407,-10.986137312812605,-8.306203467614392,2.7526064558715,-5.409387216454408,63.09699999995064
312819.4417,-9.405369826977772,-7.850961783124626,2.7629851463607866,-4.6891879181783045,63.09799999999814
312819.4427,-7.416404144150946,-7.091455415596062,2.923593921190076,-3.7680006178294088,63.09899999998743
312819.4437,-5.105319872969346,-6.076711187354297,3.1861597114411593,-2.6961707215850503,63.09999999997672
312819.4447,-2.5746827424888017,-4.8704108778224375,3.488682942714366,-1.5365859714209047,63.10099999996601
312819.4457,0.06239776633802684,-3.546458744464969,3.7604819663578803,-0.36002108321700754,63.1019999999553
312819.4467,2.6890323073210514,-2.183780615731071,3.9281453225090517,0.7602734816046421,63.102999999944586
312819.4477,5.1915972454404695,-0.8607978581877168,3.921860873432134,1.7542511217277181,63.103999999992084
312819.4487,7.466492699328141,0.3499541880866801,3.681552860119158,2.56050338127522,63.10499999998137
312819.4497,9.426066727845752,1.3866108647729043,3.162273442711804,3.1309580538205735,63.10599999997066
312819.4507,11.00323262752196,2.201772254362796,2.3383627292496345,3.4344198436372113,63.10699999995995
312819.4517,12.154423238939229,2.765007521478203,1.2060041646463084,3.458641882608505,63.10799999994924
312819.4527,12.860675790494344,3.063891625234182,-0.21605038206892,3.2107552674104305,63.10899999999674
312819.4537,13.12680903877956,3.103532696453511,-1.8876435117673929,2.7160384911096944,63.10999999998603
312819.4547,12.97882539520469,2.904686566708818,-3.750148330946342,2.0151642371130962,63.11099999997532
312819.4557,12.459828184789384,2.500682007746295,-5.730902075416278,1.1602024815751524,63.11199999996461
312819.4567,11.62487327749176,1.933484235000337,-7.748727998858402,0.20977262810750696,63.1129999999539
312819.4577,10.53526289897104,1.2492954896591257,-9.720041874455546,-0.7761873785537841,63.1140000000014
312819.4587,9.252829196282939,0.4941235956630196,-11.564993236043032,-1.7415374220455138,63.11499999999069
312819.4597,7.8347425294005975,-0.29026033555466774,-13.213097391592791,-2.6384581896110624,63.11599999997998
312819.4607,6.329315946915426,-1.0696039833408069,-14.607871283814934,-3.430966706528875,63.116999999969266
312819.4617,4.773169248738666,-1.8194097730708136,-15.710088557782354,-4.097114814712389,63.117999999958556
312819.4627,3.1899740902034757,-2.5259503434387645,-16.49940651689377,-4.629694603717466,63.118999999947846
312819.4637,1.590839646501533,-3.1860158946755246,-16.974276486412226,-5.035424392630887,63.11999999999534
312819.4647,-0.023767750276506308,-3.8054751238385096,-17.15021394690066,-5.332739675462165,63.12099999998463
312819.4657,-1.6608316738661688,-4.396850634762997,-17.05665965869566,-5.54845066491536,63.12199999997392
312819.4667,-3.3307071021685988,-4.976207055360133,-16.732792963940263,-5.7136382634983685,63.12299999996321
312819.4677,-5.042631781936095,-5.55971614287581,-16.222751146078597,-5.859232716445107,63.1239999999525
312819.4687,-6.800342722229331,-6.160291588514544,-15.57075549937219,-6.01174686400654,63.125
312819.4697,-8.598301232279114,-6.784674477687605,-14.816641523184163,-6.189616244908586,63.12599999998929
312819.4707,-10.418967628180958,-7.431299842906325,-13.992238253724262,-6.4005334132872465,63.12699999997858
312819.4717,-12.231460157817548,-8.089190721068293,-13.118945850242634,-6.640060278363164,63.12799999996787
312819.4727,-13.991792318175978,-8.738017157941924,-12.20673107103444,-6.891670420266958,63.12899999995716
312819.4737,-15.644722346204953,-9.349334701149987,-11.254610349989669,-7.128226311504953,63.12999999994645
312819.4747,-17.12708399041971,-9.888892454979164,-10.25253488011757,-7.314748793753695,63.130999999993946
312819.4757,-18.372314874184738,-10.31978723332008,-9.184446914667264,-7.412202675314104,63.131999999983236
312819.4767,-19.315772851194744,-10.606149136427943,-8.03215579442971,-7.3819161771313935,63.132999999972526
312819.4777,-19.90034412806354,-10.716984164141387,-6.779597874233191,-7.190183717357488,63.133999999961816
312819.4787,-20.08180817314798,-10.629777307444204,-5.417004758350334,-6.812578006729981,63.134999999951106
312819.4797,-19.833437481978137,-10.333477255817677,-3.9445128148410173,-6.237521051783766,63.1359999999986
312819.4807,-19.14937403467684,-9.83053979406049,-2.3748027734531068,-5.46873221757097,63.13699999998789
312819.4817,-18.046432741566086,-9.137795722340853,-0.7344555973893521,-4.526278355443907,63.13799999997718
312819.4827,-16.56412497114635,-8.286022039738343,0.9361600562383511,-3.4460857535445313,63.13899999996647
312819.4837,-14.762858696421471,-7.318221097348386,2.5845055267801906,-2.2779231625356604,63.13999999995576
312819.4847,-12.720440183340664,-6.286739044276932,4.148879702414469,-1.0820147621837024,63.14099999994505
312819.4857,-10.527159302305058,-5.249469650475813,5.562560135148392,0.07542299860023793,63.14199999999255
312819.4867,-8.279871387016774,-4.2654811191864095,6.75870539928579,1.1273195037243748,63.14299999998184
312819.4877,-6.075580570106838,-3.390462680903816,7.675566816065263,2.0110929659154975,63.14399999997113
312819.4887,-4.005073941772473,-2.6724086342387188,8.261522415224936,2.673704633401356,63.14499999996042
312819.4897,-2.147148575735925,-2.1479378672838148,8.479458512000962,3.0759545481824353,63.14599999994971
312819.4907,-0.5639153287655906,-1.8395885378259884,8.310083278251355,3.195618661270367,63.146999999997206
312819.4917,0.7024398568204728,-1.7543361069716006,7.753856327777188,3.0291353569709054,63.147999999986496
312819.4927,1.631194500622014,-1.8834671717561142,6.831348772337806,2.5916860181530343,63.148999999975786
312819.4937,2.222844855742063,-2.2038127914100554,5.581996577290812,1.9156659563195753,63.149999999965075
312819.4947,2.49716026424033,-2.680215806639003,4.061361759047867,1.0476941313985604,63.150999999954365
312819.4957,2.489774442186212,-3.268989628961019,2.3371561334399398,0.044447847410123996,63.15200000000186
312819.4967,2.247682133028175,-3.922032564356251,0.48439723365977333,-1.0322813243125295,63.15299999999115
312819.4977,1.8241028942142716,-4.591201062749217,-1.419855518677474,-2.1208424323218535,63.15399999998044
312819.4987,1.2732211831081985,-5.232523277981962,-3.3017018548464794,-3.1647964489922606,63.15499999996973
312819.4997,0.6453092679088597,-5.809853118953374,-5.095069156619176,-4.117330957269766,63.15599999995902
312819.5007,-0.017312388785713336,-6.297622707424988,-6.745437217606833,-4.94461219481751,63.15699999994831
312819.5017,-0.6831181236654159,-6.682442146803025,-8.21230647187228,-5.627774498669714,63.15799999999581
312819.5027,-1.332793554550943,-6.963410798797341,-9.47022525448988,-6.163381930158882,63.1589999999851
312819.5037,-1.9591455820805037,-7.151132521985499,-10.508337178360836,-6.562347083654831,63.15999999997439
312819.5047,-2.565581477147318,-7.265555931592385,-11.32855790738167,-6.847443110306114,63.16099999996368
312819.5057,-3.1633782699964925,-7.3328770386137405,-11.942626747093694,-7.049682068566362,63.16199999995297
312819.5067,-3.768085004359618,-7.38183417041698,-12.368389032424203,-7.203942470564603,63.163000000000466
312819.5077,-4.395485545185345,-7.4397847497027305,-12.625739277675795,-7.344300634802411,63.163999999989755
312819.5087,-5.057590278258354,-7.528974432921653,-12.732685099522431,-7.499547219436263,63.164999999979045
312819.5097,-5.759117429830928,-7.663389216322115,-12.701975016810549,-7.689349547144304,63.165999999968335
312819.5107,-6.494869906389313,-7.846522361671232,-12.53867101720705,-7.921454154075572,63.166999999957625
312819.5117,-7.2483172568841665,-8.070296158168178,-12.238945411095303,-8.190218965639671,63.167999999946915
312819.5127,-7.99156446058231,-8.315262667617661,-11.790251027640453,-8.476630990874542,63.16899999999441
312819.5137,-8.686742740441437,-8.552079113959692,-11.172867234710754,-8.749816590904954,63.1699999999837
312819.5147,-9.288707322309955,-8.74412514200069,-10.362676228530953,-8.96990186492219,63.17099999997299
312819.5157,-9.748788185865825,-8.851013453117535,-9.334889405571264,-9.09194521332408,63.17199999996228
312819.5167,-10.019226410436636,-8.832653755063557,-8.068336019391364,-9.070555998498113,63.17299999995157
312819.5177,-10.057852186264666,-8.653471600966045,-6.549856768819131,-8.864743052584096,63.17399999999907
312819.5187,-9.83252873062773,-8.286364345901559,-4.7783208001001505,-8.44251146884817,63.17499999998836
312819.5197,-9.32490254794437,-7.7159980984952865,-2.767808739662106,-7.784748143262765,63.17599999997765
312819.5207,-8.533063238048964,-6.941110148246965,-0.5495749639135374,-6.888003742563605,63.17699999996694
312819.5217,-7.472819267929344,-5.9755750418409885,1.8274870813286823,-5.765884569034059,63.17799999995623
312819.5227,-6.177429608765354,-4.848110149157952,4.298012512585051,-4.448901792076831,63.17899999994552
312819.5237,-4.695781685279828,-3.600626731391579,6.782945261937927,-2.9827745813123556,63.179999999993015
312819.5247,-3.0891587344944416,-2.2853624979986273,9.193753288163892,-1.425333193802164,63.180999999982305
312819.5257,-1.4268792196945543,-0.9610487308509724,11.437758117155292,0.15769660726434942,63.181999999971595
312819.5267,0.21879655376074594,0.3115421598824599,13.424143585853964,1.6976385351591408,63.182999999960884
312819.5277,1.7780233180580984,1.474263340922463,15.07013407066453,3.128080977696274,63.183999999950174
312819.5287,3.188493622323342,2.476048881645316,16.306805427379338,4.389878075720562,63.18499999999767
312819.5297,4.399849471418112,3.276752765337151,17.084015418273584,5.435474361001623,63.18599999998696
312819.5307,5.376973333477904,3.8500263017063916,17.37401271699389,6.232157569599951,63.18699999997625
312819.5317,6.101857051594658,4.184981347724443,17.173398079408937,6.763949457364591,63.18799999996554
312819.5327,6.573885152440914,4.28650334487224,16.503257236310308,7.031977528819513,63.18899999995483
312819.5337,6.808523398117819,4.174207238057072,15.407448687991884,7.053318426731292,63.19000000000233
312819.5347,6.834558984969172,3.8801582085860202,13.949195282670399,6.858451764892038,63.19099999999162
312819.5357,6.690180203541176,3.4455952370875647,12.206280412254515,6.487596871437216,63.19199999998091
312819.5367,6.418296642242605,2.9169875092570816,10.265273327825339,5.9863111275729555,63.1929999999702
312819.5377,6.0615748870482475,2.341812684380069,8.215291649994736,5.400796941198117,63.19399999995949
312819.5387,5.657691737236971,1.7644664310915772,6.141844691096326,4.773388231934299,63.19499999994878
312819.5397,5.2352844091067965,1.2226925833077702,4.121285440558866,4.1386643621783215,63.195999999996275
312819.5407,4.811007099609111,0.7448649599953635,2.2163336966355454,3.520572080732661,63.196999999985565
312819.5417,4.38799238024434,0.34836127557528146,0.47302437532730807,2.930830986212298,63.197999999974854
312819.5427,3.9558749749450963,0.03915577502175044,-1.0807058185221734,2.3687657217196305,63.198999999964144
312819.5437,3.4923783198718015,-0.18736833018343899,-2.4347396007526654,1.8225617280672075,63.199999999953434
312819.5447,2.966306331199233,-0.34451030898310525,-3.5949168744933653,1.2717954589275988,63.20100000000093
312819.5457,2.341639583092279,-0.45148241072420664,-4.579847357010974,0.6909590171192987,63.20199999999022
312819.5467,1.58232080292198,-0.5301016459054431,-5.416778687896537,0.053596267925377444,63.20299999997951
312819.5477,0.6572406290994053,-0.6013189726794437,-6.136983874338601,-0.6633970617104809,63.2039999999688
312819.5487,-0.4550915473844819,-0.6819773102970696,-6.771168179507025,-1.4757764300442913,63.20499999995809
312819.5497,-1.7626822666186652,-0.7821648898159054,-7.34538156291684,-2.3886944069942495,63.20599999994738
312819.5507,-3.257411637265781,-0.9034677307722639,-7.8778602214963716,-3.394557280153265,63.20699999999488
312819.5517,-4.913916403421047,-1.038330672659266,-8.377116114264664,-4.472250578237782,63.20799999998417
312819.5527,-6.690155130068077,-1.1706197423882443,-8.841457171640386,-5.587855203487488,63.20899999997346
312819.5537,-8.529649566806503,-1.2773513190446923,-9.259966870960383,-6.696825683083805,63.20999999996275
312819.5547,-10.365232466313813,-1.331428307479974,-9.614815425890917,-7.747452988235717,63.21099999995204
312819.5557,-12.123983068057576,-1.30511296828827,-9.884631642604349,-8.685301149211002,63.211999999999534
312819.5567,-13.732911622786975,-1.1738814170171759,-10.048548887298155,-9.458202761653837,63.212999999988824
312819.5577,-15.124875476551468,-0.9202548557403242,-10.090462220182165,-10.021333905118954,63.213999999978114
312819.5587,-16.24417919229133,-0.5371927272036502,-10.003004353874111,-10.34187064106781,63.214999999967404
312819.5597,-17.051333125223785,-0.030664663603755526,-9.790768836949459,-10.40275931271582,63.21599999995669
312819.5607,-17.526516958809474,0.5789112664068224,-9.472377953474828,-10.205208815944284,63.21699999994598
312819.5617,-17.67141030289251,1.2565733862656556,-9.081103701630477,-9.769627853126238,63.21799999999348
312819.5627,-17.509200718378768,1.9541477803091243,-8.663892166023771,-9.134873109057546,63.21899999998277
312819.5637,-17.082746477407657,2.6129529947064727,-8.278800827166817,-8.355831711160016,63.21999999997206
312819.5647,-16.451041201320717,3.167690606608068,-7.991019299425495,-7.499518198913001,63.22099999996135
312819.5657,-15.684284158655531,3.5512154183751865,-7.867790855482405,-6.640007465626064,63.22199999995064
312819.5667,-14.857988626248563,3.699787394425015,-7.97267037940156,-5.852637139017913,63.22299999999814
312819.5677,-14.046649172777425,3.5583520810938056,-8.359632304144752,-5.207984804176162,63.22399999998743
312819.5687,-13.317528713652484,3.0853828144292565,-9.067571712553885,-4.766150346496026,63.22499999997672
312819.5697,-12.72511404095269,2.256848194460404,-10.115719839178334,-4.571849024182222,63.22599999996601
312819.5707,-12.306725559286562,1.068939563758281,-11.50042340426685,-4.650748952131672,63.2269999999553
312819.5717,-12.079659300749325,-0.4607009117455353,-13.193622061495121,-5.007374314408286,63.227999999944586
312819.5727,-12.040097321644883,-2.293380329741171,-15.143210466228988,-5.624753521765814,63.228999999992084
312819.5737,-12.163859889696345,-4.37136890181617,-17.275304957181024,-6.46583323227345,63.22999999998137
312819.5747,-12.408904940849371,-6.6213708954192185,-19.498265304746646,-7.476519718196046,63.23099999997066
312819.5757,-12.719323008731928,-8.959168007838963,-21.708165436753813,-8.590063612840398,63.23199999995995
312819.5767,-13.030443968307573,-11.295048804191262,-23.795278288229643,-9.732386324075454,63.23299999994924
312819.5777,-13.274577706164814,-13.539571893733367,-25.651051045046454,-10.827867341954326,63.23399999999674
312819.5787,-13.386862745150067,-15.609186341185751,-27.17500632653902,-11.805078492120739,63.23499999998603
312819.5797,-13.310698917504327,-17.43125242501352,-28.28101590234347,-12.601966615774046,63.23599999997532
312819.5807,-13.002291541486159,-18.94806707749687,-28.902455001885674,-13.170048192844387,63.23699999996461
312819.5817,-12.43392960686469,-20.119595017421464,-28.995850949768734,-13.477281569565216,63.2379999999539
312819.5827,-11.595749439006152,-20.924729207692447,-28.54277932614046,-13.509414367643398,63.2390000000014
312819.5837,-10.495885223758858,-21.361040917095533,-27.549920501730696,-13.269752199634445,63.23999999999069
312819.5847,-9.159063767072299,-21.443117176704654,-26.047353785182263,-12.77744535809707,63.24099999997998
312819.5857,-7.623847628888867,-21.199708680220052,-24.085319778198812,-12.064528000312192,63.241999999969266
312819.5867,-5.938854070680528,-20.67001238373626,-21.729809321687164,-11.172056226285614,63.242999999958556
312819.5877,-4.158365307030576,-19.89948086623223,-19.05742773990143,-10.145766747306432,63.243999999947846
312819.5887,-2.3377901712630105,-18.935578910539945,-16.150027854538674,-9.03170968189538,63.24499999999534
312819.5897,-0.5294346965805213,-17.82389464718851,-13.089600921701974,-7.87229487722713,63.24599999998463
312819.5907,1.2210097822874872,-16.604959934788035,-9.953862602932416,-6.7031331012268724,63.24699999997392
312819.5917,2.8769420261416307,-15.312048245194497,-6.812877396784972,-5.550957895421939,63.24799999996321
312819.5927,4.412091551169339,-13.970107248464819,-3.7269397936241475,-4.432790919749025,63.2489999999525
312819.5937,5.810465499688238,-12.595858964798632,-0.7457869853487303,-3.3563760221389987,63.25
312819.5947,7.065085813295896,-11.198975391446018,2.0909288119711076,-2.321769178490565,63.25099999998929
312819.5957,8.175733079703798,-9.784124506674416,4.752115346498662,-1.3238469973491651,63.25199999997858
312819.5967,9.14602116351402,-8.353591805709724,7.212978919927633,-0.3553983601059933,63.25299999996787
312819.5977,9.980198774974482,-6.910124948530147,9.452415490926878,0.5895980329179109,63.25399999995716
312819.5987,10.680102974323146,-5.459629342374244,11.450471774590563,1.5129266153179184,63.25499999994645
312819.5997,11.2426721611196,-4.013362368295754,13.186275568984222,2.4097093827097993,63.255999999993946
312819.6007,11.6583640039254,-2.5893313204189714,14.636771530406724,3.266925288081464,63.256999999983236
312819.6017,11.910723260061692,-1.2126890110049124,15.776497530239705,4.063095383396811,63.257999999972526
312819.6027,11.977215731104225,0.08496772802532127,16.57850818644098,4.769226978530591,63.258999999961816
312819.6037,11.831300878795451,1.2673691533897047,17.01640968184061,5.350970792128168,63.259999999951106
312819.6047,11.445571724842292,2.296265132961367,17.067328592843136,5.7718082689602905,63.2609999999986
312819.6057,10.795661581545886,3.134784179714021,16.71551219767174,5.9969660711012915,63.26199999998789
312819.6067,9.864516567892917,3.7511224570991675,15.956162141243643,5.997663783653067,63.26299999997718
312819.6077,8.646571682243332,4.122178251575571,14.799048041914544,5.755248838190043,63.26399999996647
312819.6087,7.151353492291523,4.236738375733263,13.271439285690482,5.264765443033782,63.26499999995576
312819.6097,5.406066722568413,4.097854239445015,11.419933829104899,4.5375433621587655,63.26599999994505
312819.6107,3.4568027287332153,3.72411424149847,9.310849357212343,3.602474520398043,63.26699999999255
312819.6117,1.3681279060976925,3.149619234073189,7.028966973820957,2.5057631069563353,63.26799999998184
312819.6127,-0.7790416826094071,2.4225894784953574,4.67456913115492,1.3090769570119811,63.26899999997113
312819.6137,-2.891210881022761,1.6026629074010699,2.358877282192632,0.08618083219296105,63.26999999996042
312819.6147,-4.867491982656745,0.757072752112455,0.19815486270230043,-1.0817190787807043,63.27099999994971
312819.6157,-6.605834734252073,-0.04399497286423948,-1.6931181091878431,-2.11156016117945,63.271999999997206
312819.6167,-8.00981560209962,-0.7324781931089918,-3.2094854239459347,-2.92448027829677,63.272999999986496
312819.6177,-8.995433302567891,-1.247513912908353,-4.2615942254921455,-3.4518322037777516,63.273999999975786
312819.6187,-9.497338929360248,-1.5400668690018193,-4.782527016884183,-3.6406319209768494,63.274999999965075
312819.6197,-9.473962948261402,-1.5766996619437783,-4.732842235981538,-3.4579567191211136,63.275999999954365
312819.6207,-8.911085310913379,-1.3421443162568956,-4.1038729447033315,-2.8938941701547107,63.27700000000186
312819.6217,-7.823521586656768,-0.8404396994223384,-2.918969369650493,-1.9627660805976792,63.27799999999115
312819.6227,-6.254755832570996,-0.09452641463564636,-1.232537983185653,-0.7025010176805363,63.27899999998044
312819.6237,-4.274525399870914,0.8556713121952827,0.8730874957341147,0.8278089184031265,63.27999999996973
312819.6247,-1.9745378565269416,1.9565116326376846,3.292725999294294,2.551971918544658,63.28099999995902
312819.6257,0.53734055233731,3.1449633680157287,5.904998478082187,4.382043756125152,63.28199999994831
312819.6267,3.1439567612850126,4.353617010501441,8.58003374393403,6.224510228923163,63.28299999999581
312819.6277,5.726248605519545,5.515940178130682,11.187631057725696,7.986786370399096,63.2839999999851
312819.6287,8.170537936988067,6.571321359660484,13.605245821702892,9.583491532763901,63.28499999997439
312819.6297,10.375166048293178,7.469470185589631,15.72518673055793,10.941986374730844,63.28599999996368
312819.6307,12.255967137487767,8.173806680913188,17.46048848424894,12.006731365805408,63.28699999995297
312819.6317,13.750188979639136,8.663569714216148,18.749046485379047,12.742139429952456,63.288000000000466
312819.6327,14.818616986933424,8.934496702358908,19.555757298205585,13.133736864160603,63.288999999989755
312819.6337,15.445824274406478,8.99806084700007,19.872586245173924,13.187603096894508,63.289999999979045
312819.6347,15.63864027359098,8.879385925547352,19.716664731953514,12.928216269581556,63.290999999968335
312819.6357,15.423087691907853,8.614079195687914,19.12668784853361,12.394973196332334,63.291999999957625
312819.6367,14.840167367556031,8.244318883977503,18.158021985326187,11.637765665133243,63.292999999946915
312819.6377,13.940960736042289,7.814595013833053,16.877029971432936,10.712069761348728,63.29399999999441
312819.6387,12.781562036292204,7.3675252582477455,15.355168981798071,9.674034190995917,63.2949999999837
312819.6397,11.418343569280074,6.940149167953092,13.66341042917069,8.576035160996547,63.29599999997299
312819.6407,9.90399883582714,6.561046617235935,11.867472718258307,7.463101587148195,63.29699999996228
312819.6417,8.284706649924658,6.248535517138644,10.024253597127966,6.370512009255204,63.29799999995157
312819.6427,6.598625018034106,6.0100888921682465,8.179709788822949,5.322734106089533,63.29899999999907
312819.6437,4.875770555254253,5.842983777253666,6.368271831196263,4.333732350278583,63.29999999998836
312819.6447,3.139183165892304,5.736066781752682,4.613717715622949,3.408523779299085,63.30099999997765
312819.6457,1.407132614077231,5.672406302221897,2.9312764440950594,2.5457307235299793,63.30199999996694
312819.6467,-0.3039918977315655,5.632510713247224,1.3306071786351854,1.740775807968553,63.30299999995623
312819.6477,-1.976544064331136,5.597734512298981,-0.1807863827951746,0.9892990490086356,63.30399999994552
312819.6487,-3.5886983238787606,5.553476138117367,-1.5941850184214108,0.2903560169277618,63.304999999993015
312819.6497,-5.112185005891676,5.49179394308232,-2.8967918855946237,-0.35101802665825727,63.305999999982305
312819.6507,-6.511054290412921,5.413128412873255,-4.06978193577157,-0.9222229319765571,63.306999999971595
312819.6517,-7.741728670038857,5.326913134918161,-5.087559395326772,-1.4027249216092754,63.307999999960884
312819.6527,-8.7544614617072,5.2509748552614885,-5.918381528738189,-1.7650079933456626,63.308999999950174
312819.6537,-9.496160815345302,5.209752471095089,-6.526350452567661,-1.976802395484454,63.30999999999767
312819.6547,-9.914380723937347,5.2314929837748245,-6.874616202778317,-2.0044023211091706,63.31099999998696
312819.6557,-9.96213900294032,5.344696330000355,-6.929489813809708,-1.8167569593105055,63.31199999997625
312819.6567,-9.603111837840812,5.574168991463826,-6.665049722127407,-1.3899210491393992,63.31299999996554
312819.6577,-8.81668709017108,5.937099216444631,-6.067750401546861,-0.7113934636636453,63.31399999995483
312819.6587,-7.60234173767514,6.439578832501668,-5.140516789130469,0.21613846003649048,63.31500000000233
312819.6597,-5.982845293323999,7.073966232936323,-3.9058349666465966,1.3720932815493723,63.31599999999162
312819.6607,-4.0058782493101,7.81741460199612,-2.407426781169638,2.716689375172469,63.31699999998091
312819.6617,-1.7437849513097825,8.631785184960759,-0.7102167172111573,4.191277444467542,63.3179999999702
312819.6627,0.7086580617657274,9.465037145076744,1.1015478284646525,5.720401876173781,63.31899999995949
312819.6637,3.2383993806456175,10.254045439811069,2.9279910903200013,7.215519445477234,63.31999999994878
312819.6647,5.7199595888511485,10.928659609691532,4.658914353270219,8.580144650748517,63.320999999996275
312819.6657,8.022571781250221,11.416692782619592,6.180351127682727,9.716049560522952,63.321999999985565
312819.6667,10.018092954648923,11.649433604497395,7.381883968532986,10.530036268130898,63.322999999974854
312819.6677,11.58908181280638,11.567213766928868,8.164150434580634,10.940732732944271,63.323999999964144
312819.6687,12.636410220932678,11.124546442579994,8.445932318612144,10.884844840459817,63.324999999953434
312819.6697,13.085803732469625,10.294378357252821,8.170243568531049,10.322331191679782,63.32600000000093
312819.6707,12.892789091789123,9.071068275037227,7.308906725176182,9.240049811683791,63.32699999999022
312819.6717,12.045656054309138,7.471811136917179,5.865228662110811,7.653550375799286,63.32799999997951
312819.6727,10.566205479007792,5.5363602741698505,3.874542948545763,5.606840444244626,63.3289999999688
312819.6737,8.508240326302507,3.3250477380497667,1.4025639181717595,3.17012541036999,63.32999999995809
312819.6747,5.953943932285304,0.9152511502520452,-1.458319847927933,0.4356936614256391,63.33099999994738
312819.6757,3.0084634508518167,-1.6034092300823866,-4.594514241801572,-2.487725006360579,63.33199999999488
312819.6767,-0.20684024261361905,-4.134749922015392,-7.8780091106289785,-5.481672798247467,63.33299999998417
312819.6777,-3.5619146126076457,-6.58211310569582,-11.173944630525622,-8.42520864460826,63.33399999997346
312819.6787,-6.925699622632234,-8.854366942271497,-14.34835803442918,-11.202107137423408,63.33499999996275
312819.6797,-10.173371695007345,-10.871333739015213,-17.275515619642167,-13.70745007134571,63.33599999995204
312819.6807,-13.1926071407713,-12.568220686107047,-19.844289764173872,-15.853114693672966,63.336999999999534
312819.6817,-15.888434436974299,-13.898724338980854,-21.963142965624947,-17.5717720917838,63.337999999988824
312819.6827,-18.186391001631215,-14.836605225768663,-23.563420341132232,-18.819151369994614,63.338999999978114
312819.6837,-20.033868362532907,-15.375670842694468,-24.60081478991127,-19.57448661946326,63.339999999967404
312819.6847,-21.399703264310034,-15.528250246971005,-25.055039211875197,-19.839228676041117,63.34099999995669
312819.6857,-22.272234385287156,-15.322377642822731,-24.92790133363508,-19.63425658999921,63.34199999994598
312819.6867,-22.656179320563734,-14.798013090023098,-24.24011340208735,-18.99595020361813,63.34299999999348
312819.6877,-22.568781532614487,-14.002705414642202,-23.027268394125805,-17.971573547625876,63.34399999998277
312819.6887,-22.035723340849255,-12.987138592347552,-21.33546737433794,-16.614461039636478,63.34499999997206
312819.6897,-21.08729488365611,-11.800995348615432,-19.21708478738958,-14.9794913698415,63.34599999996135
312819.6907,-19.755251764256496,-10.48952181010339,-16.72711045499281,-13.119279020076783,63.34699999995064
312819.6917,-18.070692305587148,-9.09109021987179,-13.920414519403975,-11.08141679030765,63.34799999999814
312819.6927,-16.063149945322824,-7.635942055268308,-10.850154633263351,-8.906974756653039,63.34899999998743
312819.6937,-13.76094159481325,-6.146163103250156,-7.56739686704449,-6.630315033006913,63.34999999997672
312819.6947,-11.192654973567736,-4.6368084143462704,-4.121868700472828,-4.2801325312009855,63.35099999996601
312819.6957,-8.38951352240447,-3.117972041279862,-0.5636202142311187,-1.8814948079509788,63.3519999999553
312819.6967,-5.388241657981586,-1.597496417557365,3.054746764733313,0.5414570371919759,63.352999999944586
312819.6977,-2.233978166914292,-0.08394915257607075,6.675699872064816,2.9625583341479027,63.353999999992084
312819.6987,1.0172403332567606,1.410532403320152,10.234697302100862,5.350862764316999,63.35499999998137
312819.6997,4.296877421799278,2.8679135355239187,13.658838942430355,7.668498760672996,63.35599999997066
312819.7007,7.523551020857332,4.262780446732255,16.86660910899793,9.869498475435654,63.35699999995995
312819.7017,10.604198041212255,5.561942482496802,19.768961112119122,11.899853526779857,63.35799999994924
312819.7027,13.43685186160058,6.725239415081406,22.271850724636668,13.698918862167474,63.35899999999674
312819.7037,15.914965978075635,7.707543777928208,24.2801649393972,15.202137615410507,63.35999999998603
312819.7047,17.933047943749333,8.461816185395996,25.702830475187753,16.344910837203052,63.36099999997532
312819.7057,19.393215259036346,8.94295198093271,26.45873996172259,17.067301642184997,63.36199999996461
312819.7067,20.212164715404867,9.112062638709181,26.4830179486973,17.319157472708806,63.3629999999539
312819.7077,20.327971422628867,8.940774894271838,25.73307634163418,17.0651679175267,63.3640000000014
312819.7087,19.7061117226828,8.415111004753399,24.19388795614877,16.28935607187405,63.36499999999069
312819.7097,18.344138713596603,7.538537215454126,21.88194100979701,14.998531424540495,63.36599999997998
312819.7107,16.27452806515445,6.333832547245846,18.847424583365218,13.224309482992199,63.366999999969266
312819.7117,13.565347865785768,4.843530447404834,15.174328212084419,11.02342091435032,63.367999999958556
312819.7127,10.318577511947588,3.128812201765656,10.978306083036955,8.47618000624571,63.368999999947846
312819.7137,6.66609183180166,1.2668712622489333,6.402342633381624,5.683144914494216,63.36999999999534
312819.7147,2.763520445796884,-0.6530916117139276,1.6104444687068264,2.7601650424774644,63.37099999998463
312819.7157,-1.2176288093827057,-2.5349547591657218,-3.2202441104895545,-0.16784153475676444,63.37199999997392
312819.7167,-5.0990460262694315,-4.281453461205122,-7.908364313285156,-2.9739195548434965,63.37299999996321
312819.7177,-8.705255762200922,-5.800191764028381,-12.277672104167962,-5.536378573037608,63.3739999999525
312819.7187,-11.873126042766051,-7.009405094935382,-16.166100276146665,-7.7457980471819035,63.375
312819.7197,-14.46057160748633,-7.843008898003009,-19.433898190115986,-9.51119020686886,63.37599999998929
312819.7207,-16.353840315305636,-8.254529381761236,-21.97026922585477,-10.764846794119467,63.37699999997858
312819.7217,-17.472889970956334,-8.219610058769854,-23.69805154751835,-11.465509744208525,63.37799999996787
312819.7227,-17.774521481083806,-7.736912850747885,-24.57615215466632,-11.599651769927474,63.37899999995716
312819.7237,-17.253118692987055,-6.827373320746953,-24.59963219024923,-11.180816917123874,63.37999999994645
312819.7247,-15.939038761442994,-5.531912803617744,-23.797535747131292,-10.247138068213609,63.380999999993946
312819.7257,-13.894882021202374,-3.907842380772254,-22.228737075667805,-8.85730245707293,63.381999999983236
312819.7267,-11.210030677064623,-2.0243024360200046,-19.976235469433657,-7.085363179647705,63.382999999972526
312819.7277,-7.993967228922475,0.04284311851913399,-17.140439320486188,-5.0148827600845305,63.383999999961816
312819.7287,-4.368956291021488,2.2162037381270485,-13.832041145628272,-2.732936170747112,63.384999999951106
312819.7297,-0.46269192688168626,4.421704051586958,-10.165089097608048,-0.3244919597598007,63.3859999999986
312819.7307,3.5985234266734083,6.592674181552665,-6.250808369331243,2.1323671759570417,63.38699999998789
312819.7317,7.695588010134046,8.672878473816958,-2.1926241087610587,4.570022712074145,63.38799999997718
312819.7327,11.721043014722907,10.61828644399502,1.917303169817769,6.933467611079035,63.38899999996647
312819.7337,15.581945869813522,12.397519803523204,5.99988371921251,9.180943236469682,63.38999999995576
312819.7347,19.20113622382683,13.9910426422473,9.989273100301528,11.28314067674818,63.39099999994505
312819.7357,22.517015231871362,15.389285034103828,13.83160550785988,13.221183894407135,63.39199999999255
312819.7367,25.482097260604135,16.5899913989609,17.482614543052378,14.983729107148925,63.39299999998184
312819.7377,28.06069802906241,17.59515408505014,20.904569957742005,16.56359482732292,63.39399999997113
312819.7387,30.22618497292607,18.407923268503495,24.0630111455822,17.954372441238025,63.39499999996042
312819.7397,31.958229207258526,19.02987372458531,26.923758461699215,19.14745502091176,63.39599999994971
312819.7407,33.24046379056484,19.45895877772098,29.450632728101056,20.12986394223881,63.396999999997206
312819.7417,34.05887490151049,19.688397237629967,31.60421753697429,20.883155159812315,63.397999999986496
312819.7427,34.401140252878875,19.706629260445446,33.34186866614648,21.38355994767991,63.398999999975786
312819.7437,34.256995219875684,19.49835325577474,34.6190239141926,21.60337177079354,63.399999999965075
312819.7447,33.61956648520262,19.046531001576,35.391710760823116,21.513446516003874,63.400999999954365
312819.7457,32.48748081612094,18.33513494259631,35.62000465212218,21.086552510633165,63.40200000000186
312819.7467,30.8674472144004,17.352321961545655,35.27207234726728,20.301203137566883,63.40299999999115
312819.7477,28.776935989798258,16.093661089612045,34.328354860419964,19.145539229339985,63.40399999998044
312819.7487,26.246546506858287,14.565024726995134,32.78541136787912,17.620807781700943,63.40499999996973
312819.7497,23.321670146066197,12.784776124175481,30.658962559058057,15.744010338781026,63.40599999995902
312819.7507,20.063115225650392,10.784948143694496,27.985737742732763,13.549366359302503,63.40699999994831
312819.7517,16.54646030823092,8.611203744459218,24.823838120645025,11.088347110686495,63.40799999999581
312819.7527,12.86003136302867,6.321487900191748,21.25146829944544,8.428173404009247,63.4089999999851
312819.7537,9.10154342503915,3.9834120178908576,17.364045440351298,5.648822197380674,63.40999999997439
312819.7547,5.3735936438279746,1.6705422986284744,13.269854758933096,2.838737688310922,63.41099999996368
312819.7557,1.7783246288823793,-0.5421201928440663,9.084565460275655,0.08957691504891957,63.41199999995297
312819.7567,-1.5883192588783037,-2.5830895060927275,4.925038038511296,-2.5095754893134745,63.413000000000466
312819.7577,-4.642255867745807,-4.389341302337695,0.9029303733005601,-4.87802464158515,63.413999999989755
312819.7587,-7.316345542665567,-5.910808213937565,-2.8813616470950576,-6.948799350687601,63.414999999979045
312819.7597,-9.564416494069537,-7.114005412409647,-6.34391629888705,-8.673019984254783,63.415999999968335
312819.7607,-11.363844280011449,-7.984437641066738,-9.421210821167021,-10.02289738128679,63.416999999957625
312819.7617,-12.716415297399106,-8.527543547566546,-12.072433874263243,-10.993079466367169,63.417999999946915
312819.7627,-13.647354469535616,-8.768062738193311,-14.280007636115934,-11.600210337882688,63.41899999999441
312819.7637,-14.202562801251041,-8.747853401706362,-16.048306093794842,-11.880729287481042,63.4199999999837
312819.7647,-14.444275222564437,-8.522330109567422,-17.40072242888386,-11.887098937627021,63.42099999997299
312819.7657,-14.445497097384107,-8.155818947228825,-18.37539039979842,-11.682796929960269,63.42199999996228
312819.7667,-14.283694325474915,-7.716228196141375,-19.019987532022604,-11.336520332484339,63.42299999995157
312819.7677,-14.034285403983963,-7.269497560495042,-19.386129759771453,-10.916124999961319,63.42399999999907
312819.7687,-13.764506503866112,-6.874311030869321,-19.523899893595335,-10.482846321553826,63.42499999998836
312819.7697,-13.528189778107828,-6.577535566480107,-19.477032637058034,-10.086320597806006,63.42599999997765
312819.7707,-13.361913142674716,-6.410781820775402,-19.27920864075397,-9.760850114670264,63.42699999996694
312819.7717,-13.282854023771307,-6.388380216059189,-18.951795985385214,-9.523236952928885,63.42799999995623
312819.7727,-13.28852170890785,-6.506935426628506,-18.50323053703141,-9.372361859357076,63.42899999994552
312819.7737,-13.35836783032046,-6.746477026202787,-17.930061060949082,-9.29051926163817,63.429999999993015
312819.7747,-13.457098775938457,-7.073077425193158,-17.21951692137427,-9.24635350268315,63.430999999982305
312819.7757,-13.539354265059552,-7.442674141380922,-16.35330204384037,-9.199090473558245,63.431999999971595
312819.7767,-13.55528828742726,-7.805724597471744,-15.31219369260332,-9.103637478979179,63.432999999960884
312819.7777,-13.45650448009952,-8.112248290105812,-14.080940871188721,-8.916043988094128,63.433999999950174
312819.7787,-13.201766035526466,-8.3167801900182,-12.652923161050895,-8.598784562883974,63.43499999999767
312819.7797,-12.761923642533551,-8.382773404319806,-11.03405013292038,-8.12534567117709,63.43599999998696
312819.7807,-12.12358168369965,-8.286046910992354,-9.24545248140001,-7.4836682409145325,63.43699999997625
312819.7817,-11.291145726931026,-8.016969825962171,-7.324632088757062,-6.678110855879341,63.43799999996554
312819.7827,-10.287051566123333,-7.581197819768366,-5.324888248482657,-5.7297434497919335,63.43899999995483
312819.7837,-9.15015264031928,-6.998917885290679,-3.3130068487020834,-4.6749441702843875,63.44000000000233
312819.7847,-7.932421634946445,-6.302701056419197,-1.365372039677722,-3.5624369933211497,63.44099999999162
312819.7857,-6.694286206427231,-5.534195067622424,0.43718098442971426,-2.4490587333485276,63.44199999998091
312819.7867,-5.499052224570956,-4.739997639454586,2.0153235022500793,-1.3946667501745584,63.4429999999702
312819.7877,-4.406957772067616,-3.9671257532899538,3.2974644636808548,-0.4566811234840508,63.44399999995949
312819.7887,-3.4694386345531596,-3.258529976479741,4.225681431955116,0.3152104996972916,63.44499999994878
312819.7897,-2.72416745023071,-2.6490926727234734,4.760794634845452,0.8836739493270938,63.445999999996275
312819.7907,-2.1913557585449075,-2.1624961226840274,4.886098079171612,1.2272302011296354,63.446999999985565
312819.7917,-1.871687831912222,-1.8092566582722733,4.609379071685545,1.3423013776219566,63.447999999974854
312819.7927,-1.7460989132467513,-1.5861029261446737,3.963010663485339,1.2436058538052863,63.448999999964144
312819.7937,-1.7774333090903494,-1.4767420597810255,3.0020760048288557,0.9628666061786837,63.449999999953434
312819.7947,-1.913836728693095,-1.4539200892299717,1.800662795667068,0.5459591044045855,63.45100000000093
312819.7957,-2.093569731308225,-1.4825558073663077,0.44663290231271124,0.04877428583937248,63.45199999999022
312819.7967,-2.2507912825672283,-1.523622906128431,-0.9646890843500451,-0.4678059218082198,63.45299999997951
312819.7977,-2.32176652736017,-1.538383575893422,-2.3373672038616906,-0.9433401428409854,63.4539999999688
312819.7987,-2.2509101494753914,-1.492544754649289,-3.581657387051379,-1.3231497138661497,63.45499999995809
312819.7997,-1.9960902982003983,-1.3599187513838682,-4.620182571449697,-1.5630290985825477,63.45599999994738
312819.8007,-1.5326868065137458,-1.125221815271656,-5.392961438808371,-1.632904828400933,63.45699999999488
312819.8017,-0.856014799152661,-0.785732114588635,-5.860882113856164,-1.519108129892059,63.45799999998417
312819.8027,0.018120388928580883,-0.3516437567909875,-6.007358832919684,-1.2250631696876506,63.45899999997346
312819.8037,1.0547935831161501,0.15491549248671263,-5.838079205522501,-0.7703480591689278,63.45999999996275
312819.8047,2.2031288778877833,0.7021011983904519,-5.378925977932093,-0.1882442224399205,63.46099999995204
312819.8057,3.4009696695646023,1.2515787388283905,-4.672323344170837,0.4779640300318893,63.461999999999534
312819.8067,4.580608860726795,1.762432962917507,-3.772398087686417,1.1795581115776075,63.462999999988824
312819.8077,5.67503760402332,2.1953661244273635,-2.739447005993873,1.8673586849634607,63.463999999978114
312819.8087,6.62412182724183,2.5167599229864965,-1.6342548377431492,2.4966051832650074,63.464999999967404
312819.8097,7.380123122795145,2.7021904708191915,-0.5128066647982702,3.03125613735102,63.46599999995669
312819.8107,7.9120436588504335,2.7390389988131387,0.5781139601170511,3.447286761109605,63.46699999994598
312819.8117,8.208387458979274,2.627930820248109,1.6040494847629692,3.7346636042331043,63.46799999999348
312819.8127,8.27808179264449,2.382851628768881,2.544460034495589,3.897810859484062,63.46899999998277
312819.8137,8.149477877507772,2.029922077375749,3.3926862200636085,3.954535704585757,63.46999999997206
312819.8147,7.867532667645218,1.604945675090539,4.1543535014262485,3.9335356831005326,63.47099999996135
312819.8157,7.489445587651676,1.1499680013053006,4.844445737113726,3.8707541155688605,63.47199999995064
312819.8167,7.07916913422662,0.7091848022440099,5.483407973668792,3.8049656625948423,63.47299999999814
312819.8177,6.701316443488359,0.324602727266451,6.092733212041936,3.7730518780903632,63.47399999998743
312819.8187,6.415042376524516,0.03188261417701587,6.690535658972082,3.805458149562852,63.47499999997672
312819.8197,6.268472542201047,-0.14322135249129936,7.287609357329889,3.9223056671445597,63.47599999996601
312819.8207,6.2941975194019095,-0.1874710481295832,7.884416742969332,4.130566744841616,63.4769999999553
312819.8217,6.506243277279859,-0.10154008775379281,8.46935229810881,4.422605424223001,63.477999999944586
312819.8227,6.898784087425662,0.09994695399974707,9.0184922310186,4.776248405757089,63.478999999992084
312819.8237,7.446695423388104,0.38974052439286666,9.496885618866589,5.1563976045228666,63.47999999998137
312819.8247,8.107868054908883,0.7305309114858025,9.861281390691033,5.518040334293962,63.48099999997066
312819.8257,8.827037987195162,1.0785027664077116,10.064035092826025,5.810371774087984,63.48199999995995
312819.8267,9.540746212138897,1.3875320055993277,10.057814653086654,5.981631078404168,63.48299999994924
312819.8277,10.182940911436923,1.6136139756637462,9.800637816987987,5.984178592575363,63.48399999999674
312819.8287,10.690682290237408,1.7190887672789417,9.260734198600629,5.779314555488487,63.48499999998603
312819.8297,11.009411242477539,1.6762497110342218,8.420735905414869,5.341362189642473,63.48599999997532
312819.8307,11.097296852000932,1.4699824224026747,7.280761322479589,4.660608037020928,63.48699999996461
312819.8317,10.928278389339146,1.0991782176628546,5.860060792036426,3.744802919370036,63.4879999999539
312819.8327,10.493554437218625,0.576787714169139,4.197030191457862,2.619067060450306,63.4890000000014
312819.8337,9.801430997740203,-0.07148419173491284,2.347555109870481,1.3241988223702623,63.48999999999069
312819.8347,8.87560571721062,-0.8097055127558441,0.38180886681906545,-0.08645728636879658,63.49099999997998
312819.8357,7.752120043715134,-1.595208435834806,-1.6202239210179197,-1.5512866841828332,63.491999999969266
312819.8367,6.475339730215833,-2.3826907451939743,-3.5741048113151677,-3.0054164559870844,63.492999999958556
312819.8377,5.093413873170826,-3.128513064063046,-5.3967036399639,-4.385982902741017,63.493999999947846
312819.8387,3.653704901837055,-3.7947586473533446,-7.011852633879979,-5.637151027814273,63.49499999999534
312819.8397,2.1986727445830336,-4.352646960195212,-8.355393828441384,-6.714407873921477,63.49599999998463
312819.8407,0.7626371723867379,-4.784957811732887,-9.379183484806644,-7.587724637406062,63.49699999997392
312819.8417,-0.6302604884219585,-5.087222878368788,-10.053721590070722,-8.243295448281135,63.49799999996321
312819.8427,-1.966710609579306,-5.267566090983277,-10.369210238477356,-8.683702364439107,63.4989999999525
312819.8437,-3.2434719062234905,-5.345211163536653,-10.334997990808006,-8.926512388486461,63.5
312819.8447,-4.465316544409332,-5.347809874988322,-9.977522756232574,-9.001467637607877,63.50099999998929
312819.8457,-5.641951741881401,-5.30786509354649,-9.337007767344343,-8.946568752579278,63.50199999997858
312819.8467,-6.784300344109464,-5.258615946237306,-8.463279688647184,-8.803460438472896,63.50299999996787
312819.8477,-7.900596877591226,-5.229809654281442,-7.411153525481039,-8.61259591514426,63.50399999995716
312819.8487,-8.992781353324153,-5.2437996326732055,-6.2358584749546875,-8.40867732202132,63.50499999994645
312819.8497,-10.053647683724297,-5.312380895495766,-4.988959573605138,-8.216839797383905,63.505999999993946
312819.8507,-11.065129236023798,-5.43470431480926,-3.715164288278544,-8.049970974579573,63.506999999983236
312819.8517,-11.997987984313918,-5.596507563691063,-2.450298108643656,-7.907442549651524,63.507999999972526
312819.8527,-12.813027398801102,-5.770772692598678,-1.220599756132397,-7.775387770415491,63.508999999961816
312819.8537,-13.463787199725779,-5.919780656950932,-0.0433387158020692,-7.628502290712543,63.509999999951106
312819.8547,-13.900516661250132,-5.998395288139273,1.0713892198841983,-7.433191269904453,63.5109999999986
312819.8557,-14.075078615060159,-5.958286560069223,2.1179635607507232,-7.15174813643555,63.51199999998789
312819.8567,-13.946323484876133,-5.752707461245237,3.0920140898823716,-6.747143659869915,63.51299999997718
312819.8577,-13.485403403827853,-5.34137963918414,3.987105989060925,-6.187938474713587,63.51399999996647
312819.8587,-12.680478387611632,-4.6950260403989965,4.79178548290445,-5.452814532063108,63.51499999995576
312819.8597,-11.540302383444137,-3.7991157758762593,5.487401133333299,-4.534253019950448,63.51599999994505
312819.8607,-10.096264279044972,-2.6564549368607415,6.04703506656629,-3.4409651409718633,63.51699999999255
312819.8617,-8.402590095630316,-1.2883606333755273,6.435759825965175,-2.198800251759319,63.51799999998184
312819.8627,-6.534575716512501,0.2657156642575474,6.612292029470537,-0.8500018944887907,63.51899999997113
312819.8637,-4.584899491583704,1.9501075468776305,6.53195816919919,0.5491579246606213,63.51999999996042
312819.8647,-2.6582439662472486,3.696246487394837,6.150736669225114,1.9321777350114513,63.52099999994971
312819.8657,-0.8646186638899527,5.427091130963915,5.430009422507372,3.227229387572985,63.521999999997206
312819.8667,0.6880944076848388,7.0622945398122035,4.341559346825217,4.362725026295507,63.522999999986496
312819.8677,1.9017668099197944,8.523664910229591,2.872298683228171,5.273040296296871,63.523999999975786
312819.8687,2.6951857733312337,9.74045114510078,1.02821211140119,5.903866103388538,63.524999999965075
312819.8697,3.0101447673690886,10.654004558121356,-1.1629494622030818,6.21669225669322,63.525999999954365
312819.8707,2.8159386821190435,11.221429853888601,-3.650588346461101,6.192005312749013,63.52700000000186
312819.8717,2.1118720021954123,11.417936265559362,-6.36201681782238,5.830902424030164,63.52799999999115
312819.8727,0.9275572015660516,11.237723765297826,-9.205108819246107,5.15497152757176,63.52899999998044
312819.8737,-0.6790294080194206,10.693377479865466,-12.07272698318208,4.204451463571384,63.52999999996973
312819.8747,-2.6255735216453426,9.81388237470759,-14.848634391175322,3.0348477762401687,63.53099999995902
312819.8757,-4.811190240306474,8.641496407597034,-17.41445254861425,1.7123252647220288,63.53199999994831
312819.8767,-7.123444580893836,7.227821480798031,-19.65711685834044,0.30831267020202113,63.53299999999581
312819.8777,-9.446033064390793,5.629477917523648,-21.476219640048843,-1.1061729442084625,63.5339999999851
312819.8787,-11.666484977797316,3.9038135887319623,-22.790625068228177,-2.4659515879412965,63.53499999997439
312819.8797,-13.68325110222188,2.105061030416435,-23.543791605127275,-3.7163534362054436,63.53599999996368
312819.8807,-15.411614250013175,0.2812970219694654,-23.707341453607235,-4.816714639954062,63.53699999995297
312819.8817,-16.787973201254765,-1.527534672692852,-23.28256403803683,-5.742389034093316,63.538000000000466
312819.8827,-17.772208131166412,-3.2903957180919523,-22.299718120307915,-6.485116562940112,63.538999999989755
312819.8837,-18.34801626382453,-4.984711206246239,-20.815188519881744,-7.051751865648234,63.539999999979045
312819.8847,-18.521293967376877,-6.5948354407810355,-18.906740805450756,-7.461518118504205,63.540999999968335
312819.8857,-18.316817999280417,-8.109665727388284,-16.667283352987486,-7.742096060099271,63.541999999957625
312819.8867,-17.773627501962558,-9.519736657636436,-14.197675387899599,-7.924971931580133,63.542999999946915
312819.8877,-16.939615829091235,-10.814184453251926,-11.599200055604172,-8.040539700742862,63.54399999999441
312819.8887,-15.865897661047002,-11.977986929796046,-8.966345776798736,-8.113475402598326,63.5449999999837
312819.8897,-14.601517486958574,-12.989857759593392,-6.3805049918500885,-8.158872545677522,63.54599999997299
312819.8907,-13.189011178493177,-13.821106487358618,-3.9051101963915564,-8.179550167176226,63.54699999996228
312819.8917,-11.661229176804865,-14.435674766739094,-1.582591368648579,-8.164826890021784,63.54799999995157
312819.8927,-10.039688573252809,-14.791434550611314,0.5666307330129848,-8.090906863597718,63.54899999999907
312819.8937,-8.33455650610182,-14.842697925835186,2.5430884778377543,-7.922861239780387,63.54999999998836
312819.8947,-6.546195405997441,-14.543754583476343,4.365309547884038,-7.618027766696752,63.55099999997765
312819.8957,-4.66803881367153,-13.85313506220939,6.065289477199128,-7.130506968510533,63.55199999996694
312819.8967,-2.6904307139192505,-12.738207915027358,7.682864897213812,-6.416320342436244,63.55299999995623
312819.8977,-0.6049648062230049,-11.179666167143743,9.259550825818977,-5.43872511378286,63.55399999994552
312819.8987,1.591187919462448,-9.17544858394372,10.83244481285063,-4.173158287123158,63.554999999993015
312819.8997,3.8914701893512107,-6.743675891444433,12.428783592733673,-2.6113121605927136,63.555999999982305
312819.9007,6.277098343601844,-3.9242583750061635,14.061666322368003,-0.763921282094807,63.556999999971595
312819.9017,8.715539131341819,-0.7789423246611165,15.727339830012433,1.338040526091564,63.557999999960884
312819.9027,11.160513999221015,2.6103017228866716,17.404287270067442,3.6439064558227883,63.558999999950174
312819.9037,13.553582985419078,6.1444988117939445,19.054187093772814,6.085596660740295,63.55999999999767
312819.9047,15.827196800389396,9.712302359345884,20.62463100807148,8.581459835781768,63.56099999998696
312819.9057,17.908953514631744,13.195715791129217,22.05332447663705,11.041358268285268,63.56199999997625
312819.9067,19.72667065342208,16.476478071862907,23.27335675388048,13.372562248260483,63.56299999996554
312819.9077,21.213796849986082,19.44262510674088,24.219031977766896,15.485944917156464,63.56399999995483
312819.9087,22.31464801363221,21.99471961962478,24.831706966599388,17.301941914726164,63.56500000000233
312819.9097,22.98896495046833,24.05126826300883,25.06508873256074,18.75576383420913,63.56599999999162
312819.9107,23.21535116187174,25.55291387701352,24.88950388541496,19.80142094669566,63.56699999998091
312819.9117,22.99325484823711,26.46509643418914,24.294756672275334,20.414231763145757,63.5679999999702
312819.9127,22.343297401699644,26.779008318701184,23.291331737813863,20.591628769013322,63.56899999995949
312819.9137,21.305908118835532,26.510815787124084,21.909857944454785,20.35223232289941,63.56999999994878
312819.9147,19.938385914295647,25.699265094646535,20.198915070096266,19.733322062564607,63.570999999996275
312819.9157,18.310657602533738,24.401925263134757,18.22141988856279,18.786979064338016,63.571999999985565
312819.9167,16.500124259991352,22.690427599493354,16.049957248504942,17.575287824301522,63.572999999974854
312819.9177,14.586070427886822,20.64513515282666,13.761513157303813,16.16506406384447,63.573999999964144
312819.9187,12.644147486037701,18.34970707173699,11.432112203459301,14.622605453724228,63.574999999953434
312819.9197,10.741429083560886,15.886011042599856,9.131857147504935,13.008945148874405,63.57600000000093
312819.9207,8.932474662138608,13.329783600519844,6.920815319998655,11.376024793589794,63.57699999999022
312819.9217,7.256733222577606,10.747349016758536,4.846100488805159,9.764101120058019,63.57799999997951
312819.9227,5.73748404570366,8.193591946465125,2.9403701507620714,8.200568931048778,63.5789999999688
312819.9237,4.382357622372073,5.71124876280565,1.2218099586932807,6.700236374120263,63.57999999995809
312819.9247,3.185323826285165,3.3314504718642275,-0.30447576548802174,5.266940652491071,63.58099999994738
312819.9257,2.129890837830307,1.0753292569749908,-1.6438903953400612,3.8962583364056362,63.58199999999488
312819.9267,1.1931416476733807,-1.0435972673167155,-2.8089280878011964,2.578957449352332,63.58299999998417
312819.9277,0.35015658983638825,-3.016615814602674,-3.8153336765175263,1.3047689761355523,63.58399999997346
312819.9287,-0.4216620854880729,-4.83696056951102,-4.678295150445018,0.06603008076933062,63.58499999996275
312819.9297,-1.1388310105226052,-6.497276450604097,-5.40911226448699,-1.13922758131479,63.58599999995204
312819.9307,-1.8089954644912998,-7.987718240487057,-6.01272611108154,-2.3051058734965055,63.586999999999534
312819.9317,-2.429407104989079,-9.294917747593084,-6.486395422391796,-3.416843385245239,63.587999999988824
312819.9327,-2.986833799030126,-10.401943992230146,-6.819676203773928,-4.451123319653644,63.588999999978114
312819.9337,-3.45891405484692,-11.289261981073075,-6.995715321785408,-5.377672492273061,63.589999999967404
312819.9347,-3.8168153448153297,-11.936576466502288,-6.993720925506202,-6.161995732707267,63.59099999995669
312819.9357,-4.028916182844792,-12.325340622273417,-6.792338340807874,-6.768963262168618,63.59199999994598
312819.9367,-4.065120200498228,-12.441626922457754,-6.373553308726774,-7.166870321735536,63.59299999999348
312819.9377,-3.901337956140934,-12.279007363062473,-5.726676386354987,-7.331528636548351,63.59399999998277
312819.9387,-3.5236462703333875,-11.841077879275797,-4.85194037108384,-7.249934577332717,63.59499999997206
312819.9397,-2.9316583849082374,-11.143288896348057,-3.763269498954482,-6.923091000974576,63.59599999996135
312819.9407,-2.140709192638508,-10.213807908820726,-2.489852731032333,-6.367635913251807,63.59699999995064
312819.9417,-1.1825714869561872,-9.093234543966696,-1.0762667712307024,-5.616044074260756,63.59799999999814
312819.9427,-0.10456089690121911,-7.833104315535337,0.4189634155776036,-4.71530651231543,63.59899999998743
312819.9437,1.032954844352326,-6.493242583901111,1.9263218510916003,-3.724144023154606,63.59999999997672
312819.9447,2.1604678114931835,-5.138152422460069,3.369575580348364,-2.7089591879670425,63.60099999996601
312819.9457,3.2043443776161693,-3.8327266703521845,4.671024629089993,-1.7388624774615598,63.6019999999553
312819.9467,4.0925085020746526,-2.637654407846957,5.757277611824795,-0.8802084616458763,63.602999999944586
312819.9477,4.760285254242452,-1.604936965512893,6.56503505983209,-0.19113777090870135,63.603999999992084
312819.9487,5.155869215005362,-0.7739333312522099,7.04634385623891,0.28336706052924143,63.60499999998137
312819.9497,5.244906543605377,-0.1683183447231613,7.172818964215906,0.5154401419900846,63.60599999997066
312819.9507,5.013752623494897,0.20573767460575706,6.938410420641182,0.4969157292627334,63.60699999995995
312819.9517,4.471082605812023,0.35996547848040233,6.360417079925731,0.24026794917001104,63.60799999994924
312819.9527,3.647679056067227,0.32289510359751555,5.4786024943196745,-0.2222141164223685,63.60899999999674
312819.9537,2.5943854273881795,0.1373186140042275,4.352438282845971,-0.8409757297499412,63.60999999998603
312819.9547,1.3783806642159073,-0.1434859947306234,3.0566704328158325,-1.553270819458373,63.61099999997532
312819.9557,0.0780831026955275,-0.46045582325725787,1.6755581735982208,-2.288420016386612,63.61199999996461
312819.9567,-1.222883492432686,-0.7539657211333604,0.2962587913475373,-2.9737998431558075,63.6129999999539
312819.9577,-2.4421441953879217,-0.9691164988377637,-0.9980867099907,-3.541040598680448,63.6140000000014
312819.9587,-3.504893097559897,-1.0606218195374082,-2.1349806148571493,-3.9318886584533392,63.61499999999069
312819.9597,-4.349539391001589,-0.9968593351456424,-3.0583431214123182,-4.103217327466406,63.61599999997998
312819.9607,-4.932203401085113,-0.7627245203084986,-3.732942077312948,-4.030746414779308,63.616999999969266
312819.9617,-5.229694025486969,-0.3610323142202266,-4.147102247443913,-3.711147203701312,63.617999999958556
312819.9627,-5.240739407361386,0.18765780419407174,-4.313469004465026,-3.162355492594323,63.618999999947846
312819.9637,-4.985402502997308,0.8467754988106898,-4.267771389722811,-2.422077126243171,63.61999999999534
312819.9647,-4.502777229996432,1.566873666230246,-4.065703417940106,-1.5446327218426987,63.62099999998463
312819.9657,-3.8472135426109224,2.2898788385501985,-3.7782043060334813,-0.5964359191233433,63.62199999997392
312819.9667,-3.0834467323683303,2.954074601499953,-3.4855532517118415,0.3494812853603393,63.62299999996321
312819.9677,-2.2810957447471085,3.499371282026651,-3.2707903624878725,1.2194026901691677,63.6239999999525
312819.9687,-1.509039302237693,3.8723932726204318,-3.213023994653627,1.9447947471848777,63.625
312819.9697,-0.8301735668388499,4.030936888102888,-3.3811822836354355,2.4675951993353125,63.62599999998929
312819.9707,-0.2970021843083064,3.9474143267317783,-3.8287140589035813,2.744475605567352,63.62699999997858
312819.9717,0.0515853111272031,3.6109969697649102,-4.589647369384119,2.7497335690266818,63.62799999996787
312819.9727,0.19211769198462836,3.0282944458137373,-5.676282340615568,2.4766045258180127,63.62899999995716
312819.9737,0.11684586407252119,2.222542770722263,-7.078642011220308,1.9369341707925427,63.62999999994645
312819.9747,-0.1673861467143815,1.2314123708598181,-8.765644973428184,1.1593063078355244,63.630999999993946
312819.9757,-0.6414956089982603,0.1036718432712433,-10.687812298114379,0.18586232626966148,63.631999999983236
312819.9767,-1.2774179848681442,-1.1049558950617908,-12.781192523434225,-0.931835837978718,63.632999999972526
312819.9777,-2.0418636538230364,-2.336341259257761,-14.97209417123454,-2.1374683309823803,63.633999999961816
312819.9787,-2.9001354486134616,-3.5344682190664294,-17.18216353682264,-3.3746793630228558,63.634999999951106
312819.9797,-3.819578265783616,-4.649510389525562,-19.333340289713465,-4.591403571539366,63.6359999999986
312819.9807,-4.772287426508636,-5.641100892352916,-21.352264006908122,-5.743397843663008,63.63699999998789
312819.9817,-5.736796932938589,-6.480522803514784,-23.173785902572178,-6.796674323738374,63.63799999997718
312819.9827,-6.698592228613437,-7.151661129195784,-24.743352531847073,-7.728653598733241,63.63899999996647
312819.9837,-7.649431487983091,-7.6506850696078255,-26.018159940299196,-8.527996187838264,63.63999999995576
312819.9847,-8.585600121290831,-7.984558019432789,-26.967113649390857,-9.193211199106747,63.64099999994505
312819.9857,-9.505350196913293,-8.16858946651219,-27.569757706614208,-9.730269008406445,63.64199999999255
312819.9867,-10.405876296749877,-8.223336078278175,-27.81444157326843,-10.14954706564805,63.64299999998184
312819.9877,-11.280241099704066,-8.171219592238307,-27.696066084110353,-10.462504091743849,63.64399999997113
312819.9887,-12.114680754649422,-8.033250747392485,-27.21378181383359,-10.678501338555439,63.64499999996042
312819.9897,-12.886689477169853,-7.826229406012524,-26.36900189448052,-10.802167947979518,63.64599999994971
312819.9907,-13.564207287277602,-7.560733326441254,-25.16403816813525,-10.831643070648253,63.646999999997206
312819.9917,-14.106121576483002,-7.24011776718962,-23.601580454917247,-10.757926970813992,63.647999999986496
312819.9927,-14.464153418893812,-6.860634545876422,-21.685123395697925,-10.565447243081033,63.648999999975786
312819.9937,-14.58604728108156,-6.412654032963503,-19.420316339421316,-10.233807557762706,63.649999999965075
312819.9947,-14.419833590999897,-5.882849721123522,-16.817083177829357,-9.740549447393583,63.650999999954365
312819.9957,-13.918802982256993,-5.257095273657709,-13.892245082676848,-9.064636859217739,63.65200000000186
312819.9967,-13.046732791100377,-4.523739733723219,-10.672292615239872,-8.190281290525741,63.65299999999115
312819.9977,-11.782851364237446,-3.676876748874998,-7.195904809597911,-7.110672214210302,63.65399999998044
312819.9987,-10.126020597724368,-2.719213676165477,-3.515807969450887,-5.83116925146066,63.65499999996973
312819.9997,-8.097663674308679,-1.6641777333987642,0.3003920208885771,-4.371550729803686,63.65599999995902
312820.0007,-5.743059918236628,-0.5369662527188396,4.170685912175993,-2.766994778840432,63.65699999994831
312820.0017,-3.130763952128739,0.6256500230655065,8.000607977796845,-1.0675864728441713,63.65799999999581
312820.0027,-0.35006976691389985,1.7768376366044045,11.686671318276376,0.663713436650911,63.6589999999851
312820.0037,2.4933831666043975,2.8624581229803767,15.121154466182563,2.3545497041932446,63.65999999997439
312820.0047,5.283591560095937,3.824874989826896,18.197952344504298,3.9278663430172873,63.66099999996368
312820.0057,7.9013344202403015,4.6074977968791675,20.819075245581775,5.307445648998106,63.66199999995297
312820.0067,10.23194184425132,5.159664629216052,22.901284340772325,6.423827285928926,63.663000000000466
312820.0077,12.17307266332738,5.441414598116362,24.38230204602833,7.220086524281087,63.663999999989755
312820.0087,13.64186885297995,5.427694677160389,25.226036921946715,7.656943439002315,63.664999999979045
312820.0097,14.580892681073207,5.111581593964033,25.426317332882686,7.716717580057118,63.665999999968335
312820.0107,14.962344151367251,4.506176836035713,25.008732313319072,7.405732110739402,63.666999999957625
312820.0117,14.790193647432519,3.644944305648482,24.030323560788343,6.754899908389768,63.667999999946915
312820.0127,14.100035703938117,2.5803956423106866,22.577046594467465,5.818380062885862,63.66899999999441
312820.0137,12.956659247389354,1.3811752014019352,20.7591062875029,4.670362274632975,63.6699999999837
312820.0147,11.44952039749194,0.12774141083732443,18.70445507486772,3.4002031459713145,63.67099999997299
312820.0157,9.686478761967706,-1.0930298919500212,16.55090414751309,2.106286689186762,63.67199999996228
312820.0167,7.7863012852596984,-2.193893717984527,14.43742361419624,0.889097556262796,63.67299999995157
312820.0177,5.87053624030453,-3.093446210403901,12.49528492856613,-0.15593150265957928,63.67399999999907
312820.0187,4.055405132897576,-3.7219880222504482,10.839720237579485,-0.9452136345539197,63.67499999998836
312820.0197,2.4443483287358614,-4.026558270621111,9.56273627047048,-1.412888697495353,63.67599999997765
312820.0207,1.1217926321053389,-3.974726421343859,8.727627938911931,-1.5153157907839312,63.67699999996694
312820.0217,0.14859251465982395,-3.556836373313795,8.365597096226026,-1.233824433518467,63.67799999995623
312820.0227,-0.4405576086681223,-2.7865310669955017,8.474707434153965,-0.5755245058098719,63.67899999994552
312820.0237,-0.6376201250720468,-1.699534693921332,9.02121301262574,0.4278548831902169,63.679999999993015
312820.0247,-0.4596840566162884,-0.3508192403688981,9.943102870156778,1.722956352672051,63.680999999982305
312820.0257,0.05435448948458936,1.189581163488466,11.155525067451684,3.239317540495775,63.681999999971595
312820.0267,0.8485166654545918,2.8417333291032207,12.557606314337402,4.895002219199333,63.682999999960884
312820.0277,1.8553779632179692,4.521494979011547,14.040080895537978,6.6028284814320966,63.683999999950174
312820.0287,3.0020673360213976,6.146247372721407,15.493093568189806,8.276645342131259,63.68499999999767
312820.0297,4.216072342944126,7.640197370235824,16.813549050868122,9.837122489685104,63.68599999998696
312820.0307,5.430341601147957,8.938829715197274,17.911443936900767,11.216580599926635,63.68699999997625
312820.0317,6.58727003866893,9.992181547913976,18.71472851090643,12.362494928026052,63.68799999996554
312820.0327,7.641283395181982,10.766730364712206,19.172394776814183,13.239442119205185,63.68899999995483
312820.0337,8.559892554861083,11.24582200911531,19.25565845581662,13.829415676876197,63.69000000000233
312820.0347,9.323249993116384,11.42870359341078,18.95728031846944,14.130594026680674,63.69099999999162
312820.0357,9.922393739272437,11.328354172886407,18.289239186408352,14.154791220749425,63.69199999998091
312820.0367,10.356493722847965,10.968411372872614,17.279109757970033,13.923940009805477,63.6929999999702
312820.0377,10.629508630517053,10.379565189400058,15.965600296998156,13.466038964557427,63.69399999995949
312820.0387,10.746709639068841,9.595824315192564,14.393759324707972,12.81103205023163,63.69499999994878
312820.0397,10.711526369138113,8.651052940174244,12.610362663018442,11.987077561666771,63.695999999996275
312820.0407,10.52312085596395,7.576128514327405,10.659943483382955,11.017605406572086,63.696999999985565
312820.0417,10.175002859843215,6.396988861361029,8.581834365978908,9.919463761266933,63.697999999974854
312820.0427,9.654874340565625,5.133729104351932,6.408462060346961,8.702328435106496,63.698999999964144
312820.0437,8.94574559664556,3.800786421431025,4.164986254789844,7.36940409306006,63.699999999953434
312820.0447,8.028215596226138,2.408126373185665,1.8702187480891919,5.9193006178184,63.70100000000093
312820.0457,6.883670030526239,0.9632312213202925,-0.4613850892351716,4.348835278433002,63.70199999999022
312820.0467,5.498037117539804,-0.5264000911746602,-2.8169900261202847,2.6564055796441775,63.70299999997951
312820.0477,3.8656651175525276,-2.0505895117527797,-5.182309411469336,0.8455095454390463,63.7039999999688
312820.0487,1.9928550648458532,-3.5940251908151284,-7.538644495031179,-1.07203320509239,63.70499999995809
312820.0497,-0.09939905423108618,-5.13436559934748,-9.86046829054909,-3.073582350949203,63.70599999994738
312820.0507,-2.3738439291708278,-6.641196167890272,-12.11392749770605,-5.1242535452499425,63.70699999999488
312820.0517,-4.776847532425314,-8.076042348951683,-14.256534480754402,-7.176817428880123,63.70799999998417
312820.0527,-7.239860699010872,-9.393529792265802,-16.238188910653452,-9.17303260405064,63.70899999997346
312820.0537,-9.682437054561342,-10.54365718781641,-18.003519075349804,-11.046375055637542,63.70999999996275
312820.0547,-12.016630132596942,-11.475023022160789,-19.495381500062194,-12.72597814607209,63.71099999995204
312820.0557,-14.152441912130566,-12.138736759236478,-20.659220087396164,-14.141464714666775,63.711999999999534
312820.0567,-16.00388092310337,-12.492659280608997,-21.44787684606239,-15.228249512374232,63.712999999988824
312820.0577,-17.495112419319327,-12.505565870258385,-21.826377016801437,-15.932826911765815,63.713999999978114
312820.0587,-18.56615593924979,-12.160813345939026,-21.776189680274214,-16.217542375874295,63.714999999967404
312820.0597,-19.17761021141384,-11.459122947895137,-21.298493691223634,-16.064378794493397,63.71599999995669
312820.0607,-19.31396012337684,-10.420160002050265,-20.41605595688522,-15.477367924371007,63.71699999994598
312820.0617,-18.985138776363392,-9.082693966043179,-19.17344776714869,-14.483355628313069,63.71799999999348
312820.0627,-18.22616862963972,-7.5032486980897595,-17.635474024759674,-13.130996313932233,63.71899999998277
312820.0637,-17.094875301159508,-5.753290699891303,-15.883855656534859,-11.488012999068054,63.71999999997206
312820.0647,-15.667839753187172,-3.9151394550171323,-14.012371331260319,-9.636919358445713,63.72099999996135
312820.0657,-14.03491303475451,-2.076905617183279,-12.120814808298908,-7.669543522852274,63.72199999995064
312820.0667,-12.29274739832191,-0.3268578146502285,-10.308244115622394,-5.680806406372717,63.72299999999814
312820.0677,-10.537886079756518,1.252322178827415,-8.666076436494858,-3.7622788971938856,63.72399999998743
312820.0687,-8.859992857502096,2.5889191993281617,-7.2716101613265,-1.9960652834109578,63.72499999997672
312820.0697,-7.335787948077702,3.62674973024541,-6.18252986061566,-0.44953236878352465,63.72599999996601
312820.0707,-6.024190209059486,4.328531432017402,-5.432872833718596,0.8286726650247989,63.7269999999553
312820.0717,-4.963053338505917,4.67778076647578,-5.030814148537201,1.8109903330325121,63.727999999944586
312820.0727,-4.167736476699304,4.679092559379713,-4.958471720905147,2.4915254957010524,63.728999999992084
312820.0737,-3.6315813593085204,4.3567992338692,-5.1737582097065475,2.8848193448410506,63.72999999998137
312820.0747,-3.3281949435278113,3.752151442635105,-5.61412840613044,3.022968184029197,63.73099999997066
312820.0757,-3.215274660903234,2.919292347776502,-6.201905792407592,2.9513900681018086,63.73199999995995
312820.0767,-3.2395784114689437,1.9204025362783974,-6.850735240525918,2.7236606893648156,63.73299999994924
312820.0777,-3.342545736204229,0.8204616663888631,-7.4726129670413295,2.3959195695786297,63.73399999999674
312820.0787,-3.466029068210163,-0.3179000242875294,-7.984898576387665,2.0213791941774777,63.73499999998603
312820.0797,-3.5575986532466066,-1.4390046642348742,-8.316721386058681,1.6454504067545135,63.73599999997532
312820.0807,-3.5749406569783413,-2.49778853710501,-8.414253289330262,1.3019292726596108,63.73699999996461
312820.0817,-3.488969184948049,-3.4622238715011617,-8.244427319734585,1.0105805245514137,63.7379999999539
312820.0827,-3.2854091089471233,-4.314325799943658,-7.796824640593212,0.7763114605342448,63.7390000000014
312820.0837,-2.9647640498018375,-5.049708864335238,-7.083619337321724,0.5899716016916873,63.73999999999069
312820.0847,-2.5407469413184542,-5.675798368798772,-6.137644521887382,0.4306529968828109,63.74099999997998
312820.0857,-2.037403164927003,-6.208930904366512,-5.008808674937715,0.26921939465315886,63.741999999969266
312820.0867,-1.4852832989818645,-6.670683065450331,-3.7592326208898843,0.07267381334694759,63.742999999958556
312820.0877,-0.9171116720646113,-7.083837708955358,-2.4575822238311806,-0.191105203412566,63.743999999947846
312820.0887,-0.36343956592544163,-7.46842640374649,-1.1731305781933297,-0.5487605722845161,63.74499999999534
312820.0897,0.15123584109578903,-7.838272326990479,0.029908629141445393,-1.017471041046769,63.74599999998463
312820.0907,0.611462750012462,-8.198401404647326,1.0972776946171234,-1.6020012548417948,63.74699999997392
312820.0917,1.0126125094568785,-8.543596701161887,1.9883910791103654,-2.2930986037228,63.74799999996321
312820.0927,1.3612533785045373,-8.858251226666484,2.678585965953684,-3.0674100482705664,63.7489999999525
312820.0937,1.6740823050682017,-9.117539379692422,3.1597710044556946,-3.888937300039795,63.75
312820.0947,1.975532999716635,-9.289790581397535,3.439495259755795,-4.711892372794831,63.75099999998929
312820.0957,2.294322660339611,-9.339823838945497,3.5386113172074034,-5.484673147149466,63.75199999997858
312820.0967,2.65931688508797,-9.232901375718177,3.487837471299567,-6.154564337910538,63.75299999996787
312820.0977,3.0951705701921908,-8.938893060374738,3.3236215221801344,-6.672694459410466,63.75399999995716
312820.0987,3.6182337806657583,-8.436217750150009,3.0837638786979262,-6.998751473004222,63.75499999994645
312820.0997,4.233192264239746,-7.715145401316436,2.8032656732616723,-7.1049815455860115,63.755999999993946
312820.1007,4.9308440686838555,-6.780103176036591,2.510828396388748,-6.979064596194681,63.756999999983236
312820.1017,5.687303148462022,-5.650723965188759,2.2263498197152396,-6.625570195488272,63.757999999972526
312820.1027,6.464778717584633,-4.361497392604083,1.9596455699774995,-6.065837013828027,63.758999999961816
312820.1037,7.213919456297594,-2.9600194976086645,1.7104888286761537,-5.336274537552855,63.759999999951106
312820.1047,7.877550394326387,-1.5039745070686963,1.4699165274238637,-4.485241755259073,63.7609999999986
312820.1057,8.395483543622461,-0.05710688875090005,1.2226139881120424,-3.5687984649945697,63.76199999998789
312820.1067,8.709965997271699,1.3154580748083384,0.9500752462336953,-2.645736754873254,63.76299999997718
312820.1077,8.77125331540058,2.5521215086443685,0.6341550207432186,-1.77237191711549,63.76399999996647
312820.1087,8.542769645746034,3.59949790524427,0.26058868552073594,-0.997596399738035,63.76499999995576
312820.1097,8.005342406309644,4.416452876035922,-0.17793744646646503,-0.3586749074584783,63.76599999994505
312820.1107,7.160076532221117,4.9771234800213575,-0.6795325230114774,0.12181409020926527,63.76699999999255
312820.1117,6.029554266066386,5.27264928837335,-1.2319412638581673,0.43759821229154583,63.76799999998184
312820.1127,4.657199876420483,5.311464864124965,-1.8126350805646843,0.598742157096065,63.76899999997113
312820.1137,3.1048198594226393,5.11814093178566,-2.390174594601589,0.6300965068458326,63.76999999996042
312820.1147,1.4485015853486192,4.730898734274645,-2.92672420234287,0.568327234337243,63.77099999994971
312820.1157,-0.22678977510896114,4.198046437806721,-3.381471387095731,0.45782879887800404,63.771999999997206
312820.1167,-1.8334502334618836,3.5736857693741775,-3.714600725934042,0.3459335887515732,63.772999999986496
312820.1177,-3.2877634138396195,2.9131016948983963,-3.891405795486436,0.27789928668055874,63.773999999975786
312820.1187,-4.516134911709324,2.2682716839872614,-3.886098570766563,0.29217666364575634,63.774999999965075
312820.1197,-5.460478866451117,1.6839118574534782,-3.684898156106866,0.41643126465993124,63.775999999954365
312820.1207,-6.082277647956257,1.1944172525881251,-3.2880468388462223,0.6647163177305351,63.77700000000186
312820.1217,-6.3649577926717065,0.8219587903361715,-2.710505099132153,1.036078522283924,63.77799999999115
312820.1227,-6.31438155077224,0.5758799203549115,-1.9812081061952365,1.514734618523796,63.77899999998044
312820.1237,-5.957428680989539,0.4534034272473651,-1.1409113442328542,2.071799045674359,63.77999999996973
312820.1247,-5.338820647666783,0.4415268099454259,-0.23879779032328988,2.6683871786218414,63.78099999995902
312820.1257,-4.51650209772643,0.519866210919318,0.6718511109876666,3.25978003885675,63.78199999994831
312820.1267,-3.556026805851914,0.6641158845785482,1.538516819356008,3.8002287738017215,63.78299999999581
312820.1277,-2.5244844941819498,0.8497318934707916,2.314370721797864,4.247911318640559,63.7839999999851
312820.1287,-1.4845425496204065,1.0554308559603012,2.962782863640043,4.569536131027086,63.78499999997439
312820.1297,-0.4891591710533746,1.2661188289499679,3.460959141056613,4.744120600155444,63.78599999996368
312820.1307,0.42254627944946427,1.4749292535846774,3.8023299785519655,4.765551604779878,63.78699999995297
312820.1317,1.2278969638660437,1.684145802385314,3.9974284366793515,4.643654995646728,63.788000000000466
312820.1327,1.921519317687211,1.9049060945801848,4.073138441130963,4.403647860283354,63.788999999989755
312820.1337,2.5144155795339973,2.155713395619543,4.070350686252108,4.0840078709056415,63.789999999979045
312820.1347,3.0313776703920268,2.4599122588076114,4.040219481083579,3.732952035982634,63.790999999968335
312820.1357,3.5070329840491548,2.8423974738510536,4.039353046937539,3.4038571773582014,63.791999999957625
312820.1367,3.980944169378012,3.3259120442491397,4.124378661306749,3.150062564649431,63.792999999946915
312820.1377,4.492274343978763,3.9273402842992002,4.346391520126727,3.0195605731064306,63.79399999999441
312820.1387,5.074567848711266,4.6544111420849115,4.745815147278442,3.050097360957571,63.7949999999837
312820.1397,5.75118108377425,5.503193268838349,5.348169182148041,3.2651705713877734,63.79599999997299
312820.1407,6.531829917355458,6.456690171168372,6.161159947437735,3.6713281371341058,63.79699999996228
312820.1417,7.410606502336559,7.484737970959097,7.173387620886806,4.257049284778584,63.79799999995157
312820.1427,8.365670375639485,8.545280117163438,8.35481247242368,4.993337619296652,63.79899999999907
312820.1437,9.360651054506794,9.586955389181957,9.658955858816505,5.835991323092562,63.79999999998836
312820.1447,10.347628458328922,10.552801305407746,11.026645499494057,6.72935300053453,63.80099999997765
312820.1457,11.271400103658385,11.38475792942021,12.390965083347606,7.611197325011101,63.80199999996694
312820.1467,12.074615501606937,12.028568794095946,13.682950089736293,8.418302465008237,63.80299999995623
312820.1477,12.703271029793342,12.438625248661099,14.837496547504704,9.092182254389343,63.80399999994552
312820.1487,13.112021192799773,12.582293359971121,15.798924932391914,9.584437051250283,63.804999999993015
312820.1497,13.268778196664709,12.443299790338004,16.525670303176454,9.861214203188078,63.805999999982305
312820.1507,13.158139516013028,12.023831754939968,16.993649741006013,9.90635099312796,63.806999999971595
312820.1517,12.783295968485044,11.345119134713373,17.197981870972477,9.722896137884383,63.807999999960884
312820.1527,12.166219694806463,10.446403628331678,17.152889116372563,9.332858621248919,63.808999999950174
312820.1537,11.346098036972844,9.382347639513782,16.889786584066698,8.775200270250444,63.80999999999767
312820.1547,10.376149366778295,8.21908043005096,16.453735546578894,8.102254970490014,63.81099999998696
312820.1557,9.319113869580006,7.029207123748018,15.89859762836314,7.374906789710224,63.81199999997625
312820.1567,8.241840846326836,5.886205129775349,15.281352704925357,6.6569771860927425,63.81299999996554
312820.1577,7.209481748339482,4.858692870997232,14.656126786367057,6.009346576516848,63.81399999995483
312820.1587,6.279836388338811,4.005071392194965,14.068507514064617,5.484360595694831,63.81500000000233
312820.1597,5.49838489039322,3.369008747086117,13.55070103396472,5.1210439672582595,63.81599999999162
312820.1607,4.8944714522344945,2.976162693712004,13.11800690203728,4.941567661246543,63.81699999998091
312820.1617,4.478994438592034,2.832426007727356,12.766964438058787,4.949295359286776,63.8179999999702
312820.1627,4.24381164631424,2.9238410224345546,12.475366154253747,5.128584705333335,63.81899999995949
312820.1637,4.162904049665,3.218178734407452,12.2041564992652,5.446351875933561,63.81999999994878
312820.1647,4.195172141563094,3.6680271924837027,11.901054073621838,5.8552407208145185,63.820999999996275
312820.1657,4.288582663996419,4.215098077897221,11.505569910235637,6.298086179399429,63.821999999985565
312820.1667,4.385255312562854,4.7953521315023035,10.954959254444878,6.713240407786249,63.822999999974854
312820.1677,4.426991369346343,5.3444735003215635,10.1905525312899,7.0402506418495046,63.823999999964144
312820.1687,4.360707627758543,5.803196666322336,9.163871727269797,7.2253477963289034,63.824999999953434
312820.1697,4.143253059850494,6.122009671247926,7.8419551166212775,7.226226888343368,63.82600000000093
312820.1707,3.745150903905401,6.26482171987246,6.211384627653678,7.015672262950508,63.82699999999022
312820.1717,3.152918666514744,6.211285578655979,4.280629435585709,6.583695164679854,63.82799999997951
312820.1727,2.369762024776172,5.957595551114295,2.0804752586111124,5.937997211221805,63.8289999999688
312820.1737,1.4146015815784452,5.515727650628631,-0.3375134989397079,5.102736543715592,63.82999999995809
312820.1747,0.31955778219602804,4.911235946646951,-2.9043690573942076,4.115737991420816,63.83099999994738
312820.1757,-0.8738273558418737,4.179853910147259,-5.5386332116232895,3.024438555957253,63.83199999999488
312820.1767,-2.1192278224519385,3.363259187801373,-8.152366526115536,1.8809804147967613,63.83299999998417
312820.1777,-3.3705418605549364,2.504434343027234,-10.657712662863009,0.7369438503640591,63.83399999997346
312820.1787,-4.586746296100642,1.6430879279677861,-12.973428149409822,-0.3617556056695053,63.83499999996275
312820.1797,-5.736088846698952,0.8115870979238513,-15.03079480697683,-1.3793008900423505,63.83599999995204
312820.1807,-6.799177638381595,0.031796484342982136,-16.77839349698281,-2.2933016254577394,63.836999999999534
312820.1817,-7.77063880978771,-0.6868760060855622,-18.185327636195048,-3.0966914011043114,63.837999999988824
312820.1827,-8.659158138607644,-1.3480480296498671,-19.24263231633425,-3.7980110347099547,63.838999999978114
312820.1837,-9.485886867606036,-1.9675062216091295,-19.962775553950102,-4.420054549189027,63.839999999967404
312820.1847,-10.281359185132606,-2.571025121560863,-20.377335766706683,-4.997016223122012,63.84099999995669
312820.1857,-11.081222613201389,-3.1910924306005586,-20.53310705948604,-5.570424714520087,63.84199999994598
312820.1867,-11.92120761056773,-3.862877646709719,-20.487025446299143,-6.184269505619746,63.84299999999348
312820.1877,-12.83184649338522,-4.6198534823908854,-20.300411499009247,-6.879804166818252,63.84399999998277
312820.1887,-13.833485783896528,-5.489511115513711,-20.033078761597192,-7.690542520304618,63.84499999997206
312820.1897,-14.932116632064805,-6.489598432697988,-19.737858031546573,-8.637944715665013,63.84599999996135
312820.1907,-16.116476556417066,-7.62525644977869,-19.456035901184297,-9.728222505994623,63.84699999995064
312820.1917,-17.35675905873436,-8.887338620689748,-19.214107465649555,-10.950583407379025,63.84799999999814
312820.1927,-18.605116793531373,-10.252079927172902,-19.022108018759372,-12.277092816940224,63.84899999998743
312820.1937,-19.797973427151422,-11.682149283982408,-18.87363050272813,-13.664175462794681,63.84999999997672
312820.1947,-20.859985599009995,-13.12898318266034,-18.74747016805827,-15.055618320439427,63.85099999996601
312820.1957,-21.709336367888,-14.536174072535855,-18.610681577181378,-16.38679201913516,63.8519999999553
312820.1967,-22.263910773650515,-15.843586001416815,-18.422700915388685,-17.589690999948743,63.852999999944586
312820.1977,-22.447815433844642,-16.991802374850636,-18.140091162399443,-18.598315645426744,63.853999999992084
312820.1987,-22.19766610906589,-17.926482833963,-17.72141785660642,-19.353889679887715,63.85499999998137
312820.1997,-21.468083654500163,-18.602220681232442,-17.131763165768007,-19.80942604562772,63.85599999997066
312820.2007,-20.23590816060843,-18.985547242543117,-16.34643498848641,-19.933221952804626,63.85699999995995
312820.2017,-18.502756651665404,-19.056819234448906,-15.353520211838019,-19.71097193076473,63.85799999994924
312820.2027,-16.295700247690306,-18.810840348882248,-14.155057146258251,-19.146325528894415,63.85899999999674
312820.2037,-13.666007619178178,-18.25619710699288,-12.766748422661808,-18.259869985171303,63.85999999998603
312820.2047,-10.686076361067446,-17.413418486912892,-11.21628725298187,-17.08667235600609,63.86099999997532
312820.2057,-7.444835771217177,-16.31218581789871,-9.540511539199745,-15.67265496685956,63.86199999996461
312820.2067,-4.042037986157022,-14.98791219333443,-7.781717659391944,-14.070188837881014,63.8629999999539
312820.2077,-0.5819469212236853,-13.478069918060775,-5.983547245078733,-12.333361115706014,63.8640000000014
312820.2087,2.8330225067567913,-11.818664415252066,-4.186898007493085,-10.513397634290625,63.86499999999069
312820.2097,6.108172419401066,-10.04123170606237,-2.426300275610552,-8.654698309528502,63.86599999997998
312820.2107,9.16141627668274,-8.170676333405533,-0.7271457685076351,-6.79187376041715,63.866999999969266
312820.2117,11.926824673274208,-6.224173638619405,0.8959397627974623,-4.948063517284186,63.867999999958556
312820.2127,14.35658792805101,-4.211244110656775,2.4394130594318106,-3.134680423344643,63.868999999947846
312820.2137,16.421320468488535,-2.1349799361736435,3.9097936321132303,-1.3525760761906287,63.86999999999534
312820.2147,18.108795393335598,0.005722141510292437,5.321426282316066,0.40552654249994646,63.87099999998463
312820.2157,19.42134847963799,2.213179164185684,6.69327590919911,2.1516198139125007,63.87199999997392
312820.2167,20.372314493204083,4.487534806241024,8.045110432170663,3.898407589247087,63.87299999996321
312820.2177,20.981943005098195,6.823361128724913,9.393496882962634,5.6551643764915385,63.8739999999525
312820.2187,21.27327804166129,9.206654581244766,10.748061252416285,7.423928928176098,63.875
312820.2197,21.268472586897605,11.612600888230784,12.108441752933153,9.196473134513205,63.87599999998929
312820.2207,20.985947047463952,14.004413742282836,13.462299647842743,10.952411554775457,63.87699999997858
312820.2217,20.438696963261286,16.333450024837838,14.784648023219845,12.658703528181512,63.87799999996787
312820.2227,19.63392035391331,18.540679368671363,16.038626989107538,14.27065968548496,63.87899999995716
312820.2237,18.573983073770638,20.55945037935421,17.177706794422914,15.734411603815408,63.87999999994645
312820.2247,17.25858704598299,22.319363012018073,18.14915280094589,16.990652418136634,63.880999999993946
312820.2257,15.687867044734855,23.750939592080265,18.89845291962942,17.97932239582664,63.881999999983236
312820.2267,13.866031152257872,24.790697494313576,19.374302409164482,18.64481016937998,63.882999999972526
312820.2277,11.80508963164107,25.386173702455274,19.533673695256123,18.94117796459355,63.883999999961816
312820.2287,9.52819421068542,25.500441024083955,19.34647721130376,18.836904264897036,63.884999999951106
312820.2297,7.072137373287746,25.115689227599546,18.799345879605912,18.318671815351756,63.8859999999986
312820.2307,4.4886368449255825,24.235519137318608,17.898148709860976,17.393809771820525,63.88699999998789
312820.2317,1.8441468272635746,22.885707074370806,16.66895148489651,16.091118662112976,63.88799999997718
312820.2327,-0.7819166813576541,21.113330860781904,15.157284076770452,14.459954315699994,63.88899999996647
312820.2337,-3.3004883516715764,18.984294359047965,13.42573109398444,12.567607945582516,63.88999999995576
312820.2347,-5.61749586558917,16.57943140725011,11.550020177796105,10.495178646117445,63.89099999994505
312820.2357,-7.639481493792577,13.989498336162875,9.61392507034047,8.332276338382204,63.89199999999255
312820.2367,-9.27974105471554,11.309464758629947,7.703414653868361,6.171003907527622,63.89299999998184
312820.2377,-10.464450151204204,8.632575373310395,5.900553324816414,4.099736164486331,63.89399999997113
312820.2387,-11.1382295727282,6.044675070861515,4.277684973549114,2.1972335890725265,63.89499999996042
312820.2397,-11.268636358017481,3.6192637869182622,2.8924097133460904,0.5275985304326696,63.89599999994971
312820.2407,-10.849151456760511,1.4136787854842257,1.7837914099053176,-0.8634964896662759,63.896999999997206
312820.2417,-9.900361537424576,-0.533303032502065,0.970121722687519,-1.9509970276572843,63.897999999986496
312820.2427,-8.469189437577635,-2.2022815549743338,0.44842349306781176,-2.7309073865093785,63.898999999975786
312820.2437,-6.626200217310267,-3.5924524431243148,0.19571656248966146,-3.2189815278170104,63.899999999965075
312820.2447,-4.461181370193252,-4.719357448767692,0.17190775701389968,-3.4478232266813102,63.900999999954365
312820.2457,-2.0773501190714385,-5.611425924009235,0.32401924651640324,-3.4626994210469064,63.90200000000186
312820.2467,0.4153368513830497,-6.3056722576507935,0.591349827560159,-3.3164856257996522,63.90299999999115
312820.2477,2.9072170727603313,-6.842982890208491,0.9110832133543263,-3.0642363073896957,63.90399999998044
312820.2487,5.295717547133489,-7.263453299912532,1.2238236459267555,-2.7578993884381977,63.90499999996973
312820.2497,7.491355772002781,-7.60221780879716,1.4785550348105079,-2.4416703682475625,63.90599999995902
312820.2507,9.42246791499929,-7.886155416233019,1.636583510375257,-2.1484105487266567,63.90699999994831
312820.2517,11.038306406706695,-8.131759364948188,1.6741282641999946,-1.8974427636378408,63.90799999999581
312820.2527,12.31030219462154,-8.344336439441037,1.5833613522201324,-1.6938978923293029,63.9089999999851
312820.2537,13.231457299533297,-8.518566204172695,1.3718503246828255,-1.5296301263582799,63.90999999997439
312820.2547,13.814004851900705,-8.640313887043352,1.060513056519975,-1.3855636790730137,63.91099999996368
312820.2557,14.085630123329652,-8.689466732500865,0.6803367710262643,-1.2351935270390677,63.91199999995297
312820.2567,14.084672394134156,-8.643464372948706,0.26822911339834515,-1.048851428298674,63.913000000000466
312820.2577,13.854811949329596,-8.481128577884812,-0.13755292101882258,-0.7982765759742252,63.913999999989755
312820.2587,13.439781299297586,-8.186372706856577,-0.5019177296571156,-0.4610046045617473,63.914999999979045
312820.2597,12.878621938414119,-7.7513884023874775,-0.7969345051140585,-0.024111498526185823,63.915999999968335
312820.2607,12.201939754916927,-7.1789644386863,-1.0049079518770387,0.5130822740238783,63.916999999957625
312820.2617,11.429500647258967,-6.483684183013028,-1.120232337476957,1.1376343947617937,63.917999999946915
312820.2627,10.569364239879432,-5.691864496104961,-1.14985553167958,1.8230813141416673,63.91899999999441
312820.2637,9.618592170406878,-4.840228369690051,-1.1123302736173124,2.5310177584794142,63.9199999999837
312820.2647,8.56540427414132,-3.973433214351548,-1.0355775693318188,3.2140061044375714,63.92099999997299
312820.2657,7.392507271580792,-3.1406935568753167,-0.9536209026782484,3.8195319258140596,63.92199999996228
312820.2667,6.081200957772468,-2.3918293844850194,-0.9026562901988413,4.294615911142182,63.92299999995157
312820.2677,4.615788180628762,-1.7731303380100285,-0.9168913360621452,4.590625288981759,63.92399999999907
312820.2687,2.9877847992415463,-1.3234456082226194,-1.024609402971838,4.667806488294537,63.92499999998836
312820.2697,1.1994472307080895,-1.0708878434063027,-1.244890418209905,4.499087094176413,63.92599999997765
312820.2707,-0.7337940862652239,-1.0304788398350868,-1.585350099401181,4.072766602267842,63.92699999996694
312820.2717,-2.7822940663761915,-1.2029713413238383,-2.0411515188641047,3.3938249316476052,63.92799999995623
312820.2727,-4.902700136572244,-1.5749642710518497,-2.5954078415959514,2.4837142613516114,63.92899999994552
312820.2737,-7.040001807632941,-2.120299855848321,-3.220946512248451,1.3786499456962928,63.929999999993015
312820.2747,-9.130956519359096,-2.802603265703874,-3.883258334237422,0.12656511066091056,63.930999999982305
312820.2757,-11.108580536252466,-3.5787113767558303,-4.5443249199725235,-1.2169737801557743,63.931999999971595
312820.2767,-12.907278891371003,-4.4026485131254605,-5.166918444993509,-2.593489818085775,63.932999999960884
312820.2777,-14.468115557323017,-5.229752473397774,-5.718909091526822,-3.9464929001222275,63.933999999950174
312820.2787,-15.743701695552561,-6.020539351879213,-6.177104541637016,-5.2260698943131585,63.93499999999767
312820.2797,-16.702208647960173,-6.743922222596592,-6.530184153195429,-6.39271697954341,63.93599999998696
312820.2807,-17.33009078224752,-7.3794641437554676,-6.780374836354788,-7.420039264168321,63.93699999997625
312820.2817,-17.633223954215005,-7.918443757343304,-6.943638272505696,-8.296056376633516,63.93799999996554
312820.2827,-17.636316570631394,-8.363632338312453,-7.048288174202768,-9.022992882002372,63.93899999995483
312820.2837,-17.3806173162686,-8.727812514568589,-7.13211717522369,-9.615585258697347,63.94000000000233
312820.2847,-16.920110203657316,-9.031197926494105,-7.238269706087785,-10.098087598453906,63.94099999999162
312820.2857,-16.316537335028006,-9.29802688333667,-7.4102341059199235,-10.500291176272446,63.94199999998091
312820.2867,-15.633707827467815,-9.552690116722697,-7.68643027413214,-10.852975245353228,63.9429999999702
312820.2877,-14.93162597041659,-9.815804142457534,-8.094927570836997,-11.183267501687064,63.94399999995949
312820.2887,-14.260995279346101,-10.10065212909006,-8.64883488645915,-11.510406313037539,63.94499999994878
312820.2897,-13.658625048815082,-10.41038218967089,-9.342859204632166,-11.842361357394292,63.945999999996275
312820.2907,-13.144184877304914,-10.736281512909297,-10.151434090327818,-12.173687947212812,63.946999999985565
312820.2917,-12.718627995862985,-11.057340514684093,-11.028683677517161,-12.48487075062819,63.947999999974854
312820.2927,-12.364447889278301,-11.341194280091896,-11.910323276137317,-12.743266376653416,63.948999999964144
312820.2937,-12.047759561107652,-11.54639133461702,-12.717419899313485,-12.905595557775023,63.949999999953434
312820.2947,-11.722023427996064,-11.625805671410282,-13.361761471592143,-12.921779916846662,63.95100000000093
312820.2957,-11.333072852615397,-11.53089018011379,-13.752428680290526,-12.739780797683963,63.95199999999022
312820.2967,-10.824980802900255,-11.21637985563648,-13.803043085521614,-12.310991908933113,63.95299999997951
312820.2977,-10.146219117268597,-10.64500042588027,-13.439090765768082,-11.595674083545399,63.9539999999688
312820.2987,-9.255533256500202,-9.79172778192332,-12.604699747389702,-10.567905738528632,63.95499999995809
312820.2997,-8.126979210032614,-8.647177182103585,-11.268284105553636,-9.219558390894253,63.95599999994738
312820.3007,-6.753645176791317,-7.219775752369377,-9.426555121774289,-7.562889741695187,63.95699999999488
312820.3017,-5.149701559126423,-5.536480465100106,-7.10653253016691,-5.631469706365205,63.95799999998417
312820.3027,-3.3505772114905636,-3.6419363690673388,-4.365354795718415,-3.4793058343610297,63.95899999997346
312820.3037,-1.4112331137390384,-1.5961138315979526,-1.2878715953608808,-1.178199575794834,63.95999999996275
312820.3047,0.5973197386331516,0.5293947494992297,2.0178124004543863,1.1864718051116698,63.96099999995204
312820.3057,2.592950047232328,2.65611243825164,5.426502462292926,3.5212067019738287,63.961999999999534
312820.3067,4.488343429145022,4.704045173797077,8.803306936943674,5.7306079589563526,63.962999999988824
