TimeStamp,ECR,FCR,ECU,FCU,time_index
312762.3437,3.5049282629509233,1.5251796356408986,-3.534098811659751,2.7420796335468984,6.0
312762.3447,1.7451105444924957,0.7154388516965067,-5.289441193954095,1.9098101584574085,6.00099999998929
312762.3457,-0.30734083260707185,-0.24293599875692498,-7.0692041849894665,0.8724175230707087,6.00199999997858
312762.3467,-2.627953708773393,-1.357069393231555,-8.851652369600144,-0.37251967052654344,6.002999999967869
312762.3477,-5.180677375350323,-2.6248868624813593,-10.612277150068406,-1.8170285580267491,6.003999999957159
312762.3487,-7.915841289751911,-4.032332476888527,-12.321534705349709,-3.4401443290838465,6.004999999946449
312762.3497,-10.769005399396498,-5.551514766584435,-13.94315424243653,-5.206269134874649,6.005999999993946
312762.3507,-13.661002236709537,-7.140065957630399,-15.4333248969522,-7.06476909868731,6.006999999983236
312762.3517,-16.499359905265337,-8.741888108825629,-16.740975418601437,-8.950976140130662,6.007999999972526
312762.3527,-19.181159146879896,-10.289327372128874,-17.80924135173293,-10.788625685345195,6.008999999961816
312762.3537,-21.597230544975023,-11.70667702542842,-18.578082052209382,-12.493618210104263,6.009999999951106
312762.3547,-23.637454540423594,-12.91477495342973,-18.987878200468337,-13.978856187191408,6.010999999998603
312762.3557,-25.196802035060383,-13.836345294272283,-18.983723118252342,-15.15979209220747,6.011999999987893
312762.3567,-26.18165993204261,-14.40164871102199,-18.520030458229296,-15.960239475287521,6.012999999977183
312762.3577,-26.51593396725118,-14.553959983180079,-17.56502640502356,-16.317956464812593,6.013999999966472
312762.3587,-26.14641652737315,-14.254390368915876,-16.104682520881205,-16.189514211709586,6.014999999955762
312762.3597,-25.0469510798835,-13.48561620895071,-14.145677699061975,-15.55401204377176,6.015999999945052
312762.3607,-23.22101381835801,-12.254160902128184,-11.717051838838557,-14.415292319438189,6.016999999992549
312762.3617,-20.702459163244413,-10.590997021390432,-8.870323114480499,-12.80243289056072,6.017999999981839
312762.3627,-17.5543271950681,-8.550377995736627,-5.67797481072009,-10.768442141735697,6.018999999971129
312762.3637,-13.865773752078681,-6.20696124814416,-2.2303638241872803,-8.387237024945161,6.019999999960419
312762.3647,-9.747342483034068,-3.651432761908883,1.368753016802919,-5.74913375744696,6.020999999949709
312762.3657,-5.324937659732881,-0.9849729434373331,5.007750676007644,-2.955209865839018,6.021999999997206
312762.3667,-0.7329638982432635,1.6869967386327722,8.57330211955167,-0.11099292591557815,6.022999999986496
312762.3677,3.892835915457697,4.261286762674865,11.956694371836948,2.6800133638646018,6.023999999975786
312762.3687,8.422296216805023,6.643117548244441,15.059793096905755,5.322446310156538,6.024999999965075
312762.3697,12.736982113551168,8.751518924027248,17.80018388127397,7.7343633767870585,6.025999999954365
312762.3707,16.73514336728887,10.52354182004486,20.115091361871276,9.851283763119195,6.027000000001863
312762.3717,20.335148826908615,11.916983122315235,21.963786867883524,11.628709756594995,6.027999999991152
312762.3727,23.477225006201486,12.911460205605724,23.328330881748265,13.042986270106194,6.028999999980442
312762.3737,26.123479390029654,13.507819755974467,24.212645416326687,14.090508669817723,6.029999999969732
312762.3747,28.256343923354862,13.726012143104306,24.640059153183117,14.78543691006856,6.030999999959022
312762.3757,29.875712254701995,13.601694082715643,24.649600834656916,15.156204161312866,6.031999999948312
312762.3767,30.995152674769322,13.181926481508315,24.29142140645249,15.24120838803605,6.032999999995809
312762.3777,31.63764729909176,12.520401741221741,23.62179295639336,15.084136515872752,6.033999999985099
312762.3787,31.83133081627435,11.672659588516522,22.698156459045478,14.729387572400057,6.034999999974389
312762.3797,31.60567749517299,10.691731022327472,21.57466885377495,14.218032488741885,6.035999999963678
312762.3807,30.988516192983916,9.624588849936895,20.298635629549903,13.584677524363586,6.036999999952968
312762.3817,30.004147234749425,8.5096871468268,18.908114604900998,12.855493008943325,6.038000000000466
312762.3827,28.672703236701974,7.375750792436409,17.430850209221134,12.047540087815127,6.0389999999897555
312762.3837,27.010751721723235,6.241842319678078,15.884558001286269,11.169388467837937,6.039999999979045
312762.3847,25.03299540663073,5.118600113630164,14.278440331705731,10.222881810127204,6.040999999968335
312762.3857,22.75480074900248,4.010422750414189,12.615689743898916,9.205788011867687,6.041999999957625
312762.3867,20.19518946749848,2.918280728628687,10.89663917978599,8.114981016588741,6.042999999946915
312762.3877,17.379871098080603,1.842778111394831,9.122156862666959,6.949747929414394,6.043999999994412
312762.3887,14.343883109684441,0.7870682290098739,7.296864767591298,5.714805234685059,6.044999999983702
312762.3897,11.133440057296937,-0.24074892115945937,5.43178452320416,4.422641661867414,6.045999999972992
312762.3907,7.806671411819001,-1.2260573182444356,3.546080689403005,3.094879184181642,6.046999999962281
312762.3917,4.433041423061277,-2.147198229746354,1.667671772392658,1.7624501946155398,6.047999999951571
312762.3927,1.091382361800019,-2.976083102904638,-0.16739621664247317,0.46451723706198067,6.048999999999069
312762.3937,-2.1333790679313864,-3.679914789194802,-1.9167830879365908,-0.7538012771371408,6.0499999999883585
312762.3947,-5.154578449273556,-4.223860448326612,-3.5347308881384416,-1.8447041257333152,6.050999999977648
312762.3957,-7.888905132849113,-4.57440973412714,-4.975702554883068,-2.761670771981539,6.051999999966938
312762.3967,-10.261787581354673,-4.703069122283455,-6.198413124699157,-3.4637242455032085,6.052999999956228
312762.3977,-12.212581169589324,-4.589996126232387,-7.169832430621031,-3.9195586540201925,6.053999999945518
312762.3987,-13.699064312878548,-4.22717071258126,-7.868729820744384,-4.111096684827197,6.054999999993015
312762.3997,-14.700794980360698,-3.6207364354330513,-8.288367210921827,-4.03608680655179,6.055999999982305
312762.4007,-15.220971013400375,-2.7922174369095556,-8.438023531515926,-3.709434485195209,6.056999999971595
312762.4017,-15.286565990946908,-1.7784224152265968,-8.343143982072808,-3.163078560234068,6.0579999999608845
312762.4027,-14.946665712034012,-0.629972678545692,-8.044040690972066,-2.444361708251123,6.058999999950174
312762.4037,-14.26909416537788,0.5914739347865434,-7.59321424880594,-1.6129892239257384,6.059999999997672
312762.4047,-13.335576410957456,1.8171015241714321,-7.051503937203424,-0.7368089093561035,6.0609999999869615
312762.4057,-12.23582373828374,2.975602920295884,-6.483394442127957,0.11323701020311855,6.061999999976251
312762.4067,-11.061030267418438,3.998237350296493,-5.9518962741497905,0.8685511092300003,6.062999999965541
312762.4077,-9.897329474253677,4.823835546252976,-5.513466802226239,1.4682292800524364,6.063999999954831
312762.4087,-8.819767807269251,5.403305174531096,-5.21344338852574,1.863837360673192,6.065000000002328
312762.4097,-7.887309304505018,5.703228796335539,-5.0824186510986245,2.023181348857797,6.065999999991618
312762.4107,-7.139293593721169,5.7082254730245126,-5.133903975781243,1.9327252123542775,6.066999999980908
312762.4117,-6.59363821401058,5.421858264245136,-5.363508856769549,1.5984324890699377,6.067999999970198
312762.4127,-6.246917079439919,4.866002710506054,-5.749721745551904,1.044952178344499,6.0689999999594875
312762.4137,-6.076275101791607,4.07873324946375,-6.256226493585594,0.3132221256898031,6.069999999948777
312762.4147,-6.042970798041146,3.1109217449896174,-6.835541905695186,-0.5432904103620606,6.070999999996275
312762.4157,-6.09719016902852,2.021861644397616,-7.43364471667395,-1.4633651237346523,6.0719999999855645
312762.4167,-6.183660476213961,0.8743211262911691,-7.995141007368533,-2.383382337021812,6.072999999974854
312762.4177,-6.247522787910427,-0.2705198288371975,-8.468497195905963,-3.2427621712442103,6.073999999964144
312762.4187,-6.239904049234284,-1.3577853313157038,-8.810834792737957,-3.9889918311132755,6.074999999953434
312762.4197,-6.122664720031995,-2.34284544741864,-8.991834058475668,-4.581785302855648,6.076000000000931
312762.4207,-5.8718833318738,-3.194134088595574,-8.996376839776406,-4.996004708868335,6.076999999990221
312762.4217,-5.4797663993349275,-3.894603562179675,-8.825680132601088,-5.223092627209718,6.077999999979511
312762.4227,-4.95482867932443,-4.441709884939167,-8.496817713924846,-5.2709082993928655,6.078999999968801
312762.4237,-4.320359625103346,-4.845966377189467,-8.040683419097032,-5.162013959582752,6.0799999999580905
312762.4247,-3.611360442766448,-5.128242489232003,-7.498601159467805,-4.930605713550436,6.08099999994738
312762.4257,-2.870286047622865,-5.316106676111347,-6.917918797134692,-4.618412153765403,6.081999999994878
312762.4267,-2.1420428586596567,-5.439604517989365,-6.347022576070802,-4.269980772877275,6.0829999999841675
312762.4277,-1.4687654092237945,-5.526917112149722,-5.830266112088408,-3.9278278769589474,6.083999999973457
312762.4287,-0.8849151760772458,-5.600354708553323,-5.403317210502104,-3.6279367526423085,6.084999999962747
312762.4297,-0.41321184854533344,-5.673105567624671,-5.089385916999202,-3.396050491204904,6.085999999952037
312762.4307,-0.061823712822981026,-5.747083422979537,-4.896711915199083,-3.2451239195492882,6.086999999999534
312762.4317,0.17688193160451898,-5.812106151995167,-4.8175668194773795,-3.174181590862941,6.087999999988824
312762.4327,0.32588309585918884,-5.846504083711868,-4.828878906395514,-3.1686872813405675,6.088999999978114
312762.4337,0.42136734858974906,-5.819111924059936,-4.894428749331705,-3.2023788141378873,6.089999999967404
312762.4347,0.509109641548271,-5.692457721623562,-4.968409573341393,-3.24037517962255,6.0909999999566935
312762.4357,0.6397074235617506,-5.4268394694324265,-5.000011059515302,-3.2432352800265813,6.091999999945983
312762.4367,0.8631336908228652,-4.984886987358405,-4.938583069786832,-3.1715517666592907,6.092999999993481
312762.4377,1.223140964623776,-4.3361529191873345,-4.738876438717408,-2.990608826029075,6.0939999999827705
312762.4387,1.752069794248085,-3.4612674706719195,-4.365847526868844,-2.674624838412257,6.09499999997206
312762.4397,2.4665821444050997,-2.3552280233232197,-3.7985528279453966,-2.210140433171648,6.09599999996135
312762.4407,3.364756072517017,-1.0294736251601078,-3.0327458537372753,-1.598195785386789,6.09699999995064
312762.4417,4.424851490507826,0.4874919299789117,-2.081912529429765,-0.8550599212084962,6.097999999998137
312762.4427,5.605899738585333,2.1510271136405685,-0.976631415440708,-0.011417694554271293,6.098999999987427
312762.4437,6.850097322968601,3.902780247144082,0.23769334478251802,0.889927041651523,6.099999999976717
312762.4447,8.086813102445927,5.674423737916642,1.5045210900792403,1.797625731723327,6.100999999966007
312762.4457,9.237864915727918,7.3923744762284045,2.7609426427761052,2.656302316051934,6.1019999999552965
312762.4467,10.223600836128956,8.983083491723189,3.9430793162439124,3.4115827723618573,6.102999999944586
312762.4477,10.96924345801297,10.378421128003332,4.991603306826278,4.015152177752876,6.103999999992084
312762.4487,11.410930109300617,11.520672284919474,5.856857290494081,4.4293473679976385,6.1049999999813735
312762.4497,11.500909921179705,12.36669088128502,6.5030887980814205,4.630834144050319,6.105999999970663
312762.4507,11.211437373999242,12.890840286916672,6.91139928480105,4.613002950896809,6.106999999959953
312762.4517,10.537023518539824,13.086459575506101,7.0811305022169,4.386837849560388,6.107999999949243
312762.4527,9.49485870388122,12.965733142030603,7.029559898718053,3.9801587354852432,6.10899999999674
312762.4537,8.12338957730851,12.557990235537869,6.789937888599944,3.435292086277457,6.10999999998603
312762.4547,6.479202146318457,11.906606947038078,6.408057425172748,2.8053760283858127,6.11099999997532
312762.4557,4.632515711018678,11.064812168570384,5.937685298924018,2.1496366594793743,6.11199999996461
312762.4567,2.661715058131195,10.090798705119438,5.435291742853462,1.5280717107805029,6.1129999999538995
312762.4577,0.6474290728395015,9.042601658711751,4.954580179602462,0.9960352576853346,6.114000000001397
312762.4587,-1.3333043915497305,7.9732227751945635,4.541336275016505,0.5992277918828214,6.114999999990687
312762.4597,-3.212267421136618,6.926450314625179,4.229083466118069,0.369558602292568,6.115999999979977
312762.4607,-4.934233686086912,5.933752250997013,4.035954108299038,0.3222657417765766,6.116999999969266
312762.4617,-6.459742544482096,5.012513388327736,3.9630689886502917,0.4545607929376866,6.117999999958556
312762.4627,-7.766276744218814,4.165754831458514,3.994574422123544,0.745922564727299,6.118999999947846
312762.4637,-8.847802894060335,3.3833300392690036,4.099329224549021,1.1600094806841748,6.119999999995343
312762.4647,-9.712793009313655,2.6444493620466156,4.234078459324434,1.6480095094456906,6.120999999984633
312762.4657,-10.38099020376714,1.9212581967186169,4.347811658561687,2.1531133867536187,6.121999999973923
312762.4667,-10.879298073827918,1.18309476641166,4.386893271122994,2.6156941544706918,6.122999999963213
312762.4677,-11.237250470239122,0.4009913816834567,4.300482582865701,2.978713287762812,6.1239999999525025
312762.4687,-11.48254908875259,-0.44803642118391535,4.045735683003736,3.1928566061040784,6.125
312762.4697,-11.637138151640539,-1.3773436906288021,3.592305229082665,3.220933068719927,6.12599999998929
312762.4707,-11.714220729408524,-2.3880173501247657,2.925722262701972,3.0411432356698658,6.12699999997858
312762.4717,-11.716516849869672,-3.4675084022150253,2.0493513446778335,2.6489342563444995,6.127999999967869
312762.4727,-11.635930187907796,-4.589672608931434,0.9847454043733874,2.0572939159271906,6.128999999957159
312762.4737,-11.454641319818556,-5.7162189217951065,-0.22962306699879786,1.2954843401287917,6.129999999946449
312762.4747,-11.147496185263018,-6.799427701871735,-1.5411268466929715,0.40636214968924667,6.130999999993946
312762.4757,-10.685423409158561,-7.785877879587557,-2.8869797405969777,-0.5574378218525013,6.131999999983236
312762.4767,-10.039506876189403,-8.620825466218308,-4.1990871707839,-1.5380760359425436,6.132999999972526
312762.4777,-9.185270998683087,-9.252814445297117,-5.4093012209839015,-2.4773954350193703,6.133999999961816
312762.4787,-8.106712223255268,-9.638080756294734,-6.45459894349399,-3.3216579987150445,6.134999999951106
312762.4797,-6.799633758618593,-9.744332525409819,-7.281717832143507,-4.025690725958923,6.135999999998603
312762.4807,-5.2739088723207095,-9.553552423929494,-7.850841461249085,-4.556067744086751,6.136999999987893
312762.4817,-3.554404564419266,-9.063564664517612,-8.138025238683952,-4.893057237769599,6.137999999977183
312762.4827,-1.680431398821518,-8.28823003757958,-8.136177292254485,-5.031188895953176,6.138999999966472
312762.4837,0.29626652954165944,-7.256265591948742,-7.854550345527068,-4.978436887129972,6.139999999955762
312762.4847,2.3148197802517965,-6.008817990367383,-7.316843268394832,-4.754151162000889,6.140999999945052
312762.4857,4.309545576997519,-4.596038279958379,-6.558141959670784,-4.385992551591242,6.141999999992549
312762.4867,6.2148649938387495,-3.0729992770717884,-5.621035750481605,-3.9062226466710173,6.142999999981839
312762.4877,7.970361074434491,-1.4953559669895404,-4.551317503455374,-3.347758519618415,6.143999999971129
312762.4887,9.525493411340541,0.08483134847213687,-3.3937063643734846,-2.740419337000637,6.144999999960419
312762.4897,10.84351206139436,1.6227136340169628,-2.188019114893551,-2.1077653573001975,6.145999999949709
312762.4907,11.904186152701712,3.08337325620629,-0.9661609966332668,-1.4648625889978084,6.146999999997206
312762.4917,12.705073270295625,4.443405711605062,0.24978443603495687,-0.8172054141313817,6.147999999986496
312762.4927,13.26119404066276,5.691238604488298,1.4482050613318562,-0.1609050279369386,6.148999999975786
312762.4937,13.603128876184185,6.826192778011222,2.6273212552034733,0.5158837930674708,6.149999999965075
312762.4947,13.773705752074973,7.85641848558826,3.7933646267503005,1.2304576184539806,6.150999999954365
312762.4957,13.823584336916197,8.79595345413175,4.95780346242781,2.0022573322643873,6.152000000001863
312762.4967,13.806149405204302,9.661238283280149,6.133942415852396,2.849123788390997,6.152999999991152
312762.4977,13.772194619255966,10.467479010456543,7.33328846961551,3.783532053061413,6.153999999980442
312762.4987,13.76489969015832,11.225261410147818,8.562099251169704,4.8092289995438415,6.154999999969732
312762.4997,13.8155773207228,11.937795180793062,9.818511007782542,5.918664372256217,6.155999999959022
312762.5007,13.940593637675322,12.599101184524805,11.090583801716974,7.0915304905962,6.156999999948312
312762.5017,14.13975398149574,13.193357761295601,12.355506728302192,8.294617758878976,6.157999999995809
312762.5027,14.39630572315482,13.695502466865351,13.580085645644152,9.483062649741738,6.158999999985099
312762.5037,14.678554791027253,14.073055276657307,14.722502077475687,10.602924681045979,6.159999999974389
312762.5047,14.942937861511725,14.289001345181282,15.735198053957044,11.594892981450949,6.160999999963678
312762.5057,15.138252737975783,14.305458623489843,16.568621210683023,12.39880486914909,6.161999999952968
312762.5067,15.210638889301386,14.087769380463978,17.175469734073534,12.958570312143499,6.163000000000466
312762.5077,15.108829215083098,13.608603742873264,17.51501749795032,13.227046214348974,6.1639999999897555
312762.5087,14.789169761114195,12.851653111711132,17.55708228741288,13.170398457435661,6.164999999979045
312762.5097,14.219928690609438,11.814523085734526,17.28522653713449,12.771528527725486,6.165999999968335
312762.5107,13.384486899098285,10.510506541683835,16.69884833739059,12.032221982730997,6.166999999957625
312762.5117,12.283113257920881,8.969021108361877,15.813924209893772,10.973790493974194,6.167999999946915
312762.5127,10.93316671111063,7.234621498849185,14.662294363344776,9.636116902094352,6.168999999994412
312762.5137,9.367721636301715,5.3646338075692395,13.289523208795348,8.075160470844025,6.169999999983702
312762.5147,7.632766832011362,3.425592608579168,11.751508844183752,6.359123111609936,6.170999999972992
312762.5157,5.783267040271227,1.4887793814436432,10.11014097265751,4.563602886658197,6.171999999962281
312762.5167,3.8784853898965816,-0.37474919201766166,8.428404629470611,2.7661563960657847,6.172999999951571
312762.5177,1.9770347449251318,-2.099201161035888,6.765387117430033,1.0407474079597347,6.173999999999069
312762.5187,0.1321487913084452,-3.628704321843524,5.1716613018548,-0.5474301904620933,6.1749999999883585
312762.5197,-1.612362458401092,-4.9211553811067645,3.685487820840984,-1.9463025015651476,6.175999999977648
312762.5207,-3.2250806122580387,-5.950915114360312,2.3302043150429723,-3.120064460425915,6.176999999966938
312762.5217,-4.688589896585325,-6.710107854152437,1.1130583192272687,-4.050866717314704,6.177999999956228
312762.5227,-5.999590583226616,-7.208413652458738,0.025602549485089915,-4.738917892317759,6.178999999945518
312762.5237,-7.167528111344915,-7.4713824846562495,-0.9543797641237449,-5.201028649868141,6.179999999993015
312762.5247,-8.211903765807403,-7.5374382792695815,-1.8596014184515948,-5.4677698548924445,6.180999999982305
312762.5257,-9.158568760886183,-7.453862971297228,-2.728964947984821,-5.5795455228445485,6.181999999971595
312762.5267,-10.03540922275876,-7.272145321135451,-3.6026427706094823,-5.5819799973705235,6.1829999999608845
312762.5277,-10.867894092522368,-7.043136742968687,-4.5170271450309345,-5.521078317547511,6.183999999950174
312762.5287,-11.674974646741475,-6.812471265246593,-5.500050934355158,-5.438633430018777,6.184999999997672
312762.5297,-12.465791145353144,-6.616677561748061,-6.567349148051832,-5.36832248869188,6.1859999999869615
312762.5307,-13.237562011335013,-6.480340590867356,-7.71965415448063,-5.332860186481234,6.186999999976251
312762.5317,-13.974911562077018,-6.414565622267485,-8.941701407690248,-5.342467275903197,6.187999999965541
312762.5327,-14.650745260832686,-6.416868521864019,-10.202778447207338,-5.394778007165749,6.188999999954831
312762.5337,-15.228621205162874,-6.472475673874106,-11.458891539513786,-5.476164387063516,6.190000000002328
312762.5347,-15.666409034222157,-6.556878543678427,-12.656366844844404,-5.564312285212949,6.190999999991618
312762.5357,-15.92088842420132,-6.639365129786982,-13.736561630353084,-5.631758534025866,6.191999999980908
312762.5367,-15.952832986477611,-6.687155402955958,-14.641249558306912,-5.650001663519059,6.192999999970198
312762.5377,-15.732062741480368,-6.669709582423293,-15.318173394370799,-5.593741279005989,6.1939999999594875
312762.5387,-15.241936271199727,-6.562762449723403,-15.726235665804637,-5.444788014396951,6.194999999948777
312762.5397,-14.482794102199318,-6.351665383881861,-15.83982533755684,-5.1952187900041595,6.195999999996275
312762.5407,-13.473954639622066,-6.033687634669113,-15.65185412353594,-4.849427580581616,6.1969999999855645
312762.5417,-12.253994982781366,-5.619032698987258,-15.175192655838686,-4.424832669334055,6.197999999974854
312762.5427,-10.879208996543632,-5.130454308488543,-14.442343489738114,-3.951136561824789,6.198999999964144
312762.5437,-9.42030891173152,-4.601496862784926,-13.503351010952384,-3.4681810780243043,6.199999999953434
312762.5447,-7.957607792281284,-4.073523381858637,-12.422112331799669,-3.022583229961747,6.201000000000931
312762.5457,-6.575071850350209,-3.5918166210141305,-11.271402700125359,-2.663463214811154,6.201999999990221
312762.5467,-5.353748944259869,-3.2011338269856213,-10.127049657821837,-2.437671767936117,6.202999999979511
312762.5477,-4.36515096251042,-2.941153350195186,-9.061770757275264,-2.3849806768881843,6.203999999968801
312762.5487,-3.6651858111602365,-2.842266221747053,-8.139222471445485,-2.533711733355103,6.2049999999580905
312762.5497,-3.2891970772376347,-2.9221362978166074,-7.408789951900223,-2.8972444664173285,6.20599999994738
312762.5507,-3.2485791469397673,-3.1833814560967886,-6.90158026079806,-3.471764857062126,6.206999999994878
312762.5517,-3.529300672256339,-3.6126224615776197,-6.627972040692695,-4.235503302798474,6.2079999999841675
312762.5527,-4.092502154955874,-4.181015770520038,-6.576932732283318,-5.149571306327001,6.208999999973457
312762.5537,-4.877149524795204,-4.846244380837287,-6.717153865851339,-6.16035606521931,6.209999999962747
312762.5547,-5.804542044602211,-5.555800690856696,-6.9998908161467455,-7.203284835971044,6.210999999952037
312762.5557,-6.78430679820407,-6.251270823604852,-7.363241155136232,-8.20764084922132,6.211999999999534
312762.5567,-7.721378892207393,-6.873233099714452,-7.737469562019928,-9.102012206937799,6.212999999988824
312762.5577,-8.52337869706031,-7.36632366487551,-8.05089876188171,-9.81989424698456,6.213999999978114
312762.5587,-9.107763040239158,-7.684005424676223,-8.235843074730097,-10.304950134155366,6.214999999967404
312762.5597,-9.40814926458716,-7.792603944341955,-8.234067345810004,-10.515465355957927,6.2159999999566935
312762.5607,-9.379287174734428,-7.67424303399443,-8.001308045649578,-10.427606272756497,6.216999999945983
312762.5617,-9.000276734231612,-7.32841651843652,-7.510489357608624,-10.037203598104291,6.217999999993481
312762.5627,-8.275787223243197,-6.772060984741009,-6.753395336838061,-9.359917893095886,6.2189999999827705
312762.5637,-7.235211505372986,-6.038134572445393,-5.740706984003101,-8.429792665968288,6.21999999997206
312762.5647,-5.929870421004375,-5.172845486124368,-4.500465887909666,-7.296347182415002,6.22099999996135
312762.5657,-4.4285503212735025,-4.231797486266353,-3.0751692365863548,-6.020491612661243,6.22199999995064
312762.5667,-2.811796042286195,-3.2754163358960557,-1.517820920523309,-4.669649326270224,6.222999999998137
312762.5677,-1.1654797641122823,-2.3640819502337447,0.11265093423345196,-3.312535506943529,6.223999999987427
312762.5687,0.4257851650397967,-1.5534103126791083,1.756155933816972,-2.014062070692896,6.224999999976717
312762.5697,1.88482079332555,-0.8901056895402183,3.35593032929879,-0.8308146977160439,6.225999999966007
312762.5707,3.1471428562136614,-0.40874011834283336,4.862345958459335,0.19251840543192975,6.2269999999552965
312762.5717,4.164893282631869,-0.12972027999671054,6.235716636413666,1.0254875790490157,6.227999999944586
312762.5727,4.909175164279769,-0.05858161634699263,7.4478932957635875,1.6528399810036412,6.228999999992084
312762.5737,5.370675148300191,-0.18661804041386798,8.482570678655303,2.0740801604556163,6.2299999999813735
312762.5747,5.558620490781239,-0.49272590654388904,9.334364017181718,2.301754035897085,6.230999999970663
312762.5757,5.498270241389893,-0.946225841471069,10.006840200500784,2.358698260876754,6.231999999959953
312762.5767,5.227267896401763,-1.5103367871946285,10.50979185216533,2.274591002375872,6.232999999949243
312762.5777,4.791274686934259,-2.1459217064123544,10.856114335718793,2.082198409977048,6.23399999999674
312762.5787,4.2393505238186435,-2.815108896930027,11.058678135614034,1.813728206713621,6.23499999998603
312762.5797,3.6195500028851675,-3.4844178407617097,11.127579497878278,1.497676703296973,6.23599999997532
312762.5807,2.9751549927121137,-4.127081027457119,11.068102094525049,1.1564911618076092,6.23699999996461
312762.5817,2.3418789007893146,-4.724346570678396,10.8796373204981,0.8052727387139071,6.2379999999538995
312762.5827,1.7462603461983057,-5.265660972323782,10.555699679796852,0.45162633086175236,6.239000000001397
312762.5837,1.205328146301702,-5.7477553006839175,10.085048201051887,0.09663481368150119,6.239999999990687
312762.5847,0.7274793625582194,-6.172778659832945,9.453797995252646,-0.263190370663055,6.240999999979977
312762.5857,0.31438197165156173,-6.545727812114881,8.648291090613219,-0.6332396772281865,6.241999999969266
312762.5867,-0.03639334266486501,-6.871500419764622,7.658404500065416,-1.0177563316425902,6.242999999958556
312762.5877,-0.32838110579065627,-7.151943473878264,6.480915632911094,-1.4167930377750977,6.243999999947846
312762.5887,-0.5632699643537147,-7.383273397573972,5.122526822389397,-1.8235652366258577,6.244999999995343
312762.5897,-0.7383825597780497,-7.554209277113037,3.602174083347125,-2.222555351810427,6.245999999984633
312762.5907,-0.8449227788340435,-7.645088928270284,1.952308202008533,-2.5886479892669967,6.246999999973923
312762.5917,-0.8672368655038033,-7.6281359919778655,0.21893283753975704,-2.887470661460174,6.247999999963213
312762.5927,-0.7832181073662638,-7.468924965497715,-1.5396949937580007,-3.0769887064876604,6.2489999999525025
312762.5937,-0.5658534678981574,-7.128962085621009,-3.255663833553216,-3.110269252096912,6.25
312762.5947,-0.18577838403843996,-6.569176264823916,-4.8551361236855275,-2.939200835343457,6.25099999998929
312762.5957,0.3854131490678378,-5.754008444942765,-6.262918563843587,-2.518845716872604,6.25199999997858
312762.5967,1.1714495572736263,-4.655710760131655,-7.407495823931847,-1.8120223917440175,6.252999999967869
312762.5977,2.1876579293412877,-3.2584270536209,-8.226093234756958,-0.7936748000427329,6.253999999957159
312762.5987,3.437655531366217,-1.5616282661680607,-8.669319773692022,0.5454129497695588,6.254999999946449
312762.5997,4.910848222792847,0.4174793656507755,-8.70497157693428,2.195951385422042,6.255999999993946
312762.6007,6.581057174632061,2.642872044879443,-8.320645906282463,4.12883886687011,6.256999999983236
312762.6017,8.406489851134172,5.060136030922153,-7.524919509320852,6.295403634205225,6.257999999972526
312762.6027,10.331140857384076,7.5984534156533785,-6.346973769708322,8.629245608446194,6.258999999961816
312762.6037,12.287565913857605,10.174050575251693,-4.834689640504336,11.049581403507943,6.259999999951106
312762.6047,14.20083219532681,12.694875689636588,-3.051374540271169,13.46585487078551,6.260999999998603
312762.6057,15.993324802083947,15.06615258058036,-1.0714077057551128,15.783254386445678,6.261999999987893
312762.6067,17.589994957357238,17.19636962308981,1.0248121252964861,17.908688907957156,6.262999999977183
312762.6077,18.923580599644517,19.003213461213885,3.1561718597490005,19.756726478610013,6.263999999966472
312762.6087,19.93932050572513,20.418952829179915,5.245938586747894,21.254996371122886,6.264999999955762
312762.6097,20.59872062188696,21.394818832998507,7.226205701318518,22.348600061131734,6.265999999945052
312762.6107,20.882012908525294,21.904011137007743,9.041320212538071,23.003162852591164,6.266999999992549
312762.6117,20.789065308482808,21.9430771429973,10.650023484204894,23.206279252621012,6.267999999981839
312762.6127,20.33864529727774,21.531552634231158,12.02616556167499,22.96724975037967,6.268999999971129
312762.6137,19.56609506882135,20.709904365065597,13.157993914704942,22.3151608427775,6.269999999960419
312762.6147,18.519628636520537,19.535963537179537,14.046157096384583,21.29550934542401,6.270999999949709
312762.6157,17.2555950265614,18.080170146480786,14.700688755626976,19.96570204567127,6.271999999997206
312762.6167,15.83315397859067,16.42004957409406,15.137335310855635,18.38986022488253,6.272999999986496
312762.6177,14.308870776750473,14.634405102102718,15.373651670515597,16.63341614264777,6.273999999975786
312762.6187,12.731748641675862,12.797727546010533,15.42530752770141,14.757999805991648,6.274999999965075
312762.6197,11.139178816689803,10.975294461252359,15.303020027433561,12.817078268942453,6.275999999954365
312762.6207,9.554203248284702,9.219359353147398,15.010459503380378,10.8527299074583,6.277000000001863
312762.6217,7.984360369349659,7.566723067295766,14.543370222283693,8.893820392605923,6.277999999991152
312762.6227,6.422232609130446,6.037845561093342,13.890017962308402,6.955706705138395,6.278999999980442
312762.6237,4.847649324529497,4.637509472105743,13.032933683814068,5.041444134106334,6.279999999969732
312762.6247,3.2313367165462195,3.356901384801576,11.951781761170198,3.1443234681260384,6.280999999959022
312762.6257,1.5396626692405073,2.1768463337948964,10.627056399535249,1.251435832148784,6.281999999948312
312762.6267,-0.2599866352821504,1.071828208061094,9.04421365601448,-0.6521366090649171,6.282999999995809
312762.6277,-2.193729019773561,0.01436294361538208,7.1977888733029145,-2.5789650058022855,6.283999999985099
312762.6287,-4.276155374881008,-1.0207313346861921,5.095036521188988,-4.53522757402844,6.284999999974389
312762.6297,-6.5062580324770165,-2.0526010018999905,2.758663245122621,-6.517413569055646,6.285999999963678
312762.6307,-8.864746270319955,-3.0915300170094926,0.22830256326624257,-8.510141259941873,6.286999999952968
312762.6317,-11.313050384835408,-4.137289318840496,-2.439505995832174,-10.485340715332864,6.288000000000466
312762.6327,-13.794159558261304,-5.1788075071651605,-5.172930270471847,-12.402914442168436,6.2889999999897555
312762.6337,-16.235267458515587,-6.195170089891155,-7.887995603991063,-14.212839869772335,6.289999999979045
312762.6347,-18.552029400537446,-7.157817850969331,-10.493065602523586,-15.858531954347095,6.290999999968335
312762.6357,-20.654082165255314,-8.033692667719095,-12.894313980002993,-17.281156067404154,6.291999999957625
312762.6367,-22.45135679636797,-8.788983405955573,-15.001744698000653,-18.424483372926364,6.292999999946915
312762.6377,-23.860637426950287,-9.39306468695773,-16.735254781406997,-19.239822688271683,6.293999999994412
312762.6387,-24.811792831004748,-9.822203098178052,-18.030218248695324,-19.690550073854865,6.294999999983702
312762.6397,-25.253134485861423,-10.0626304082965,-18.842102488503023,-19.75579137669363,6.295999999972992
312762.6407,-25.15543289056549,-10.11264885401841,-19.149707383621216,-19.43289037119832,6.296999999962281
312762.6417,-24.514245266088338,-9.98353288648239,-18.956735310860665,-18.73840846829951,6.297999999951571
312762.6427,-23.35036097144095,-9.699114858290786,-18.291545840720186,-17.70754017484214,6.298999999999069
312762.6437,-21.7083413886304,-9.294076623692003,-17.205108821253596,-16.391978136890422,6.2999999999883585
312762.6447,-19.65330243606939,-8.811101438207757,-15.767328465118903,-14.85640815213577,6.300999999977648
312762.6457,-17.266244007423055,-8.29715763946167,-14.06205405068189,-13.173943771192986,6.301999999966938
312762.6467,-14.638356781832941,-7.799275673856491,-12.181206409463993,-11.420909521842695,6.302999999956228
312762.6477,-11.864821250146163,-7.360234110603784,-10.218522849926442,-9.671441813246986,6.303999999945518
312762.6487,-9.038648773551984,-7.014582947562099,-8.263449771203451,-7.992391499631521,6.304999999993015
312762.6497,-6.245097171316571,-6.785402468549902,-6.395689673318692,-6.438980606535973,6.305999999982305
312762.6507,-3.557125926188909,-6.68212610035149,-4.680840019847828,-5.051591075339557,6.306999999971595
312762.6517,-1.0322456305936263,-6.699653017953978,-3.167452375208074,-3.8539529884698775,6.3079999999608845
312762.6527,1.2890260771196915,-6.818850788725019,-1.8857021288689038,-2.8528644807629924,6.308999999950174
312762.6537,3.383049961961973,-7.0084125068001,-0.8477053731873598,-2.0394286838825635,6.309999999997672
312762.6547,5.24140201131184,-7.227900046108134,-0.04936497757629832,-1.3916489246606667,6.3109999999869615
312762.6557,6.867919872113734,-7.431688351111773,0.5265125756736534,-0.8780960026150493,6.311999999976251
312762.6567,8.274837232947627,-7.573436593437749,0.9062011059193171,-0.4622629985083193,6.312999999965541
312762.6577,9.478464907581229,-7.6106593319240154,1.1205859946973167,-0.10716310339890263,6.313999999954831
312762.6587,10.494910679289765,-7.508959720770004,1.200719656155245,0.2202900150127566,6.315000000002328
312762.6597,11.33631335244625,-7.245518421652622,1.1738611223533344,0.5455505352424196,6.315999999991618
312762.6607,12.008002076434668,-6.811503101437594,1.0603976650212161,0.8837174356486067,6.316999999980908
312762.6617,12.5068866979856,-6.213167260206881,0.8719459379897047,1.2380740147064226,6.317999999970198
312762.6627,12.821249497667253,-5.471533458544804,0.6108015010010507,1.6000138658693723,6.3189999999594875
312762.6637,12.93195691785386,-4.620692425301012,0.2707617150327811,1.9503360913545416,6.319999999948777
312762.6647,12.814957076076894,-3.704882674282648,-0.1607977872534754,2.2617543891846945,6.320999999996275
312762.6657,12.444790289474104,-2.7746321199779223,-0.6998442379930342,2.5023431017593083,6.3219999999855645
312762.6667,11.798729341932077,-1.882332350256868,-1.3619627375242502,2.6395503210225923,6.322999999974854
312762.6677,10.861094796198786,-1.07766901353817,-2.158409907427158,2.6443527805279574,6.323999999964144
312762.6687,9.627265369184537,-0.4033431209851356,-3.0923963379645865,2.4951148440852324,6.324999999953434
312762.6697,8.106926737003185,0.10851305158110983,-4.156027835095043,2.1807454659534415,6.326000000000931
312762.6707,6.32617178283336,0.4388921727243378,-5.328271958382485,1.7028192251683336,6.326999999990221
312762.6717,4.32817433781287,0.5832095164618145,-6.574215817800241,1.0764330780361846,6.327999999979511
312762.6727,2.1722961095152438,0.5512360716565513,-7.845753525983709,0.3296986923863831,6.328999999968801
312762.6737,-0.0683608386433713,0.36569541258367955,-9.083699655282194,-0.4980917360818638,6.3299999999580905
312762.6747,-2.3107910350705474,0.05968332988932524,-10.221182476044442,-1.3594542368376303,6.33099999994738
312762.6757,-4.467009306441101,-0.32681662570096426,-11.188041620777721,-2.202567757531224,6.331999999994878
312762.6767,-6.449649436192423,-0.75096215238976,-11.91585175451885,-2.9756184786050914,6.3329999999841675
312762.6777,-8.177756007388323,-1.1712160752857002,-12.343126897585497,-3.6312074535915673,6.333999999973457
312762.6787,-9.582263687034603,-1.551226345769092,-12.42023576971416,-4.130387966371313,6.334999999962747
312762.6797,-10.610682514782752,-1.8630362040501915,-12.113579268203969,-4.445935049239239,6.335999999952037
312762.6807,-11.23057792243154,-2.0893098029945905,-11.408644935797254,-4.5645254074537736,6.336999999999534
312762.6817,-11.431543346753033,-2.224361115528664,-10.311653815815284,-4.487613977667282,6.337999999988824
312762.6827,-11.225500753287044,-2.273897446673072,-8.849642665800754,-4.230922741194396,6.338999999978114
312762.6837,-10.645316798896227,-2.2535209788881865,-7.068966736498079,-3.8225953219520035,6.339999999967404
312762.6847,-9.741874970354601,-2.1861592834278434,-5.032351464436746,-3.3002035778395586,6.3409999999566935
312762.6857,-8.579882146406883,-2.0987058780942927,-2.814751684373778,-2.706906611944579,6.341999999945983
312762.6867,-7.232798436748531,-2.0182336699423087,-0.4983818735277246,-2.0871469797984514,6.342999999993481
312762.6877,-5.777351426517868,-1.9681892653506183,1.8326494352223528,-1.4823148997422324,6.3439999999827705
312762.6887,-4.2881234574215545,-1.9649800553497503,4.097640010914738,-0.9268143277795793,6.34499999997206
312762.6897,-2.832681081749635,-2.0153281641745746,6.224084071447602,-0.44492443676973364,6.34599999996135
312762.6907,-1.4676517219869003,-2.1146893907117486,8.15156529156535,-0.04877024633316078,6.34699999995064
312762.6917,-0.23605060185368487,-2.246928568994414,9.834459638955982,0.2623952872845666,6.347999999998137
312762.6927,0.8339683974403792,-2.3853157858482086,11.243275134961298,0.5015275057432984,6.348999999987427
312762.6937,1.7289081109869664,-2.494773129932147,12.36458988435182,0.6918140733925487,6.349999999976717
312762.6947,2.4483836755004513,-2.535172442115033,13.19968467552171,0.8635896616216882,6.350999999966007
312762.6957,3.0024818656093943,-2.4653737497935078,13.762088751847148,1.0504579889381378,6.3519999999552965
312762.6967,3.4083702322575764,-2.2476128157716837,14.074355002234748,1.28502074404326,6.352999999944586
312762.6977,3.6865675508824576,-1.8518028001350673,14.164444380408606,1.594656345483517,6.353999999992084
312762.6987,3.8573092347792244,-1.2593140496409376,14.062122896963311,1.9977909524387985,6.3549999999813735
312762.6997,3.9374183237828184,-0.46583799731993997,13.795756167741526,2.501059388554054,6.355999999970663
312762.7007,3.9380270865671987,0.5169776144372759,13.389828624375756,3.0976687809545402,6.356999999959953
312762.7017,3.863393123668532,1.6613220251360292,12.863423466900326,3.7671608272885444,6.357999999949243
312762.7027,3.710927660304994,2.9245091154521448,12.22978496903579,4.476630959367405,6.35899999999674
312762.7037,3.472415537998577,4.251683067330193,11.496958883922767,5.183317654346733,6.35999999998603
312762.7047,3.1362705419747177,5.579728881169398,10.669382610857532,5.838336942100867,6.36099999997532
312762.7057,2.690550220930217,6.842056514828398,9.750187424147583,6.391219382835893,6.36199999996461
312762.7067,2.12636372984852,7.973839518799599,8.743891857683993,6.79482114654493,6.3629999999538995
312762.7077,1.4412540408758374,8.9172400238552,7.659117025518842,7.010135962835736,6.364000000001397
312762.7087,0.642127857264122,9.626146770217101,6.510946418953996,7.010535360925058,6.364999999990687
312762.7097,-0.2526559773944441,10.069992343735741,5.32258564857583,6.785011130763689,6.365999999979977
312762.7107,-1.2123491645880913,10.236296421622624,4.1260485907362145,6.340082210552262,6.366999999969266
312762.7117,-2.1942231461852937,10.131696189980698,2.96169845237057,5.70015008092788,6.367999999958556
312762.7127,-3.1453826656594974,9.781362486743436,1.876595179367357,4.906230764494573,6.368999999947846
312762.7137,-4.005894262958001,9.226847718914938,0.9217319940935775,4.013144030157931,6.369999999995343
312762.7147,-4.712998053126888,8.522555271385196,0.14837027091711522,3.0853868281908525,6.370999999984633
312762.7157,-5.206048475953115,7.731146365475498,-0.3962095975789943,2.192044280853239,6.371999999973923
312762.7167,-5.431739324750571,6.918297173043503,-0.6731446311893572,1.4011855307377423,6.372999999963213
312762.7177,-5.349119964685483,6.147277265719311,-0.6561752287088699,0.7742442513349496,6.3739999999525025
312762.7187,-4.9339089142809,5.473834666936641,-0.33514484811347334,0.3608894304743622,6.375
312762.7197,-4.181658949888528,4.941841566373307,0.2815767003471951,0.19485037405097694,6.37599999998929
312762.7207,-3.1094208939585264,4.58008117169935,1.1660504488535444,0.2910745080183613,6.37699999997858
312762.7217,-1.7556830971686237,4.400447273287412,2.2712912938983782,0.6444754330017032,6.377999999967869
312762.7227,-0.17851844279724297,4.397694312644446,3.5334015091971427,1.2303831973386496,6.378999999957159
312762.7237,1.5479639911057543,4.550729870499917,4.875209992908751,2.0066526436117376,6.379999999946449
312762.7247,3.338605390275306,4.825297460025496,6.211168575209003,2.917233733993931,6.380999999993946
312762.7257,5.103225135618833,5.177769058232543,7.4531322645958875,3.896874378091895,6.381999999983236
312762.7267,6.75318846943874,5.559666145471766,8.51655766563639,4.876524120094398,6.382999999972526
312762.7277,8.207951984714343,5.922464660869741,9.326602442426612,5.788945757333448,6.383999999961816
312762.7287,9.4010161989651,6.222219114121119,9.823604311899995,6.574027312944831,6.384999999951106
312762.7297,10.284758609930726,6.423565826852731,9.967461901577146,7.183320050133603,6.385999999998603
312762.7307,10.833714316525862,6.5027322626185375,9.740528573227726,7.583406070805515,6.386999999987893
312762.7317,11.046006354448185,6.449281902390337,9.148756331493535,7.757813877603748,6.387999999977183
312762.7327,10.942792140609786,6.2664519561403385,8.22097887811239,7.707340934902329,6.388999999966472
312762.7337,10.565770738455456,5.970081756115053,7.006386796963018,7.448795110461361,6.389999999955762
312762.7347,9.972971453913258,5.586269137423408,5.570408522647936,7.012317139280082,6.390999999945052
312762.7357,9.233201043815328,5.148016815016093,3.9893530741890406,6.4375794413339404,6.391999999992549
312762.7367,8.419649729430946,4.691228547431127,2.3442810596746986,5.769259964711798,6.392999999981839
312762.7377,7.60323352473668,4.250476260347528,0.7146386390201521,5.052253380218788,6.393999999971129
312762.7387,6.84627462655771,3.854978425825978,-0.8277916047113679,4.327099986439534,6.394999999960419
312762.7397,6.197090272992815,3.5252051776001307,-2.2241005465040553,3.6260836269658956,6.395999999949709
312762.7407,5.685976307514735,3.2704595461722197,-3.4321804307466253,2.970376903195393,6.396999999997206
312762.7417,5.322942443611911,3.0876835377982195,-4.429048276014779,2.3685023935226655,6.397999999986496
312762.7427,5.0973939414739435,2.961612663306072,-5.211391692982494,1.81624340962775,6.398999999975786
312762.7437,4.979774254358241,2.8662654319106275,-5.794328681084317,1.2979904389055688,6.399999999965075
312762.7447,4.925002042837162,2.7676188927433216,-6.208537289613531,0.7893643868477419,6.400999999954365
312762.7457,4.877370743413254,2.627200964111152,-6.496059561674233,0.26082930970985585,6.402000000001863
312762.7467,4.776445041704137,2.4062369482657777,-6.705202999226827,-0.31809189425956447,6.402999999991152
312762.7477,4.563398575753094,2.069930509491708,-6.885040837068408,-0.9744456994406221,6.403999999980442
312762.7487,4.187199250086272,1.5914441269604511,-7.080042557560268,-1.727782535016803,6.404999999969732
312762.7497,3.6100660011344625,0.9551721147015168,-7.325345775791911,-2.5868296175463175,6.405999999959022
312762.7507,2.8116918026911337,0.1589679449297797,-7.643112159087182,-3.547260258497351,6.406999999948312
312762.7517,1.7918451807151623,-0.7849099646997821,-8.040300282516373,-4.590808456509952,6.407999999995809
312762.7527,0.5711152108207714,-1.8502437438488253,-8.508048035747581,-5.6858432377989185,6.408999999985099
312762.7537,-0.8102616651808041,-2.9986652585618785,-9.022700010192244,-6.789371191594153,6.409999999974389
312762.7547,-2.29537706038729,-4.182666397488177,-9.548356361059355,-7.850292355758472,6.410999999963678
312762.7557,-3.8151471992841923,-5.3495284710942235,-10.040674172532487,-8.813608157066803,6.411999999952968
312762.7567,-5.293912174434743,-6.44579676960692,-10.451534173164806,-9.62518295592456,6.413000000000466
312762.7577,-6.6556225720108655,-7.4218708652560705,-10.734105852364598,-10.236602461897604,6.4139999999897555
312762.7587,-7.830050340520209,-8.236267809075974,-10.84780994998232,-10.60965863628121,6.414999999979045
312762.7597,-8.758466014189734,-8.859145358127089,-10.7626918146963,-10.720023070807285,6.415999999968335
312762.7607,-9.398281534244079,-9.274742917470075,-10.462780443394143,-10.559746115019632,6.416999999957625
312762.7617,-9.7262608922402,-9.482502160915118,-9.948109824269778,-10.138329914292262,6.417999999946915
312762.7627,-9.740039320612341,-9.496757167809646,-9.23521135960731,-9.482259237717056,6.418999999994412
312762.7637,-9.457852192799104,-9.345022924929518,-8.356035639599359,-8.633021323504272,6.419999999983702
312762.7647,-8.916541660248374,-9.065047633737025,-7.355414097284138,-7.643790622370775,6.420999999972992
312762.7657,-8.168066414778135,-8.700915090325992,-6.2873113554258575,-6.575082215576946,6.421999999962281
312762.7667,-7.274872996693374,-8.298576639307262,-5.21023389853572,-5.489776396452058,6.422999999951571
312762.7677,-6.304583462313655,-7.901248682063239,-4.182239142967794,-4.447976846849203,6.423999999999069
312762.7687,-5.324505343784753,-7.545125845338993,-3.256023709786808,-3.5021802008387626,6.4249999999883585
312762.7697,-4.396471514470033,-7.255830203102154,-2.474557693307161,-2.693204093391406,6.425999999977648
312762.7707,-3.5724704812910493,-7.04594617481575,-1.8676744896625679,-2.0472470499708306,6.426999999966938
312762.7717,-2.8914371503123966,-6.91388568365068,-1.4499292220916482,-1.5743439808973918,6.427999999956228
312762.7727,-2.3774497998071227,-6.844198988446361,-1.2199126822333908,-1.2683462862030657,6.428999999945518
312762.7737,-2.0394335817813594,-6.809305814957688,-1.161064533277439,-1.108408780542872,6.429999999993015
312762.7747,-1.8723190099233598,-6.772482673316706,-1.2438834084266086,-1.0618211022405395,6.430999999982305
312762.7757,-1.8594606910056983,-6.691819053464239,-1.4292967961717593,-1.087893027113109,6.431999999971595
312762.7767,-1.9760010972633053,-6.524759541308882,-1.6728433302820716,-1.1425036054312911,6.4329999999608845
312762.7777,-2.1927781234728987,-6.232790134827864,-1.9292449065061688,-1.1828628897224767,6.433999999950174
312762.7787,-2.480331638282795,-5.7858109245517735,-2.156913025600211,-1.1720180666426705,6.434999999997672
312762.7797,-2.8125670123598385,-5.165765461579951,-2.3219458228363035,-1.0826645603759832,6.4359999999869615
312762.7807,-3.1696818061272407,-4.369166896766496,-2.4012278532227858,-0.8998941790060769,6.436999999976251
312762.7817,-3.5400500043476124,-3.4082656306120027,-2.3843380614092355,-0.6226194981353826,6.437999999965541
312762.7827,-3.920877002490969,-2.310732677946376,-2.274093010823302,-0.2635458225302381,6.438999999954831
312762.7837,-4.3175755857679174,-1.117874739352138,-2.085690197415279,0.15229377781418257,6.440000000002328
312762.7847,-4.741954252277326,0.11846258897803248,-1.8445564436000033,0.590282851433412,6.440999999991618
312762.7857,-5.2094399445273725,1.3400214763653095,-1.5831351165052423,1.0099619097609753,6.441999999980908
312762.7867,-5.7356642110258305,2.4869078066612977,-1.3369506026184923,1.3693836803794786,6.442999999970198
312762.7877,-6.332814104050443,3.5025736783520114,-1.140358894406427,1.6296424874302544,6.4439999999594875
312762.7887,-7.00617933123692,4.338543951837427,-1.0224225228847375,1.7591208852559468,6.444999999948777
312762.7897,-7.751312161895625,4.958448812637077,-1.0033336956184247,1.7370257082334195,6.445999999996275
312762.7907,-8.552157739905727,5.340990615334384,-1.0917529857875161,1.5558569333360792,6.4469999999855645
312762.7917,-9.38041557974774,5.481574942991716,-1.283338025005929,1.2225591171922547,6.447999999974854
312762.7927,-10.196267763090118,5.392463002407259,-1.5606167078655544,0.7582361613805639,6.448999999964144
312762.7937,-10.950468238355255,5.101442863349995,-1.894224386994427,0.19645286111516289,6.449999999953434
312762.7947,-11.587644833174545,4.649157061641334,-2.2453878473165587,-0.4197129635028626,6.451000000000931
312762.7957,-12.050535547485307,4.085350193906094,-2.5694140524859588,-1.0415798076978555,6.451999999990221
312762.7967,-12.28477665025941,3.4644001716221307,-2.819841106554141,-1.619349654074179,6.452999999979511
312762.7977,-12.243792801086785,2.8405611569169453,-2.9528425013935706,-2.1067315629317065,6.453999999968801
312762.7987,-11.893316022449296,2.263368743021105,-2.9314500599385127,-2.465246154338849,6.4549999999580905
312762.7997,-11.21508370740431,1.7736366294231516,-2.729178532533173,-2.6677864461930376,6.45599999994738
312762.8007,-10.209334181861644,1.4004111320233013,-2.332693770937241,-2.701083597653148,6.456999999994878
312762.8017,-8.895825390312229,1.1591516982380587,-1.7432608990776512,-2.566834110518982,6.4579999999841675
312762.8027,-7.313237886723119,1.0512819643685485,-0.9768295071860337,-2.2813773159124797,6.458999999973457
312762.8037,-5.516974424716058,1.0651190960257486,-0.06274761298479023,-1.8739554466225663,6.459999999962747
312762.8047,-3.575520353599446,1.1780527773836296,0.9587684430767422,-1.3837290544345067,6.460999999952037
312762.8057,-1.5656668507163616,1.3597227883184184,2.0401583446727884,-0.8558440318475892,6.461999999999534
312762.8067,0.432990847037223,1.5758477537796702,3.13068887802072,-0.3369407467068547,6.462999999988824
312762.8077,2.3437965703457344,1.7922968786253455,4.180861235383514,0.12944861715659853,6.463999999978114
312762.8087,4.098508454832252,1.9789772419199578,5.146622000851717,0.507157092485985,6.464999999967404
312762.8097,5.64202005258416,2.1131333058171817,5.992966391245798,0.7708710495720733,6.4659999999566935
312762.8107,6.935910693503057,2.1817201440364227,6.696584489002121,0.9085024139059358,6.466999999945983
312762.8117,7.960518082061765,2.1826108771878463,7.247298225285641,0.9222089406261205,6.467999999993481
312762.8127,8.71536517918691,2.1245218611200594,7.648159086571559,0.8279611663819421,6.4689999999827705
312762.8137,9.217928481992987,2.0256738438034447,7.914211748912463,0.6536997097822476,6.46999999997206
312762.8147,9.500890830345744,1.9113399590165534,8.070063606282877,0.436267663532375,6.47099999996135
312762.8157,9.60816368166837,1.8105486382912146,8.146520995648343,0.21742591778229567,6.47199999995064
312762.8167,9.590077625415908,1.7522994197207522,8.176647733447055,0.03935213381519303,6.472999999998137
312762.8177,9.49821470990675,1.7617030693174758,8.191660823700941,-0.0599225265608442,6.473999999987427
312762.8187,9.380384697489385,1.8564689075835565,8.217095837056984,-0.050676313827205534,6.474999999976717
312762.8197,9.276226946960977,2.044130442133944,8.269648558450113,0.08516578073865116,6.475999999966007
312762.8207,9.213852334809037,2.3203283593085366,8.355032431424132,0.35186578879677965,6.4769999999552965
312762.8217,9.207832147558502,2.668364659394393,8.467089547903386,0.7391087647076672,6.477999999944586
312762.8227,9.258703819230911,3.060113594080989,8.588266365030778,1.2227342691593064,6.478999999992084
312762.8237,9.354010259312403,3.458236747993467,8.691426396324553,1.7669086017602813,6.4799999999813735
312762.8247,9.470735399768412,3.8195148218323625,8.742834530771644,2.3275394432615135,6.480999999970663
312762.8257,9.578858664072746,4.098990853136924,8.706025034271544,2.8566094181018533,6.481999999959953
312762.8267,9.645639118727098,4.254530571259838,8.546169943160649,3.307010710414567,6.482999999949243
312762.8277,9.640167162992602,4.25135437525088,8.234506129875205,3.637408623955158,6.48399999999674
312762.8287,9.537694980751292,4.066087439032374,7.752363912750358,3.816653365490538,6.48499999998603
312762.8297,9.323279324774445,3.689910890238489,7.094369638847749,3.827297446807419,6.48599999997532
312762.8307,8.994339432814751,3.130474764314564,6.270466765288907,3.667857522708024,6.48699999996461
312762.8317,8.561842285835038,2.412345364617943,5.306508024960104,3.3535765973464815,6.4879999999538995
312762.8327,8.049966346176726,1.5758952735299152,4.24330517968077,2.915584254320981,6.489000000001397
312762.8337,7.494249754979423,0.6746907195128704,3.1341699607415796,2.398505397584655,6.489999999990687
312762.8347,6.938384497871957,-0.22842565377969745,2.041126035093782,1.8567173052415182,6.490999999979977
312762.8357,6.429958893329736,-1.066232100821725,1.030103159131316,1.3495862456738592,6.491999999969266
312762.8367,6.0155628977120505,-1.7725832782513782,0.16552836412255512,0.9361157866219378,6.492999999958556
312762.8377,5.735742859650254,-2.2879432765297465,-0.495205114687949,0.6694994215222733,6.493999999947846
312762.8387,5.62031704392945,-2.5645012276693793,-0.9068890325788216,0.5920842535181323,6.494999999995343
312762.8397,5.684537628105698,-2.5704063971679902,-1.0407947893824179,0.7312186471968369,6.495999999984633
312762.8407,5.926511006869822,-2.2927349503383283,-0.8877052336432016,1.0963780008970287,6.496999999973923
312762.8417,6.326172911230664,-1.7389124134299316,-0.45938626787118464,1.677846442451323,6.497999999963213
312762.8427,6.845968959873573,-0.9364538477997764,0.21166150770104122,2.4470892655644545,6.4989999999525025
312762.8437,7.433228773768468,0.06896498364170543,1.0741774080517303,3.358794838358633,6.5
312762.8447,8.024058387469788,1.2169418535309406,2.061692787427393,4.354410346274678,6.50099999998929
312762.8457,8.548427261132668,2.4369888519159764,3.0973698261465645,5.366857748700514,6.50199999997858
312762.8467,8.936007254885467,3.653973381027503,4.0997202967194415,6.326007839185114,6.502999999967869
312762.8477,9.122243198834191,4.793883402209365,4.988718928303938,7.16442157683831,6.503999999957159
312762.8487,9.0541059484766,5.789415631547443,5.691791790525941,7.822845346100289,6.504999999946449
312762.8497,8.695002091494777,6.584906523067183,6.149173560112188,8.254972494027514,6.505999999993946
312762.8507,8.02838775131085,7.1401912516206805,6.318187228553496,8.43105473513904,6.506999999983236
312762.8517,7.05975033111062,7.433079029674745,6.1760999696893455,8.340056771119096,6.507999999972526
312762.8527,5.816770473011532,7.460263892126803,5.72133988621674,7.990185028923278,6.508999999961816
312762.8537,4.3476427656300825,7.2366358913972855,4.973007660473512,7.4077734294007636,6.509999999951106
312762.8547,2.7177018881111956,6.793104436533488,3.968770525200259,6.6346608951017565,6.510999999998603
312762.8557,1.004654834465269,6.173179277433483,2.761368915900507,5.724332345884976,6.511999999987893
312762.8567,-0.7071550640495038,5.428662753624287,1.414085244783747,4.737204209470411,6.512999999977183
312762.8577,-2.3329422460841682,4.614879376368961,-0.00439157007689088,3.735506788325206,6.513999999966472
312762.8587,-3.7935852924731455,3.7858991377141256,-1.4252304282685406,2.7782427532396077,6.514999999955762
312762.8597,-5.021115568520766,2.990196852328544,-2.784379875732042,1.9166815408353481,6.515999999945052
312762.8607,-5.963123744630616,2.2671334061207022,-4.026724823653307,1.1907860315558307,6.516999999992549
312762.8617,-6.585728402482652,1.6445521939931589,-5.1091435086531485,0.6268673601777295,6.517999999981839
312762.8627,-6.874891664343681,1.1376649337494167,-6.002248023004568,0.23663641481694667,6.518999999971129
312762.8637,-6.836025743622938,0.7492675906596491,-6.690727683807663,0.017679385829221336,6.519999999960419
312762.8647,-6.4919959465419925,0.47119275531517946,-7.172354750070992,-0.04475626226301662,6.520999999949709
312762.8657,-5.879774275480437,0.28678283991090536,-7.455842623029552,0.025094130361113253,6.521999999997206
312762.8667,-5.046119124907486,0.17407086586815215,-7.557854889781515,0.19709749992066078,6.522999999986496
312762.8677,-4.042739151937922,0.10929182444574123,-7.499538983581811,0.43913235960072156,6.523999999975786
312762.8687,-2.921435679776858,0.07032355118458207,-7.30299381057251,0.7208953351670973,6.524999999965075
312762.8697,-1.7297050027100347,0.03967368653267168,-6.988073454898404,1.0171997079708175,6.525999999954365
312762.8707,-0.5072216225992834,0.006686334257732969,-6.569880350776144,1.3104236028011476,6.527000000001863
312762.8717,0.7164776839037933,-0.03126771768007395,-6.057216568027263,1.5918626530483992,6.527999999991152
312762.8727,1.9229204754778138,-0.06873936122141766,-5.452150127935225,1.8618633384137988,6.528999999980442
312762.8737,3.1041957171368693,-0.09328434059116522,-4.750726224125087,2.1287462083630238,6.529999999969732
312762.8747,4.261131280386452,-0.08755252570214772,-3.9447240133918546,2.4066592739670476,6.530999999959022
312762.8757,5.400398909477904,-0.032143410104848225,-3.0242415663888966,2.7126176364280026,6.531999999948312
312762.8767,6.530904032454098,0.09109811379679142,-1.9807967651572278,3.0630741804290516,6.532999999995809
312762.8777,7.659890545860718,0.29572383637971694,-0.8105701714068169,3.4704189057337342,6.533999999985099
312762.8787,8.789218796676131,0.5876532353724438,0.48260640559286533,3.9398158481763494,6.534999999974389
312762.8797,9.912255836870806,0.9628367135093014,1.8848922928322105,4.466755354348623,6.535999999963678
312762.8807,11.011752758221935,1.405908574593308,3.3710281905925985,5.035628791470686,6.536999999952968
312762.8817,12.058981132510088,1.8900298349871285,4.904097134577724,5.619529619417802,6.538000000000466
312762.8827,13.014269704469909,2.378001569542847,6.436560092095764,6.181359408260662,6.5389999999897555
312762.8837,13.828936706448495,2.824599938301674,7.912538129544773,6.6761823768008135,6.539999999979045
312762.8847,14.448467144895918,3.1799572255132467,9.271181431518183,7.05464088692737,6.540999999968335
312762.8857,14.816652824018616,3.3937018285571496,10.450847506960862,7.267130258389895,6.541999999957625
312762.8867,14.880308958155673,3.419485386737134,11.393718815347277,7.268345839145209,6.542999999946915
312762.8877,14.594115471266514,3.2194757996509344,12.05043342651008,7.021767268109694,6.543999999994412
312762.8887,13.925110191522856,2.7683859894106235,12.384287360309266,6.503639432383042,6.544999999983702
312762.8897,12.856387368368644,2.0566411976668753,12.37459599156914,5.706047702384802,6.545999999972992
312762.8907,11.389625831004334,1.0923595718545913,12.018872056496276,4.63876328472583,6.546999999962281
312762.8917,9.546179781698058,-0.09807485541124719,11.333582910444239,3.329645636481832,6.547999999951571
312762.8927,7.366601006653297,-1.4709407973563093,10.353379772717041,1.823522222429734,6.548999999999069
312762.8937,4.908610793608985,-2.9675666192727506,9.128834187653027,0.17960859664452944,6.5499999999883585
312762.8947,2.2436882636384974,-4.517997577415554,7.722857924958315,-1.532330024383285,6.550999999977648
312762.8957,-0.5474255917570287,-6.045646548160006,6.206108157756321,-3.2367543779329173,6.551999999966938
312762.8967,-3.379905349780164,-7.472539719167947,4.651777523154486,-4.857652353973991,6.552999999956228
312762.8977,-6.1702331574200135,-8.72471315119905,3.130228771507631,-6.323902716324466,6.553999999945518
312762.8987,-8.841320199829655,-9.737302111261414,1.7039499787185806,-7.574230874243784,6.554999999993015
312762.8997,-11.326902204121694,-10.458894039696967,0.4232768471683528,-8.561323781436911,6.555999999982305
312762.9007,-13.574828208601453,-10.854785191993154,-0.6767439277931527,-9.254750061971919,6.556999999971595
312762.9017,-15.548974130063028,-10.908883725651567,-1.5780850088980716,-9.642444390050361,6.5579999999608845
312762.9027,-17.229651440958715,-10.624128347683493,-2.27993173483388,-9.730651057018768,6.558999999950174
312762.9037,-18.612532647253797,-10.021429356593144,-2.797354723329586,-9.54236732201588,6.559999999997672
312762.9047,-19.706264019254682,-9.137274648220517,-3.1586233326791104,-9.114468336146558,6.5609999999869615
312762.9057,-20.52906713034743,-8.020263846474098,-3.401450687722595,-8.493818323444357,6.561999999976251
312762.9067,-21.1047308479584,-6.7269274953747065,-3.5685612106454134,-7.732765227303535,6.562999999965541
312762.9077,-21.458454183084545,-5.31724617626377,-3.703032965990977,-6.884469083294514,6.563999999954831
312762.9087,-21.613011624754677,-3.850300998008791,-3.8438834814768987,-5.998522727837231,6.565000000002328
312762.9097,-21.58567480416763,-2.3804607381524705,-4.022337336310852,-5.117286273726539,6.565999999991618
312762.9107,-21.386241029054982,-0.9544448102240034,-4.259139649087319,-4.2732777597841745,6.566999999980908
312762.9117,-21.016398509738988,0.39049802278755197,-4.563168948772932,-3.487849352418766,6.567999999970198
312762.9127,-20.470511925424958,1.6271776016288964,-4.9314667395231755,-2.771242678898993,6.5689999999594875
312762.9137,-19.73775500121042,2.7378324371106366,-5.350652931077866,-2.1239718427990404,6.569999999948777
312762.9147,-18.80536487790607,3.7124276146540334,-5.799551020275924,-1.5393429196690191,6.570999999996275
312762.9157,-17.662661823252098,4.546140583889203,-6.252719093286775,-1.0067983059272525,6.5719999999855645
312762.9167,-16.305380936172053,5.236381608697441,-6.684485339150396,-0.5156853992888325,6.572999999974854
312762.9177,-14.73981035550613,5.779745878471195,-7.0730298459188745,-0.05900086689818079,6.573999999964144
312762.9187,-12.986229195147958,6.169302714894486,-7.404044060956338,0.36334062888087776,6.574999999953434
312762.9197,-11.0811891119166,6.392592823154182,-7.673536929337724,0.7421202740539802,6.576000000000931
312762.9207,-9.07828206485366,6.430630298136906,-7.88943911731921,1.0576318988808417,6.576999999990221
312762.9217,-7.047174654994696,6.258099272441413,-8.071776156112877,1.279901113947594,6.577999999979511
312762.9227,-5.070853686090045,5.844806166540361,-8.251326345336123,1.370362484216898,6.578999999968801
312762.9237,-3.241202745312956,5.158310254268867,-8.466835741941118,1.284898055853423,6.5799999999580905
312762.9247,-1.653198883071368,4.167521524915947,-8.761015163994532,0.9779944692539839,6.58099999994738
312762.9257,-0.39816543113464936,2.846939141610136,-9.175677715677757,0.40765064122359657,6.581999999994878
312762.9267,0.44337287004500975,1.1811180670637613,-9.746476446296484,-0.4594237759109413,6.5829999999841675
312762.9277,0.8086241282838625,-0.8310952561968347,-10.497759967162649,-1.6428277338883113,6.583999999973457
312762.9287,0.6586372307211055,-3.1730195525661786,-11.438072793003084,-3.144214851495971,6.584999999962747
312762.9297,-0.016983297522870137,-5.807705824603887,-12.556785172904307,-4.944226226726755,6.585999999952037
312762.9307,-1.1972205720616127,-8.676947626448182,-13.822247444523672,-7.0009758024432,6.586999999999534
312762.9317,-2.8289660471839695,-11.701947004245538,-15.181734313813964,-9.250322863161404,6.587999999988824
312762.9327,-4.828659824021038,-14.785704544576113,-16.563286653692327,-11.608009945405277,6.588999999978114
312762.9337,-7.086200147580684,-17.817047334643917,-17.879386947667438,-13.973577513231868,6.589999999967404
312762.9347,-9.4708808469117,-20.67605788054645,-19.03223532373672,-16.23580474499178,6.5909999999566935
312762.9357,-11.838943654913626,-23.240534383684142,-19.92024209159831,-18.27928390602061,6.591999999945983
312762.9367,-14.042195054351236,-25.393010888685794,-20.445234083740708,-19.99162745055645,6.592999999993481
312762.9377,-15.93704691045913,-27.027804539497165,-20.51979722982936,-21.27074252555169,6.5939999999827705
312762.9387,-17.393304746874826,-28.05754261444128,-20.07415395349297,-22.031593185310562,6.59499999997206
312762.9397,-18.302050134132145,-28.4186559114025,-19.062003726806463,-22.211907938159037,6.59599999996135
312762.9407,-18.582042003947286,-28.075404647469977,-17.464836018305807,-21.776375969860876,6.59699999995064
312762.9417,-18.184188402596902,-27.0221212701179,-15.294349723609619,-20.719001728362624,6.597999999998137
312762.9427,-17.093803493113512,-25.283500773638895,-12.592770673322446,-19.063442921503114,6.598999999987427
312762.9437,-15.330549483542681,-22.912929981401536,-9.43103463210985,-16.861327087728224,6.599999999976717
312762.9447,-12.94615273080059,-19.98900813545253,-5.904981308372518,-14.188711121826286,6.600999999966007
312762.9457,-10.020160433702866,-16.61055739825242,-2.129869081622217,-11.141000985664268,6.6019999999552965
312762.9467,-6.65415333621534,-12.890540294488527,1.766344426855762,-7.8267714280754355,6.602999999944586
312762.9477,-2.964937803294654,-8.949381140980288,5.650416262019322,-4.361006918647622,6.603999999992084
312762.9487,0.9227013691925897,-4.908223221154672,9.391341360935977,-0.8583181582481918,6.6049999999813735
312762.9497,4.883102033095345,-0.8826402474177131,12.867407067570955,2.57332894297828,6.605999999970663
312762.9507,8.796143119389304,3.0227385603829133,15.972259223773152,5.837900630578915,6.606999999959953
312762.9517,12.552539461738284,6.718329424350668,18.619563382152144,8.855234799884625,6.607999999949243
312762.9527,16.057703888777148,10.132189409039547,20.745982462980873,11.563405841449814,6.60899999999674
312762.9537,19.23402181068295,13.211020605374841,22.3123509001036,13.919442348039313,6.60999999998603
312762.9547,22.021544738086533,15.919646304325807,23.303089609349087,15.89848126465895,6.61099999997532
312762.9557,24.377261258049323,18.239159936204285,23.724060286992458,17.491584862223625,6.61199999996461
312762.9567,26.273232201528362,20.164060832690584,23.59918715678014,18.702562868156903,6.6129999999538995
312762.9577,27.693969001043662,21.698769423765693,22.966267514549326,19.544220419390356,6.614000000001397
312762.9587,28.63348233677393,22.853951424053275,21.87244121217506,20.03448627936825,6.614999999990687
312762.9597,29.09242850591724,23.643073206566818,20.369790026056936,20.192862538774904,6.615999999979977
312762.9607,29.07573484906722,24.079560649121017,18.511491914355233,20.037579057262082,6.616999999969266
312762.9617,28.590999081066627,24.17484722549592,16.34886833096902,19.58373989423863,6.617999999958556
312762.9627,27.647840610837605,23.937483532565924,13.929544836551436,18.842625346094202,6.618999999947846
312762.9637,26.258247984446953,23.373351914750597,11.296808947727351,17.822175037904902,6.619999999995343
312762.9647,24.43783015139391,22.48689982979177,8.490108814770629,16.528539216838194,6.620999999984633
312762.9657,22.207755134937717,21.283187531458818,5.54650637624102,14.968461236905735,6.621999999973923
312762.9667,19.597061264157883,19.770451583990766,2.502792258175707,13.152156920370153,6.622999999963213
312762.9677,16.64496400372239,17.96282514968061,-0.602102588655788,11.09629591076035,6.6239999999525025
312762.9687,13.40276236118518,15.88283487600809,-3.7247947617736625,8.826672376660834,6.625
312762.9697,9.934975114308747,13.563314446148418,-6.8156195799359045,6.380179181357172,6.62599999998929
312762.9707,6.319406214346503,11.048434109777617,-9.817614977198714,3.805768073739373,6.62699999997858
312762.9717,2.6459437618484754,8.393637483693352,-12.666557266624492,1.1641815398889297,6.627999999967869
312762.9727,-0.9859727479008874,5.664392013033036,-15.292171308306683,-1.4736308434152716,6.628999999957159
312762.9737,-4.47113997928531,2.9337858162209183,-17.62050678416172,-4.029360333938812,6.629999999946449
312762.9747,-7.703416654338651,0.27912820578998265,-19.577340681155437,-6.421264508731441,6.630999999993946
312762.9757,-10.581249000175047,-2.2221787984923362,-21.09234714836,-8.568864729677536,6.631999999983236
312762.9767,-13.01346466627104,-4.497146457278947,-22.10368171557035,-10.398019894063859,6.632999999972526
312762.9777,-14.924851754849685,-6.481681610772787,-22.56256702282237,-11.845928644277775,6.633999999961816
312762.9787,-16.261033382320804,-8.124634129415716,-22.437447861081644,-12.865603546771561,6.634999999951106
312762.9797,-16.992189531167142,-9.391029323733417,-21.717306607070043,-13.429396733486154,6.635999999998603
312762.9807,-17.115263676890113,-10.264174165491895,-20.41379399826207,-13.531233904811282,6.636999999987893
312762.9817,-16.65441419655724,-10.746426640138528,-18.561928610597853,-13.187325118894798,6.637999999977183
312762.9827,-15.659618619572901,-10.85853966291038,-16.219241968788953,-12.435255780790031,6.638999999966472
312762.9837,-14.203498513041778,-10.637622817448815,-13.46338308171579,-11.331506735550375,6.639999999955762
312762.9847,-12.376589100476298,-10.133893814765017,-10.388333202132428,-9.947594367387072,6.640999999945052
312762.9857,-10.281415706027115,-9.406504421635397,-7.099505594284269,-8.365146450684767,6.641999999992549
312762.9867,-8.025845568940321,-8.518811610448749,-3.708104153874327,-6.670325188478107,6.642999999981839
312762.9877,-5.716248200834824,-7.533515400979557,-0.32517938268735197,-4.948066236440368,6.643999999971129
312762.9887,-3.4510139232782917,-6.508095312091308,2.9441556616874376,-3.276616084776201,6.644999999960419
312762.9897,-1.3149467535400765,-5.49094646818605,6.005905441081428,-1.7228187334260148,6.645999999949709
312762.9907,0.6250326200026814,-4.518547199843592,8.781383445623035,-0.33852927489370394,6.646999999997206
312762.9917,2.322557962285779,-3.6138891744612542,11.210124836016382,0.8415760380916117,6.647999999986496
312762.9927,3.752695119451305,-2.786278511218654,13.251349813097542,1.8006559090661038,6.648999999975786
312762.9937,4.9110211298580735,-2.0324839214372243,14.883941067036956,2.5388326038740288,6.649999999965075
312762.9947,5.811061444573341,-1.3390785730574266,16.105033241245742,3.0709404994569396,6.650999999954365
312762.9957,6.480387403985426,-0.6857087026434684,16.927434699426986,3.423167104144577,6.652000000001863
312762.9967,6.955791863774539,-0.04893504620128166,17.37620023204869,3.6289561188148984,6.652999999991152
312762.9977,7.278036046837664,0.5937586352816867,17.484738345796746,3.724601938099784,6.653999999980442
312762.9987,7.486688419283481,1.2602073129526439,17.290862472954384,3.744982112442216,6.654999999969732
312762.9997,7.615554299989599,1.96044456915016,16.833179789941646,3.719847416098862,6.655999999959022
312763.0007,7.6891254385442735,2.6945406976529194,16.14815645458646,3.671021328319546,6.656999999948312
312763.0017,7.72036889593363,3.451619918466829,15.268109983238027,3.6107589860515388,6.657999999995809
312763.0027,7.710035060662602,4.210156753350001,14.22026751678626,3.541390371402542,6.658999999985099
312763.0037,7.647509175906244,4.939521073197076,13.026904556374857,3.4562363071757076,6.659999999974389
312763.0047,7.513074493051967,5.602614018811296,11.70645526041307,3.341652436025335,6.660999999963678
312763.0057,7.28131330160629,6.159325521875518,10.275375355730969,3.179939122947946,6.661999999952968
312763.0067,6.925258391599701,6.5704595811931545,8.750453512863736,2.952765877554622,6.663000000000466
312763.0077,6.420833005365205,6.801724217120269,7.151215523299233,2.644706371844554,6.6639999999897555
312763.0087,5.751089231303226,6.827374103158142,5.502053225041673,2.246469673696704,6.664999999979045
312763.0097,4.909775759443278,6.633126258433483,3.833738302665527,1.757445957624532,6.665999999968335
312763.0107,3.90383384544991,6.218039797651797,2.184047151133575,1.1872574048207853,6.666999999957625
312763.0117,2.7545285160261304,5.595152701552796,0.5973203644329637,0.5561099764050458,6.667999999946915
312763.0127,1.497059852276835,4.790791883965878,-0.8771007316274715,-0.10613133452932703,6.668999999994412
312763.0137,0.17865305558898437,3.842605324620733,-2.187489844586895,-0.7620851070511019,6.669999999983702
312763.0147,-1.144719213824125,2.7964935737948506,-3.2832086980780795,-1.370023874748087,6.670999999972992
312763.0157,-2.4126882977487694,1.7027297020410255,-4.1187345224822565,-1.887768829572717,6.671999999962281
312763.0167,-3.5655086752709537,0.6116405420067693,-4.657859968845624,-2.2769217024941972,6.672999999951571
312763.0177,-4.549265850865165,-0.4307306653315888,-4.8776410261773675,-2.5070014357515,6.673999999999069
312763.0187,-5.320768002807169,-1.3865542986144939,-4.771668428730157,-2.5590514371660453,6.6749999999883585
312763.0197,-5.851639818018437,-2.229347651912552,-4.352281241288176,-2.4283254619087598,6.675999999977648
312763.0207,-6.131207762575255,-2.9459976065051907,-3.651424548410569,-2.1257427640890656,6.676999999966938
312763.0217,-6.167877520444485,-3.537466083963479,-2.719969139071234,-1.6779183027728353,6.677999999956228
312763.0227,-5.988845720000549,-4.018100347091291,-1.6254490778387731,-1.1257103639752344,6.678999999945518
312763.0237,-5.638145635225403,-4.4136076315567285,-0.44832002102202306,-0.5213726273891816,6.679999999993015
312763.0247,-5.173184948810871,-4.757886200782546,0.7230171080817415,0.075463804671119,6.680999999982305
312763.0257,-4.660077434769092,-5.089019546270299,1.7980598303866053,0.602634370984315,6.681999999971595
312763.0267,-4.168185505435271,-5.4448256302132005,2.690456680350618,1.000680320655752,6.6829999999608845
312763.0277,-3.7643657184803834,-5.858400160553546,3.3241595672090103,1.218006714815741,6.683999999950174
312763.0287,-3.507437215679466,-6.354096994868133,3.638962592585665,1.2154823741514205,6.684999999997672
312763.0297,-3.443370973156663,-6.944349210372032,3.5949571005022376,0.9700508937411977,6.6859999999869615
312763.0307,-3.6016279025980986,-7.627654790785347,3.175519769147714,0.477009786727391,6.686999999976251
312763.0317,-3.9929631690934606,-8.38793888082255,2.388573778707072,-0.2492634604111896,6.687999999965541
312763.0327,-4.608873507670174,-9.195370999422542,1.2660112281854412,-1.1762157551455126,6.688999999954831
312763.0337,-5.422707676300474,-10.008573516335419,-0.13867572219731095,-2.255578335587996,6.690000000002328
312763.0347,-6.392302878039684,-10.778021014706232,-1.7543519328328037,-3.4271616712938817,6.690999999991618
312763.0357,-7.463867441767732,-11.450312341680736,-3.497444296798847,-4.623639578522501,6.691999999980908
312763.0367,-8.576716186628225,-11.972909842595179,-5.27794836302806,-5.775884472819428,6.692999999970198
312763.0377,-9.668390743160629,-12.29889217700719,-7.0057253714351635,-6.8183652105765225,6.6939999999594875
312763.0387,-10.679669725221167,-12.391263100442075,-8.596560767722421,-7.69411533044268,6.694999999948777
312763.0397,-11.55899543677427,-12.226399229221714,-9.977486175235699,-8.358823107695276,6.695999999996275
312763.0407,-12.265912259198249,-11.796301279737488,-11.090943201783409,-8.783681483300938,6.6969999999855645
312763.0417,-12.773219866729105,-11.109427774887731,-11.897481860324692,-8.956757223979691,6.697999999974854
312763.0427,-13.067680914513446,-10.190026680258907,-12.376827684678078,-8.882782824353493,6.698999999964144
312763.0437,-13.14927398278821,-9.076025644415997,-12.527306194951795,-8.5814276564042,6.699999999953434
312763.0447,-13.029133066316449,-7.815681366450312,-12.363766372065939,-8.084251817879702,6.701000000000931
312763.0457,-12.72644959465413,-6.463309490060366,-11.914281620122159,-7.430672728887446,6.701999999990221
312763.0467,-12.264718290480356,-5.074506535856375,-11.216014345067455,-6.663368453122285,6.702999999979511
312763.0477,-11.66777351264263,-3.701325904038349,-10.31069865204402,-5.823593833552344,6.703999999968801
312763.0487,-10.956081491629652,-2.387875897488838,-9.240218499366657,-4.946890754281133,6.7049999999580905
312763.0497,-10.143724118202067,-1.1667683217529206,-8.042734117163521,-4.059631650399528,6.70599999994738
312763.0507,-9.236434621057555,-0.05676517464786072,-6.749740376104542,-3.1767498722876892,6.706999999994878
312763.0517,-8.230932070224773,0.9381440760529355,-5.384334171159464,-2.3008899669977723,6.7079999999841675
312763.0527,-7.115661508622679,1.8281401523224867,-3.9608344921270775,-1.42306707280843,6.708999999973457
312763.0537,-5.872893703684034,2.6354999299859014,-2.4857520030697766,-0.5247714188404566,6.709999999962747
312763.0547,-4.481988417277654,3.3912475734331418,-0.9599592665559729,0.41869370417003365,6.710999999952037
312763.0557,-2.9234929242728396,4.130853090822975,0.6182172653284628,1.4339797738505962,6.711999999999534
312763.0567,-1.183646789162034,4.889395759551871,2.2493637220543476,2.5450010760341506,6.712999999988824
312763.0577,0.7411948714519737,5.696665680076171,3.929246458004846,3.7682705920882924,6.713999999978114
312763.0587,2.840717838775766,6.572687668846624,5.6454407724415905,5.108757300568236,6.714999999967404
312763.0597,5.08784353335731,7.524116604093838,7.374750532027039,6.55671624428547,6.7159999999566935
312763.0607,7.43733418940718,8.541875386007812,9.081773836444619,8.085856144368053,6.716999999945983
312763.0617,9.826055196487829,9.600293147115073,10.718857659109945,9.653086493666372,6.717999999993481
312763.0627,12.174988697618435,10.657862924490995,12.227545500068434,11.19993852272628,6.7189999999827705
312763.0637,14.392927130594998,11.659587731204716,13.54147005837165,12.655596200114159,6.71999999997206
312763.0647,16.3816130759419,12.540736012193042,14.5904927194263,13.941319567555674,6.72099999996135
312763.0657,18.041948183718134,13.23169577700987,15.30575815197826,14.975907897484861,6.72199999995064
312763.0667,19.2807830414694,13.663513635490277,15.625228886248268,15.681747276053628,6.722999999998137
312763.0677,20.017732502625336,13.773640135676901,15.499201914259027,15.990926097859441,6.723999999987427
312763.0687,20.19144397831782,13.511382161807251,14.895293727270902,15.85088846097714,6.724999999976717
312763.0697,19.76478147849362,12.842588414882739,13.802413820938204,15.229130875604222,6.725999999966007
312763.0707,18.728472760948126,11.75316252190943,12.233326798281256,14.116528684675341,6.7269999999552965
312763.0717,17.102893108790212,10.251103367025594,10.22552248258837,12.528997449371726,6.727999999944586
312763.0727,14.937815362094145,8.366903661223915,7.840260774289265,10.507340013331412,6.728999999992084
312763.0737,12.310127414615497,6.152283010481423,5.159819445661814,8.115288291022857,6.7299999999813735
312763.0747,9.319689566387316,3.677377066422595,2.2831333579843287,5.4359051545670205,6.730999999970663
312763.0757,6.083659118272741,1.0266361606702306,-0.6798425123539418,2.5666515441008384,6.731999999959953
312763.0767,2.7297342398436837,-1.7062070001488654,-3.614599990002719,-0.38646577905086277,6.732999999949243
312763.0777,-0.6111477698013843,-4.423669995076881,-6.408855244258984,-3.3151795373225394,6.73399999999674
312763.0787,-3.81208837580525,-7.030093317306732,-8.95909219960524,-6.115168639006688,6.73499999998603
312763.0797,-6.756929357736554,-9.436805977611368,-11.176351468159854,-8.691696467680561,6.73599999997532
312763.0807,-9.345891420457223,-11.566491497622783,-12.990816193203486,-10.964257175846184,6.73699999996461
312763.0817,-11.499771176645382,-13.356451018943504,-14.354858186912008,-12.869909947028656,6.7379999999538995
312763.0827,-13.162456882093167,-14.76057507494069,-15.244349129997602,-14.365111507789651,6.739000000001397
312763.0837,-14.301679879540444,-15.749964178393075,-15.658198769822949,-15.42600126746408,6.739999999990687
312763.0847,-14.9080776524721,-16.3122678880689,-15.616239996367472,-16.047237194574205,6.740999999979977
312763.0857,-14.992790575765186,-16.44992966914953,-15.155724439092813,-16.239609997208078,6.741999999969266
312763.0867,-14.583934212096809,-16.177619271440648,-14.32680836257725,-16.026766047548946,6.742999999958556
312763.0877,-13.722371458389546,-15.519196620174919,-13.187486488713892,-15.441436253839228,6.743999999947846
312763.0887,-12.457246922828958,-14.504575800260024,-11.798464085639191,-14.521592911980338,6.744999999995343
312763.0897,-10.841736998484034,-13.166842940523702,-10.218442821931363,-13.306937880925046,6.745999999984633
312763.0907,-8.929415250939968,-11.539930000478563,-8.500235705634111,-11.836065999342422,6.746999999973923
312763.0917,-6.7715404266195565,-9.657063700794822,-6.688027505873498,-10.144554322470496,6.747999999963213
312763.0927,-4.415453817195498,-7.5501042978514565,-4.815969683492107,-8.264110670469261,6.7489999999525025
312763.0937,-1.9041367662943807,-5.249773921378978,-2.9081559938376094,-6.222786602015858,6.75
312763.0947,0.7231579645063952,-2.786661114718017,-0.9798809049467326,-4.046133751375737,6.75099999998929
312763.0957,3.4294112419883707,-0.19278913000948927,0.9600479016360968,-1.7590716581353927,6.75199999997858
312763.0967,6.1777874737320015,2.4965389538983564,2.906276547273252,0.6118487096334956,6.752999999967869
312763.0977,8.929400227893248,5.240947052518172,4.853553771286691,3.0361498751697242,6.753999999957159
312763.0987,11.641284726612664,7.993578097818341,6.793489817410251,5.477473060886434,6.754999999946449
312763.0997,14.264944704979875,10.70037087939805,8.711834752777666,7.892301746621515,6.755999999993946
312763.1007,16.745776023457417,13.300252670719543,10.586624041352204,10.229629760049429,6.756999999983236
312763.1017,19.023569693779073,15.72638172970417,12.387441545385823,12.431737410903748,6.757999999972526
312763.1027,21.03417297850935,17.908458421734625,14.075926471542616,14.43611621119593,6.758999999961816
312763.1037,22.712251811924176,19.77600167382516,15.60751378370907,16.17845207843701,6.759999999951106
312763.1047,23.99496504657119,21.26237133207984,16.93426125220416,17.596452094356525,6.760999999998603
312763.1057,24.826244856351614,22.309218936529277,18.008494500536276,18.634193909062237,6.761999999987893
312763.1067,25.161290356118364,22.870979978563167,18.78690659144688,19.246600983787616,6.762999999977183
312763.1077,24.97083266097505,22.918987688814052,19.234690620195508,19.403609391324963,6.763999999966472
312763.1087,24.24472497375075,22.444796130942052,19.329268554293034,19.09359742637915,6.764999999955762
312763.1097,22.994452264651713,21.462349193379335,19.063209008717315,18.325698170629707,6.765999999945052
312763.1107,21.254238567625112,20.00871827622764,18.445998151713496,17.130703462614072,6.766999999992549
312763.1117,19.0805484722724,18.143247637249107,17.504434668168273,15.560387548361705,6.767999999981839
312763.1127,16.549922064857736,15.945082017728677,16.281551288719374,13.6852189367468,6.768999999971129
312763.1137,13.755235848234074,13.509193781118833,14.8341089128104,11.590576405083008,6.769999999960419
312763.1147,10.800631276062793,10.941162954860856,13.228850632851026,9.371725567122466,6.770999999949709
312763.1157,7.795482871022794,8.351080265736433,11.53782794831239,7.127932283481975,6.771999999997206
312763.1167,4.847876453813711,5.847029159786711,9.833207597031208,4.956176631286262,6.772999999986496
312763.1177,2.0581246617210964,3.5286493241152996,8.182024934255692,2.9449772963426435,6.773999999975786
312763.1187,-0.4871445481829365,1.481286421130347,6.641362598785966,1.1688361047691314,6.774999999965075
312763.1197,-2.719832014384359,-0.22881022543755306,5.254399610120093,-0.316234656503536,6.775999999954365
312763.1207,-4.593737726322648,-1.5578649733594572,4.047698873274196,-1.4757296230364039,6.777000000001863
312763.1217,-6.08617814892219,-2.4862703055665505,3.029987452009222,-2.2979651583444065,6.777999999991152
312763.1227,-7.197725953479473,-3.0184832373760457,2.192544647171626,-2.793593205356149,6.778999999980442
312763.1237,-7.950115613717319,-3.1811620605884103,1.5111612126154346,-2.9933746422399206,6.779999999969732
312763.1247,-8.382523917965447,-3.0197319566380605,0.9494835842375806,-2.94442656593306,6.780999999959022
312763.1257,-8.546581911586005,-2.5937009835939517,0.4634242952267547,-2.705292584876845,6.781999999948312
312763.1267,-8.500589974196602,-1.9711514463019284,0.006216775395617306,-2.340287862130764,6.782999999995809
312763.1277,-8.303479445446818,-1.222896142370758,-0.46637034813272926,-1.9136315908360335,6.783999999985099
312763.1287,-8.009085278893759,-0.41680853740074336,-0.9911611588989895,-1.483893004941224,6.784999999974389
312763.1297,-7.661262241787092,0.38719111149592655,-1.5935129397617818,-1.0992416246079095,6.785999999963678
312763.1307,-7.29029486010373,1.1410825622371068,-2.2844628549299477,-0.7939115469629588,6.786999999952968
312763.1317,-6.910926148318315,1.8113220748219603,-3.059359415600431,-0.5861709020037641,6.788000000000466
312763.1327,-6.522173839481745,2.3798797816347252,-3.898114934692308,-0.4779424061832862,6.7889999999897555
312763.1337,-6.108930089018646,2.8437172682022425,-4.767059034053028,-0.4560631144352287,6.789999999979045
312763.1347,-5.645167877735474,3.212832307547968,-5.622218369479201,-0.49501606418635286,6.790999999968335
312763.1357,-5.098421089276058,3.5071307152886524,-6.41370903220206,-0.5608283543796087,6.791999999957625
312763.1367,-4.435080482814731,3.752491103888094,-7.090819009796571,-0.6157224667639563,6.792999999946915
312763.1377,-3.6259665567243715,3.9764569810551813,-7.607289263359081,-0.6230405209857749,6.793999999994412
312763.1387,-2.6516104952871724,4.204015880922293,-7.926280155442854,-0.5519409188199802,6.794999999983702
312763.1397,-1.506698981867303,4.453905019474317,-8.024537365826502,-0.3813951820488977,6.795999999972992
312763.1407,-0.20321540545405542,4.735819757052003,-7.895345521758645,-0.10308671398868463,6.796999999962281
312763.1417,1.2280683655060876,5.048801555107018,-7.549971488805344,0.2770747055638767,6.797999999951571
312763.1427,2.737940472747728,5.380956285366921,-7.0174417249357015,0.7389697481091361,6.798999999999069
312763.1437,4.260955051893027,5.710514356726568,-6.342655624665826,1.249812237713946,6.7999999999883585
312763.1447,5.719337240557483,6.008105094956303,-5.58299425699348,1.7670613202815217,6.800999999977648
312763.1457,7.028267611696653,6.239992946912956,-4.803726240903478,2.24241198325435,6.801999999966938
312763.1467,8.102095104762572,6.37192470446477,-4.072626107081014,2.626467374843037,6.802999999956228
312763.1477,8.860938329294607,6.373174680356569,-3.4542945735029367,2.8736303251188122,6.803999999945518
312763.1487,9.237096302788219,6.220354614190635,-3.0046977704941873,2.9467310190016254,6.804999999993015
312763.1497,9.180704665802335,5.900578831992532,-2.7664211454246903,2.820934635186967,6.805999999982305
312763.1507,8.664140457282743,5.41364025754162,-2.7650658343404855,2.486544037986984,6.806999999971595
312763.1517,7.684790955729374,4.772952623656879,-3.007107455273555,1.9504210651361689,6.8079999999608845
312763.1527,6.265948958827481,4.005138596105907,-3.4794000956849924,1.2358847812806102,6.808999999950174
312763.1537,4.4557640714597495,3.1482800434413827,-4.150355022885669,0.38109294273005484,6.809999999997672
312763.1547,2.3243511943940107,2.2489817466032855,-4.972669075481964,-0.563940669597833,6.8109999999869615
312763.1557,-0.04068269696691475,1.3585200150997958,-5.887336542490861,-1.5414097260881117,6.811999999976251
312763.1567,-2.5398990618742587,0.528441044980978,-6.828563939874224,-2.490474043214207,6.812999999965541
312763.1577,-5.068386514699042,-0.19396882129804868,-7.72913009853737,-3.3522638379713054,6.813999999954831
312763.1587,-7.522280951004148,-0.7699031520765677,-8.525701333812014,-4.074660012619533,6.815000000002328
312763.1597,-9.804913103411627,-1.1725356379604976,-9.163625785333213,-4.616406906469229,6.815999999991618
312763.1607,-11.832101658899296,-1.3894584216752233,-9.600790351353384,-4.950182888790918,6.816999999980908
312763.1617,-13.536205444755698,-1.423818427127496,-9.810221712526117,-5.064359011996203,6.817999999970198
312763.1627,-14.86867673874907,-1.2940372355958722,-9.781239775555253,-4.9633061476626,6.8189999999594875
312763.1637,-15.801006333672301,-1.032137105782517,-9.519114800682152,-4.6662536060181505,6.819999999948777
312763.1647,-16.324104712342454,-0.680830684896795,-9.043324399727252,-4.204843060061821,6.820999999996275
312763.1657,-16.44630744154701,-0.2896515431983236,-8.384639335888052,-3.6196467724442014,6.8219999999855645
312763.1667,-16.190312786791225,0.08950486670731518,-7.581374779229979,-2.956016382441207,6.822999999974854
312763.1677,-15.589444291584762,0.40700395481677193,-6.675216099117655,-2.259688393976159,6.823999999964144
312763.1687,-14.68367304319616,0.6198180245466226,-5.707058691901254,-1.5725892972199804,6.824999999953434
312763.1697,-13.515830344911409,0.6951837669855018,-4.713287230071982,-0.9292555365320553,6.826000000000931
312763.1707,-12.128392988438847,0.6132283130078509,-3.7228629791511136,-0.3542143165447016,6.826999999990221
312763.1717,-10.561136208495023,0.36832338419255656,-2.755494573373124,0.13943234866584323,6.827999999979511
312763.1727,-8.849833495487527,-0.03094703655991798,-1.8210475737079563,0.5501053421042621,6.828999999968801
312763.1737,-7.026050371098839,-0.5631831923729728,-0.9202135735969078,0.8865512117811262,6.8299999999580905
312763.1747,-5.11794517186788,-1.1967734617246195,-0.04632428229843591,1.1655085215587369,6.83099999994738
312763.1757,-3.151868118072569,-1.8934303061617839,0.8119263541579519,1.4085147487215075,6.831999999994878
312763.1767,-1.154453403844453,-2.6122917300444244,1.6671859299955816,1.6382203537261417,6.8329999999841675
312763.1777,0.8451619951136162,-3.3141671283042773,2.5299689683451314,1.8746283961534684,6.833999999973457
312763.1787,2.813378066563281,-3.965493791303767,3.405419896136119,2.1316865646136938,6.834999999962747
312763.1797,4.710790030159051,-4.54160102705079,4.29070619622954,2.414622717791796,6.835999999952037
312763.1807,6.491757950882609,-5.028949881615251,5.17336956129117,2.7183384347111827,6.836999999999534
312763.1817,8.105078318368239,-5.426120826827483,6.030863158651677,3.027065197974409,6.837999999988824
312763.1827,9.495821466722038,-5.743449261435288,6.831378428287489,3.31535561850926,6.838999999978114
312763.1837,10.608260584439156,-6.001346645725646,7.535927714575518,3.5503407956604995,6.839999999967404
312763.1847,11.389683067121855,-6.227479888007313,8.101513335736566,3.695048734861669,6.8409999999566935
312763.1857,11.794757480485947,-6.453099814585221,8.485093228957563,3.7124615497811813,6.841999999945983
312763.1867,11.7900422273309,-6.7088993560322,8.647960451887537,3.5699030042366946,6.842999999993481
312763.1877,11.358175053033445,-7.020834396293297,8.560098282274076,3.2433018564749285,6.8439999999827705
312763.1887,10.501281753913332,-7.406349635527912,8.204060497586264,2.720875600300688,6.84499999997206
312763.1897,9.243189268771639,-7.871417089931265,7.577959423447134,2.0058242543357103,6.84599999996135
312763.1907,7.630119360595882,-8.408719103505533,6.6972198260502696,1.117710987572734,6.84699999995064
312763.1917,5.729666463710923,-8.997198133026185,5.594867766702882,0.09232754452471759,6.847999999998137
312763.1927,3.628015347264822,-9.60306259942947,4.3202596386639,-1.0200138287829814,6.848999999987427
312763.1937,1.4255167373671784,-10.18219462610795,2.9363047108729243,-2.1576677604409147,6.849999999976717
312763.1947,-0.7691036228850199,-10.683765447934542,1.5153802645143661,-3.252081773734676,6.850999999966007
312763.1957,-2.845490149753166,-11.054741352073057,0.13426759144789033,-4.233094224745389,6.8519999999552965
312763.1967,-4.698841751798,-11.244869288876382,-1.1314630061814395,-5.034644240733168,6.852999999944586
312763.1977,-6.236962107274541,-11.211676088246803,-2.2131295062302176,-5.600382869472069,6.853999999992084
312763.1987,-7.386595571034143,-10.925004179768274,-3.0541740286142205,-5.888671510405643,6.8549999999813735
312763.1997,-8.098513953035733,-10.370641261875846,-3.614486010826566,-5.8764991637556765,6.855999999970663
312763.2007,-8.350914280006162,-9.552678538365024,-3.8734187197072845,-5.561940310358404,6.856999999959953
312763.2017,-8.150823784996211,-8.494344877290098,-3.831220252788081,-4.964902205017119,6.857999999949243
312763.2027,-7.533373745691601,-7.237202047007919,-3.5087425149041964,-4.126062342917951,6.85899999999674
312763.2037,-6.558983531883834,-5.838736105350934,-2.945447870683098,-3.10405969049141,6.85999999998603
312763.2047,-5.308673980960338,-4.3685279132172115,-2.1958885454698143,-1.9711616888361625,6.86099999997532
312763.2057,-3.877888729118798,-2.9033176136093912,-1.3249736515133215,-0.8077681114209975,6.86199999996461
312763.2067,-2.3693287337394557,-1.5213812522898393,-0.40244964306019904,0.30378056380349205,6.8629999999538995
312763.2077,-0.8853872871062728,-0.29670270020696565,0.5029085565238087,1.285558633006073,6.864000000001397
312763.2087,0.47919717898693676,0.7065555089772257,1.3288734398569342,2.070027577409901,6.864999999990687
312763.2097,1.643877947904826,1.4388048385347207,2.0246092655149193,2.605113371527084,6.865999999979977
312763.2107,2.5475110667923158,1.8685993512805064,2.5543567516879175,2.857958421132774,6.866999999969266
312763.2117,3.151847258167343,1.9847200916551675,2.8996404325303375,2.817038787297311,6.867999999958556
312763.2127,3.4430670839636446,1.796609643507583,3.0598209744241034,2.49248600323562,6.868999999947846
312763.2137,3.4312965069372336,1.3331402459857804,3.0509709569270513,1.9146151361053352,6.869999999995343
312763.2147,3.148217532008726,0.6398481944629603,2.903210193520345,1.1308215034012485,6.870999999984633
312763.2157,2.6430525230016317,-0.22509708283449842,2.656780603016307,0.20115255867491608,6.871999999973923
312763.2167,1.977336077077276,-1.1958115601728412,2.3572572571666313,-0.8070244873476458,6.872999999963213
312763.2177,1.2189828266927374,-2.2040521413297776,2.0503704655794093,-1.8247652042604883,6.8739999999525025
312763.2187,0.4362050293046202,-3.1845285881711027,1.7769462520239458,-2.7871800261521718,6.875
312763.2197,-0.30817316227117775,-4.079706596003039,1.5684563688873463,-3.6384577788375725,6.87599999998929
312763.2207,-0.9615157018041329,-4.8436954060295205,1.4436058235288256,-4.335851342214806,6.87699999997858
312763.2217,-1.484902168284762,-5.444909161769168,1.4062820107213765,-4.852304080719606,6.877999999967869
312763.2227,-1.8551321515164159,-5.867314543586996,1.4450551356448877,-5.177531921970211,6.878999999957159
312763.2237,-2.0651120072259985,-6.110215830669827,1.5342677759999541,-5.317527054659237,6.879999999946449
312763.2247,-2.1226901404489853,-6.186668861961921,1.636596925023902,-5.292600388380446,6.880999999993946
312763.2257,-2.048156349071281,-6.120743788082664,1.7068296472413578,-5.13421654844525,6.881999999983236
312763.2267,-1.8707443656707543,-5.943960714236583,1.6964772856786945,-4.880984207949846,6.882999999972526
312763.2277,-1.624562807866405,-5.691292508613333,1.5587741176973964,-4.574235750936454,6.883999999961816
312763.2287,-1.344420374737732,-5.397158803125934,1.253571933224178,-4.253657181179801,6.884999999951106
312763.2297,-1.062003011273962,-5.091822189170285,0.7516552822032536,-3.9534098143864984,6.885999999998603
312763.2307,-0.8028055148320258,-4.798543693967567,0.03806151060052935,-3.6991221671803496,6.886999999987893
312763.2317,-0.5841240056334436,-4.531765721314205,-0.8859109208994004,-3.506030430452405,6.887999999977183
312763.2327,-0.41428921481118014,-4.29647607955537,-2.0021929429905643,-3.3784194298513746,6.888999999966472
312763.2337,-0.2931770443898352,-4.0887783001642655,-3.276974755074579,-3.3103760195767484,6.889999999955762
312763.2347,-0.21388735263415626,-3.89756426718453,-4.6631663599888675,-3.287727661495375,6.890999999945052
312763.2357,-0.1653495715695173,-3.707068314951617,-6.104042717585766,-3.290914575477952,6.891999999992549
312763.2367,-0.1355083306140006,-3.4999891834579344,-7.537715455385357,-3.2984468114554732,6.892999999981839
312763.2377,-0.11467472287944362,-3.2608068478108594,-8.901997143443644,-3.2905375938376724,6.893999999971129
312763.2387,-0.09860631152569241,-2.978901170483324,-10.139191472462214,-3.2524872767750166,6.894999999960419
312763.2397,-0.0909039434639844,-2.6511005042836517,-11.200356138358023,-3.1774198426932827,6.895999999949709
312763.2407,-0.10438358104686296,-2.2833485901952764,-12.0486431464946,-3.0680432100925,6.896999999997206
312763.2417,-0.16118972479418134,-1.8912712134956182,-12.661417556686855,-2.937208630962639,6.897999999986496
312763.2427,-0.29155269561703584,-1.4995406615191922,-13.030980607513026,-2.807172608548672,6.898999999975786
312763.2437,-0.5312413333395233,-1.140064258082116,-13.16386413937706,-2.7076040714330563,6.899999999965075
312763.2447,-0.917910317356865,-0.8491501315476593,-13.078806222876175,-2.672515871179972,6.900999999954365
312763.2457,-1.486672112619673,-0.6639160028904134,-12.803648710177116,-2.7364191524593764,6.902000000001863
312763.2467,-2.265323811143304,-0.6182936331115074,-12.371503146026823,-2.930089529597253,6.902999999991152
312763.2477,-3.269718098770585,-0.7390336462801015,-11.816601711746394,-3.2763858890877904,6.903999999980442
312763.2487,-4.4997784414175035,-1.0421271674905264,-11.17027777531154,-3.7865704027416953,6.904999999969732
312763.2497,-5.936619258424448,-1.5300304911746772,-10.45750352515556,-4.4575407099409885,6.905999999959022
312763.2507,-7.541145174670354,-2.190009389703976,-9.694351864271438,-5.2703054329484225,6.906999999948312
312763.2517,-9.254376962611337,-2.9938171744429654,-8.886652290468103,-6.189919648021831,6.907999999995809
312763.2527,-10.99959705307559,-3.8987950253716073,-8.02998561429876,-7.1669585606767985,6.908999999985099
312763.2537,-12.686238979561832,-4.850346563480272,-7.111022511448347,-8.140458780070768,6.909999999974389
312763.2547,-14.215278830419651,-5.785604481256778,-6.110070013818911,-9.04211175563,6.910999999963678
312763.2557,-15.485738716650022,-6.637988472816746,-5.004562189640784,-9.801367362259136,6.911999999952968
312763.2567,-16.401796863881575,-7.3422624940497245,-3.773129276412427,-10.351009870730241,6.913000000000466
312763.2577,-16.879927682670925,-7.839644722187688,-2.399813728163746,-10.632713287541383,6.9139999999897555
312763.2587,-16.855475440912986,-8.082511153353183,-0.8779788013992744,-10.602074098991956,6.914999999979045
312763.2597,-16.28809949530797,-8.038265168765387,0.7865220058827818,-10.232658156198571,6.915999999968335
312763.2607,-15.165614857510649,-7.692017939005508,2.5732800608605,-9.518681523704178,6.916999999957625
312763.2617,-13.505881695270578,-7.047831510772056,4.446633020032521,-8.47606499044217,6.917999999946915
312763.2627,-11.35655951016331,-6.128407720311971,6.356463365111922,-7.141747402645314,6.918999999994412
312763.2637,-8.79272139502576,-4.973249160348875,8.240479273116899,-5.571300278644877,6.919999999983702
312763.2647,-5.912504461561202,-3.6354595373707985,10.027817152187648,-3.835040347357886,6.920999999972992
312763.2657,-2.831137628164028,-2.177476268602869,11.64367335131262,-2.0129729978824775,6.921999999962281
312763.2667,0.3261776688788588,-0.6661259276036083,13.01456786614897,-0.18900509635878346,6.922999999951571
312763.2677,3.43196684253532,0.8325463305452766,14.073775761743972,1.555069867554629,6.923999999999069
312763.2687,6.364154222735003,2.258204821679913,14.76643929083821,3.14529393798432,6.9249999999883585
312763.2697,9.013114381014736,3.560467692063447,15.053897718930545,4.520485073275451,6.925999999977648
312763.2707,11.287575625395029,4.702095873513702,14.916840479017486,5.635983524986436,6.926999999966938
312763.2717,13.118960532269684,5.660859661225395,14.356995874580171,6.465906895203775,6.927999999956228
312763.2727,14.463894864334963,6.4299457086598695,13.397201786649193,7.0037583206005065,6.928999999945518
312763.2737,15.304783027314505,7.016909343113831,12.079853659224412,7.261387117681744,6.929999999993015
312763.2747,15.64851939626238,7.441317679754172,10.463873958729522,7.266454265424799,6.930999999982305
312763.2757,15.523564264584428,7.731354344989721,8.62048187061665,7.058691586708305,6.931999999971595
312763.2767,14.975746083768623,7.9197545189110805,6.628149206206042,6.685350390286576,6.9329999999608845
312763.2777,14.063246107513118,8.039499982240505,4.567198076374682,6.196302571320751,6.933999999950174
312763.2787,12.851269485851226,8.119722046095534,2.514521314295073,5.639278582218517,6.934999999997672
312763.2797,11.406904879656635,8.182233992031241,0.5388857302336241,5.055700624459532,6.9359999999869615
312763.2807,9.794624315056472,8.239046653065833,-1.3027865522199873,4.477498873034304,6.936999999976251
312763.2817,8.072782516792723,8.291117815133717,-2.967865507188,3.9251908625150875,6.937999999965541
312763.2827,6.291350639692116,8.328458433750857,-4.429025205009528,3.4073702750980086,6.938999999954831
312763.2837,4.490976430539646,8.331578894557582,-5.67379928220658,2.9216047318185603,6.940000000002328
312763.2847,2.703316305425292,8.274120544274037,-6.702801632108921,2.4565974431420603,6.940999999991618
312763.2857,0.9524496604021859,8.126395163350823,-7.526862635947354,1.9953391143706323,6.941999999980908
312763.2867,-0.742924384793307,7.859460120519135,-8.163432900473188,1.518877043651053,6.942999999970198
312763.2877,-2.3668817420290194,7.4492991155485635,-8.632671288988718,1.0102676921338616,6.9439999999594875
312763.2887,-3.9036645637204144,6.88066351215416,-8.953655827732584,0.45826305790381144,6.944999999948777
312763.2897,-5.335459160807734,6.150158898732888,-9.141132945427483,-0.13968860636283467,6.945999999996275
312763.2907,-6.640892603080352,5.268232911753871,-9.203155054821625,-0.775473984991967,6.9469999999855645
312763.2917,-7.794484763723776,4.259826610954871,-9.139855531145392,-1.4296152920369376,6.947999999974854
312763.2927,-8.767170905104367,3.1635824472686207,-8.943484049460258,-2.0719444335136727,6.948999999964144
312763.2937,-9.52787500603039,2.0296443094225127,-8.599686892512798,-2.6636104689351034,6.949999999953434
312763.2947,-10.04598051465422,0.9162252780587682,-8.089880350040769,-3.1602391166134662,6.951000000000931
312763.2957,-10.294427582843538,-0.11475725670661376,-7.394444647219355,-3.515939757958499,6.951999999990221
312763.2967,-10.253077009142967,-1.0025838213195988,-6.496373350498547,-3.6877623041809677,6.952999999979511
312763.2977,-9.911931071644581,-1.6927194133812138,-5.384958486836816,-3.640152908720527,6.953999999968801
312763.2987,-9.273796180382185,-2.1414173959028133,-4.059080489188746,-3.348949415715446,6.9549999999580905
312763.2997,-8.356013212781539,-2.3195050762412213,-2.529705989548188,-2.8044957018351733,6.95599999994738
312763.3007,-7.190965102548486,-2.214989079132031,-0.821272327679681,-2.0135351479430508,6.956999999994878
312763.3017,-5.825189815443148,-1.8342277769110815,1.0282519157663308,-0.999659539424129,6.9579999999841675
312763.3027,-4.317068602354926,-1.2015520610674666,2.9687069057943316,0.19777060514434971,6.958999999973457
312763.3037,-2.7332101072427086,-0.357361652352855,4.940414112820421,1.5261686827274439,6.959999999962747
312763.3047,-1.1437950779755093,0.6451322065410625,6.877973186514768,2.9235173376996095,6.960999999952037
312763.3057,0.3827309959856238,1.7442194037702128,8.714852985906377,4.32308074598715,6.961999999999534
312763.3067,1.785142191581893,2.8746618522867684,10.388355651805222,5.658604472487981,6.962999999988824
312763.3077,3.0145751688527334,3.9728648692812087,11.844482153671889,6.869521099681119,6.963999999978114
312763.3087,4.038819866212911,4.981774668084858,13.042223409099279,7.905674034717791,6.964999999967404
312763.3097,4.845305066845108,5.855056554066277,13.956843950144847,8.731113579041107,6.9659999999566935
312763.3107,5.442430905539581,6.560180057534455,14.581811620614602,9.326604659385637,6.966999999945983
312763.3117,5.85904285718368,7.080144488412215,14.929149013101735,9.690606447213716,6.967999999993481
312763.3127,6.142008890785687,7.413710732088705,15.028128787019005,9.838628807920735,6.9689999999827705
312763.3137,6.352037717484108,7.574149575342699,14.922391664878246,9.801025128920136,6.96999999997206
312763.3147,6.5580446840529,7.586659362203513,14.665717680647768,9.619430588719254,6.97099999996135
312763.3157,6.8305166017696335,7.484732477612758,14.316813401145948,9.342184829808387,6.97199999995064
312763.3167,7.234433432858953,7.305848782489703,13.933577403409531,9.019175659251589,6.972999999998137
312763.3177,7.822362497950447,7.086935208514559,13.567363376136788,8.696596318426575,6.973999999987427
312763.3187,8.628343439694044,6.8600485039495265,13.257768967826813,8.412117583957949,6.974999999976717
312763.3197,9.663128449629381,6.648711101413062,13.028437694648721,8.190936612805418,6.975999999966007
312763.3207,10.911236404287141,6.465261143510357,12.884274368271134,8.043080816272708,6.9769999999552965
312763.3217,12.330130665921,6.309473832755404,12.810349555350948,7.962225221688892,6.977999999944586
312763.3227,13.851651588410856,6.168582840821939,12.77261715253339,7.926137338203491,6.978999999992084
312763.3237,15.385642305049739,6.018690254698174,12.72040542515473,7.898708435629844,6.9799999999813735
312763.3247,16.825517597602886,5.827415295590233,12.59048117921667,7.8333793331729105,6.980999999970663
312763.3257,18.055357706940676,5.557509405933652,12.312344195383599,7.677636791606476,6.981999999959953
312763.3267,18.957977092647415,5.171070256337149,11.814297997702363,7.3781560630061405,6.982999999949243
312763.3277,19.423334286344517,4.633929009330172,11.029773790483514,6.886105644895048,6.98399999999674
312763.3287,19.356620550270183,3.919769357934364,9.903363303545994,6.16211736728806,6.98499999998603
312763.3297,18.68539433044673,3.013564800069372,8.396045066925492,5.180459624892006,6.98599999997532
312763.3307,17.365212408878907,1.9139893558646541,6.489164267466219,3.9320302362244073,6.98699999996461
312763.3317,15.383339099743738,0.6345595046902559,4.186841356855093,2.4259001878232205,6.9879999999538995
312763.3327,12.760279449962162,-0.7966087877687825,1.5166278191613471,0.689279047971456,6.989000000001397
312763.3337,9.549065809030571,-2.338407058431123,-1.4716148012130965,-1.234076601476799,6.989999999990687
312763.3347,5.832412393154961,-3.9395501396786385,-4.708479387803259,-3.2868434798349546,6.990999999979977
312763.3357,1.7180227295380148,-5.54232725660408,-8.109146303534123,-5.402203496754137,6.991999999969266
312763.3367,-2.667525044142463,-7.0869243668087805,-11.578496903625258,-7.5086114880967845,6.992999999958556
312763.3377,-7.185792195384218,-8.515899751714315,-15.01674513022773,-9.534804273005292,6.993999999947846
312763.3387,-11.693822120556256,-9.778382814743633,-18.32509581919327,-11.414582879312462,6.994999999995343
312763.3397,-16.05124640230486,-10.833596926662553,-21.41095660254528,-13.09093225956293,6.995999999984633
312763.3407,-20.126644887651597,-11.65337776607509,-24.192293127927147,-14.519117775011104,6.996999999973923
312763.3417,-23.802750362893747,-12.223461764235708,-26.600817766673572,-15.668507357970912,6.997999999963213
312763.3427,-26.980221059841202,-12.54344457210028,-28.5838294789065,-16.52300137807834,6.9989999999525025
312763.3437,-29.579855687370333,-12.625444318722941,-30.10466395137098,-17.080095364470395,7.0
312763.3447,-31.5432804826678,-12.491635273961819,-31.141854200915795,-17.34873946773326,7.00099999998929
312763.3457,-32.83228051189503,-12.17093121848718,-31.68722841408799,-17.34627897158971,7.00199999997858
312763.3467,-33.4270642891519,-11.695182924876171,-31.743271322061698,-17.094850246494904,7.002999999967869
312763.3477,-33.32383081547635,-11.095302079490422,-31.32013814877032,-16.61765730172383,7.003999999957159
312763.3487,-32.53204441821974,-10.397729847163214,-30.432730133047322,-15.93556051713737,7.004999999946449
312763.3497,-31.071812945465688,-9.621631418506919,-29.098216160075218,-15.064370646923221,7.005999999993946
312763.3507,-28.971711359348706,-8.777121875153641,-27.334318975463436,-14.013161716455933,7.006999999983236
312763.3517,-26.26730245775217,-7.864721078927043,-25.158583826166268,-12.783804026984324,7.007999999972526
312763.3527,-23.000489929282832,-6.876106741464175,-22.58872270492761,-11.371784506931688,7.008999999961816
312763.3537,-19.219709400054487,-5.796098197242032,-19.643991656264458,-9.768239661364893,7.009999999951106
312763.3547,-14.980834977278814,-4.605672383309035,-16.347425994924482,-7.962990778262817,7.010999999998603
312763.3557,-10.34856619226866,-3.2857013255212557,-12.72864272889702,-5.948255674022637,7.011999999987893
312763.3567,-5.397975649256509,-1.8210184391051165,-8.826833293894731,-3.7226279657760313,7.012999999977183
312763.3577,-0.21585058145926928,-0.20437762507984064,-4.693522374637187,-1.2948723688026067,7.013999999966472
312763.3587,5.0985425438565,1.560130848427058,-0.3946657811190793,1.3129124556561036,7.014999999955762
312763.3597,10.433601182158704,3.454599939393562,3.9882966697521742,4.063163214021411,7.015999999945052
312763.3607,15.666687825767658,5.44606956353614,8.35873185548142,6.902062975545446,7.016999999992549
312763.3617,20.66672587579828,7.486727527933529,12.60662588686448,9.76028017227765,7.017999999981839
312763.3627,25.298092161333937,9.51560414627311,16.61195273212211,12.555277452201155,7.018999999971129
312763.3637,29.42566518891908,11.461672583039793,20.24947922278129,15.195080374794149,7.019999999960419
312763.3647,32.92075213109091,13.248128669135507,23.394737779564082,17.583251407410025,7.020999999949709
312763.3657,35.66750240164061,14.79750521563332,25.930768926229064,19.624691581364274,7.021999999997206
312763.3667,37.56933374036215,16.03718836772771,27.755139090811486,21.23180262235776,7.022999999986496
312763.3677,38.55485726800109,16.90485598001584,28.786685374837187,22.330495345878322,7.023999999975786
312763.3687,38.5827961612983,17.35335525320114,28.971433978997975,22.865530534277926,7.024999999965075
312763.3697,37.645449032470815,17.3545795678067,28.28718429046699,22.80472679355495,7.025999999954365
312763.3707,35.77034966329669,16.90198884627737,26.74634296738972,22.141661849837188,7.027000000001863
312763.3717,33.01991096202521,16.011536125310574,24.396723907861368,20.896621017923124,7.027999999991152
312763.3727,29.489000807003535,14.720904298734343,21.32018919072731,19.115697379136872,7.028999999980442
312763.3737,25.3005662707377,13.087107934875247,17.629178654024862,16.868108475127414,7.029999999969732
312763.3747,20.59958494795266,11.18266144479722,13.46134611563526,14.241949040932766,7.030999999959022
312763.3757,15.545762515042526,9.09064283029774,8.972672855355713,11.33873393550688,7.031999999948312
312763.3767,10.305500883242525,6.899079641458142,4.329549990458987,8.267187335416565,7.032999999995809
312763.3777,5.04372122174154,4.69514137846947,-0.29960016205767376,5.136793894899769,7.033999999985099
312763.3787,-0.08386523094374845,2.5596349216961256,-4.752564714911223,2.051639427691118,7.034999999974389
312763.3797,-4.937489415624977,0.5622655291654197,-8.880866765733618,-0.8949682160014026,7.035999999963678
312763.3807,-9.398602957345544,-1.2419511928596338,-12.556074157450935,-3.624689303689796,7.036999999952968
312763.3817,-13.373378590204744,-2.8148537201199058,-15.674501366506155,-6.076863519454542,7.038000000000466
312763.3827,-16.79426843864884,-4.135740367569662,-18.160061382799377,-8.209596822233301,7.0389999999897555
312763.3837,-19.61962916482874,-5.200430361946998,-19.965187838690927,-9.999233993369513,7.039999999979045
312763.3847,-21.831592598400587,-6.018940414339436,-21.06991313164667,-11.438379058860821,7.040999999968335
312763.3857,-23.432510639201883,-6.6120662072727,-21.479340469379352,-12.532759484004584,7.041999999957625
312763.3867,-24.440419839775807,-7.007258017158073,-21.21987268661826,-13.297332540190204,7.042999999946915
312763.3877,-24.884043222640106,-7.234240475103475,-20.33464714462282,-13.752093740573512,7.043999999994412
312763.3887,-24.79786793703342,-7.320842424214581,-18.878666660462454,-13.918061969329896,7.044999999983702
312763.3897,-24.217805621554316,-7.289472529521989,-16.914108367825282,-13.813882723180997,7.045999999972992
312763.3907,-23.177861242568028,-7.154602831422916,-14.50623758856326,-13.453413297910553,7.046999999962281
312763.3917,-21.708113955738554,-6.921513132178667,-11.720258639816073,-12.84453971723801,7.047999999951571
312763.3927,-19.834162435607016,-6.586414821260909,-8.619309342915873,-11.989336250622214,7.048999999999069
312763.3937,-17.578022210299256,-6.137926803256683,-5.2636640097615555,-10.885528507029619,7.0499999999883585
312763.3947,-14.960300259841368,-5.55973308240444,-1.7110655641033363,-9.529075424856032,7.050999999977648
312763.3957,-12.003328673661164,-4.834125514533272,1.9820240151109423,-7.917558709687593,7.051999999966938
312763.3967,-8.734828864094927,-3.946038834353577,5.758571179972437,-6.053973255697691,7.052999999956228
312763.3977,-5.191611794905925,-2.887127975660722,9.558901220225565,-3.9504585503038525,7.053999999945518
312763.3987,-1.4228046559077518,-1.6594257361988924,13.318821720256324,-1.6315046367339703,7.054999999993015
312763.3997,2.507867871293478,-0.27815337305726917,16.96832828133756,0.8637921329759058,7.055999999982305
312763.4007,6.521132616190079,1.2266654516213795,20.431216983094536,3.4807623733184587,7.056999999971595
312763.4017,10.522804091937413,2.8100232842229085,23.625826175293287,6.149702737587405,7.0579999999608845
312763.4027,14.406108180285871,4.41327744898071,26.467001635974743,8.787991191734848,7.058999999950174
312763.4037,18.055623717647162,5.966976061686897,28.869237114955332,11.303692450785363,7.059999999997672
312763.4047,21.352605585667842,7.394962260117967,30.75080143605705,13.600416305312214,7.0609999999869615
312763.4057,24.181305608529275,8.619428199090233,32.03853825397208,15.58306039566647,7.061999999976251
312763.4067,26.435794230023618,9.566491248053419,32.672928356283535,17.16397085403446,7.062999999965541
312763.4077,28.02671784825942,10.171805552836897,32.61294736920303,18.268998949112817,7.063999999954831
312763.4087,28.88741077867197,10.385708557552507,31.840240332788614,18.842925150704765,7.065000000002328
312763.4097,28.97881907859103,10.17743569946038,30.36217083315219,18.853764935917415,7.065999999991618
312763.4107,28.292782723178945,9.538014221849183,28.21338348834122,18.29555947339324,7.066999999980908
312763.4117,26.85335484884479,8.481561598989163,25.455637402629005,17.18938092758818,7.067999999970198
312763.4127,24.715999874710857,7.044854618107526,22.175813790029128,15.582434777110311,7.0689999999594875
312763.4137,21.964691253978533,5.285188437609069,18.482159678006116,13.545306002175543,7.069999999948777
312763.4147,18.707107885598152,3.276696482202487,14.49898641431095,11.167556905852337,7.070999999996275
312763.4157,15.068289403165068,1.1054376038031484,10.36018167313234,8.552026683003797,7.0719999999855645
312763.4167,11.183239858321507,-1.1363361266406442,6.2020033846749465,5.8082934186156,7.072999999974854
312763.4177,7.189054964820871,-3.356249197586877,2.155692923909494,3.045827809719907,7.073999999964144
312763.4187,3.217182430120439,-5.467704427205558,-1.6595337209982228,0.36738839723040106,7.074999999953434
312763.4197,-0.6135948320986003,-7.39513388629941,-5.142586424384336,-2.1368211192408015,7.076000000000931
312763.4207,-4.202934379591462,-9.07818281916346,-8.21523822480041,-4.393787705663521,7.076999999990221
312763.4217,-7.4730668900726585,-10.474514303982712,-10.825160422652527,-6.3507880500000695,7.077999999979511
312763.4227,-10.371033712670583,-11.56105328514913,-12.947061690639615,-7.97676374772605,7.078999999968801
312763.4237,-12.868946421978661,-12.333633803015134,-14.581898607611514,-9.261942562785185,7.0799999999580905
312763.4247,-14.962358087158742,-12.805158815365767,-15.754287220879627,-10.215832103075137,7.08099999994738
312763.4257,-16.666996034675158,-13.00251413864575,-16.5083934969668,-10.863853308255122,7.081999999994878
312763.4267,-18.014238814026644,-12.962584370487054,-16.902701333804462,-11.242993826554393,7.0829999999841675
312763.4277,-19.04581406204429,-12.727789447815477,-17.00413939751084,-11.3969354821341,7.083999999973457
312763.4287,-19.808241069440466,-12.341589546990763,-16.882085366479526,-11.371139255843577,7.084999999962747
312763.4297,-20.347538738166637,-11.844391251045957,-16.60275554327252,-11.208353571033133,7.085999999952037
312763.4307,-20.704667785989393,-11.270231471809488,-16.22443115002184,-10.94494978994575,7.086999999999534
312763.4317,-20.912081655118698,-10.64452371902463,-15.793876233469968,-10.60838953320863,7.087999999988824
312763.4327,-20.991633753033163,-9.983033533871676,-15.344175955398828,-10.216002128209498,7.088999999978114
312763.4337,-20.9539424890834,-9.292118251270606,-14.89408081744124,-9.775110065698094,7.089999999967404
312763.4347,-20.799164808825964,-8.570133958231672,-14.448796192291386,-9.284399913479742,7.0909999999566935
312763.4357,-20.518988498049893,-7.809792742788481,-14.002021586476461,-8.736309649967195,7.091999999945983
312763.4367,-20.099537088831013,-7.001157897263447,-13.538933197026688,-8.12010325625938,7.092999999993481
312763.4377,-19.524799816631905,-6.134902969794073,-13.039726833323812,-7.425239323859519,7.0939999999827705
312763.4387,-18.78016016479595,-5.2054383688762025,-12.483302898187244,-6.64461840622333,7.09499999997206
312763.4397,-17.85560315938118,-4.213528569255975,-11.850683429281714,-5.777315634330741,7.09599999996135
312763.4407,-16.74823220203897,-3.1680816467102693,-11.127801378136944,-4.8304681006880035,7.09699999995064
312763.4417,-15.463814891028978,-2.0868847605184606,-10.307388366179724,-3.820083942304435,7.097999999998137
312763.4427,-14.017194225844573,-0.9961748624508507,-9.3897995797258,-2.7706617289348574,7.098999999987427
312763.4437,-12.431534269753762,0.07093848951437366,-8.382741154603297,-1.7136420722583552,7.099999999976717
312763.4447,-10.736503687548698,1.077054839934812,-7.29999291866786,-0.6848445338189749,7.100999999966007
312763.4457,-8.96562241951808,1.9838132676505569,-6.159334284606727,0.27884164466028566,7.1019999999552965
312763.4467,-7.153093274268102,2.755628971330192,-4.979971365332804,1.1431567338338775,7.102999999944586
312763.4477,-5.3305012409654875,3.36344137887494,-3.7798195610421494,1.8801525812075353,7.103999999992084
312763.4487,-3.5237823318079466,3.788067398619544,-2.5730120356710136,2.4714421431933355,7.1049999999813735
312763.4497,-1.7508386086449872,4.022783557842062,-1.3679789164787135,2.910636397579008,7.105999999970663
312763.4507,-0.020109139035245544,4.074830146835667,-0.16637731825972896,3.2046643418816507,7.106999999959953
312763.4517,1.669695274664536,3.9656325062126134,1.0369448835213158,3.373780731724529,7.107999999949243
312763.4527,3.3286122136109815,3.729659337040372,2.252888092930885,3.4501975862912895,7.10899999999674
312763.4537,4.97325919774399,3.4119731010909153,3.4960086551049088,3.475416197530057,7.10999999998603
312763.4547,6.623668374178533,3.064659794723966,4.781586256644518,3.496472280288783,7.11099999997532
312763.4557,8.299434056480669,2.7424413982684968,6.122150109371679,3.56142419793692,7.11199999996461
312763.4567,10.015571140690676,2.4978624051056135,7.5238416886955015,3.7145008322478077,7.1129999999538995
312763.4577,11.77853128011003,2.376492983541739,8.983032360253825,3.9913725273319214,7.114000000001397
312763.4587,13.582827268489805,2.412600072631304,10.483611461228827,4.415010392401853,7.114999999990687
312763.4597,15.408673050081902,2.6257027581754837,11.995313506719073,4.99255528618609,7.115999999979977
312763.4607,17.220960534066503,3.0183526050236615,13.473365863936857,5.713531744347559,7.116999999969266
312763.4617,18.969772731430076,3.57537023439056,14.859618348044908,6.549621853015553,7.117999999958556
312763.4627,20.592487109802082,4.2646366612811715,16.08517504100635,7.4560709454954415,7.118999999947846
312763.4637,22.017367489161444,5.039394405835624,17.074399850066317,8.374644661197593,7.119999999995343
312763.4647,23.16839248423055,5.8418729147322574,17.75002553545547,9.237910007549925,7.120999999984633
312763.4657,23.970938345768772,6.607928877268896,18.038975334208658,9.974485823787376,7.121999999973923
312763.4667,24.357837204465994,7.272296533019221,17.87841922411,10.514812851303438,7.122999999963213
312763.4677,24.275278248642653,7.77398525451244,17.221542558741422,10.796939821007646,7.1239999999525025
312763.4687,23.688015258161233,8.06134713722425,16.042508486611084,10.771814968921744,7.125
312763.4697,22.583390454567258,8.096367463958735,14.34014789315709,10.407613091269603,7.12599999998929
312763.4707,20.973778220100982,7.857802854041054,12.140007538055208,9.692712965736618,7.12699999997858
312763.4717,18.897184722062434,7.342898761867032,9.494520228081248,8.637060773027496,7.127999999967869
312763.4727,16.415898863903163,6.567549506177371,6.4812183274578725,7.271800649662368,7.128999999957159
312763.4737,13.613261574831023,5.5649075864125965,3.199079277736003,5.647209905368735,7.129999999946449
312763.4747,10.58878823528879,4.382590936096036,-0.23674638769998563,3.8291289116537786,7.130999999993946
312763.4757,7.452027219148743,3.078763431642219,-3.701432862193341,1.8942097595889924,7.131999999983236
