TimeStamp,ECR,FCR,ECU,FCU,time_index
312782.3437,163.16942832229677,208.429477646299,166.08133018613253,299.28298984207777,26.0
312782.3447,142.25847694193772,189.71595316717037,145.12010554352156,259.7718067503471,26.00099999998929
312782.3457,120.24054926694092,169.4264505933146,122.8373565702305,219.13827878065732,26.00199999997858
312782.3467,97.5991540731026,148.09376967606576,99.76589163293164,178.31032547666248,26.00299999996787
312782.3477,74.81234755349358,126.23893704441434,76.4386932266247,138.14784650100418,26.00399999995716
312782.3487,52.343200462599555,104.35887399715418,53.376440959357936,99.42339865978433,26.00499999994645
312782.3497,30.63044431990576,82.91519581873088,31.075209472289348,62.806636811097235,26.005999999993946
312782.3507,10.079288001220705,62.32424764452434,9.994470508547668,28.852707668592494,26.006999999983236
312782.3517,-8.947500154044938,42.948513049673736,-9.454378551617587,-2.00527373084158,26.007999999972526
312782.3527,-26.138031655882532,25.089572907824863,-26.91863590579791,-29.459588117973166,26.008999999961816
312782.3537,-41.23893233426319,8.982830319950795,-42.11365064530355,-53.327098479533085,26.009999999951106
312782.3547,-54.0617560129617,-5.205760729911222,-54.83043190778345,-73.54431561519638,26.010999999998603
312782.3557,-64.48771162895602,-17.380731263525227,-64.94100933785995,-90.15849790848041,26.011999999987893
312782.3567,-72.47024009518105,-27.515707621108305,-72.40107299845374,-103.31506539284072,26.012999999977183
312782.3577,-78.03503715579107,-35.6494865716897,-77.2495090929141,-113.24175699796486,26.013999999966472
312782.3587,-81.27723558391489,-41.8795828583581,-79.6045914716907,-120.23012444570213,26.014999999955762
312782.3597,-82.35562671353091,-46.35340339752016,-79.65677898665355,-124.61512371979276,26.015999999945052
312782.3607,-81.48400371185745,-49.25736611115674,-77.65829040066873,-126.75371896229002,26.01699999999255
312782.3617,-78.91992866388007,-50.804446698711374,-73.90986230538208,-127.003536015865,26.01799999998184
312782.3627,-74.95144112202279,-51.22078614070185,-68.74531935435573,-125.7026760912443,26.01899999997113
312782.3637,-69.88241538610794,-50.732108089404186,-62.51477785051827,-123.15180930921946,26.01999999996042
312782.3647,-64.01741730850524,-49.5507633629956,-55.56744320919474,-119.59960287398347,26.02099999994971
312782.3657,-57.64699265704588,-47.86422722309357,-48.23503315982307,-115.23239522842114,26.021999999997206
312782.3667,-51.034327420852875,-45.82581796785211,-40.81685179239524,-110.16880859945839,26.022999999986496
312782.3677,-44.40415205867264,-43.54828273391236,-33.5674517638763,-104.45970796693013,26.023999999975786
312782.3687,-37.93461988358186,-41.100714741773956,-26.687657630437002,-98.09358148436105,26.024999999965075
312782.3697,-31.752684754149136,-38.509037924307115,-20.319493905661496,-91.00705803414375,26.025999999954365
312782.3707,-25.933251130021432,-35.760037200674645,-14.54528465055283,-83.0999179154803,26.027000000001863
312782.3717,-20.502090894894703,-32.80864618631887,-9.39088922323459,-74.2536201829337,26.027999999991152
312782.3727,-15.442239208455227,-29.58795091883637,-4.832735767783793,-64.3520915857541,26.028999999980442
312782.3737,-10.703319485600664,-26.021149735567146,-0.8080348883714602,-53.30332092850559,26.029999999969732
312782.3747,-6.213027189983862,-22.034544752032442,2.772676397477314,-41.06019720799465,26.030999999959022
312782.3757,-1.8898416520959975,-17.570544203664987,6.011676948292205,-27.639031323690627,26.03199999994831
312782.3767,2.344052368512437,-12.599636382183183,9.009993997984745,-13.134312675178407,26.03299999999581
312782.3777,6.550659295610674,-7.1303577607727755,11.854231299601443,2.2715317629041745,26.0339999999851
312782.3787,10.765837045588828,-1.2164162236724352,14.605314165441683,18.30430072684389,26.03499999997439
312782.3797,14.99153854451089,5.039665185071016,17.290010179917086,34.60065087625421,26.03599999996368
312782.3807,19.191230723452044,11.486763656781143,19.895857276373217,50.71732161416804,26.036999999952968
312782.3817,23.288840023756933,17.92932537237203,22.369857960903673,66.14663821296112,26.038000000000466
312782.3827,27.171298772748507,24.135288222762053,24.621001991944873,80.33755646745104,26.038999999989755
312782.3837,30.69449082660494,29.84728029639613,26.5263836124052,92.7211344536178,26.039999999979045
312782.3847,33.692139463775035,34.79637357229924,27.94040687792849,102.73901000795294,26.040999999968335
312782.3857,35.98696537770677,38.717484863814356,28.706344758752664,109.87324676328437,26.041999999957625
312782.3867,37.40328376059589,41.365397517212685,28.6693514643627,113.67580076795316,26.042999999946915
312782.3877,37.78011788445401,42.530335798167776,27.68993438416168,113.7958601273993,26.043999999994412
312782.3887,36.98388743244991,42.05206102812695,25.65687741094701,110.00342023048405,26.044999999983702
312782.3897,34.91978212488174,39.83156964373982,22.498669883692187,102.20766803094872,26.04599999997299
312782.3907,31.54104801275914,35.83964778744702,18.192627285843802,90.46904506446863,26.04699999996228
312782.3917,26.855583100150028,30.12175923576205,12.771077972946076,75.00421964573937,26.04799999995157
312782.3927,20.929444664367765,22.79899444713519,6.324217147558338,56.18359961320155,26.04899999999907
312782.3937,13.887094326538879,14.065067626167865,-1.0005249670583487,34.52143185479275,26.04999999998836
312782.3947,5.908429497949361,4.179595568687994,-9.002510013838108,10.658937514810983,26.05099999997765
312782.3957,-2.7771466412847507,-6.541891625730756,-17.435000405248307,-14.658701989891878,26.051999999966938
312782.3967,-11.899195108627591,-17.74058673319557,-26.01485296730642,-40.61038394450616,26.052999999956228
312782.3977,-21.156705283045103,-29.028951015685827,-34.4341660786622,-66.3307880952162,26.053999999945518
312782.3987,-30.229934376437605,-40.00637476149956,-42.37317217111134,-90.94423228363604,26.054999999993015
312782.3997,-38.792981829403026,-50.27515904382702,-49.51364869559756,-113.59910184307037,26.055999999982305
312782.4007,-46.52648383952827,-59.45607713588778,-55.552155490133885,-133.50129520474675,26.056999999971595
312782.4017,-53.12987701002473,-67.20286695467108,-60.21248559090851,-149.9452274183748,26.057999999960884
312782.4027,-58.332770111615034,-73.21512631837372,-63.256827067641574,-162.3410997981247,26.058999999950174
312782.4037,-61.90506573507675,-77.2492162856384,-64.49526070737156,-170.23736309144405,26.05999999999767
312782.4047,-63.66557595871674,-79.12691054255208,-63.793347469581235,-173.33755712336804,26.06099999998696
312782.4057,-63.48896670911031,-78.7416489256367,-61.077677353515526,-171.51098513316248,26.06199999997625
312782.4067,-61.31093611216287,-76.06235217835527,-56.339347504441925,-164.7969602462545,26.06299999996554
312782.4077,-57.1315787840285,-71.13482838723976,-49.63540602096632,-153.40263090267598,26.06399999995483
312782.4087,-51.016911112019784,-64.08084888702574,-41.088337624266046,-137.69464043027472,26.06500000000233
312782.4097,-43.09853671151756,-55.094996305438045,-30.883681255015524,-118.18509514601071,26.065999999991618
312782.4107,-33.57142433574162,-44.43939648287119,-19.265864758624225,-95.51250024181394,26.066999999980908
312782.4117,-22.68976251910451,-32.43644785245459,-6.532327749096673,-70.41847082855233,26.067999999970198
312782.4127,-10.760856574633825,-19.459665705069703,6.9740087032177795,-43.721136633973636,26.068999999959487
312782.4137,1.862946510420082,-5.922772996488512,20.873867448760212,-16.286234288845986,26.069999999948777
312782.4147,14.79427464041382,7.732799687598511,34.76225799672078,11.003076915660444,26.070999999996275
312782.4157,27.622584929426857,21.05179144348419,48.2205143177254,37.27662896769304,26.071999999985565
312782.4167,39.927652637711596,33.580081533064984,60.82953511446986,61.7068596444379,26.072999999974854
312782.4177,51.29437189380698,44.880382995563686,72.18394167552867,83.5366428613375,26.073999999964144
312782.4187,61.32841541850743,54.54819563318117,81.90676200016661,102.10441968656396,26.074999999953434
312782.4197,69.67217319832363,62.22746339635766,89.66414046552094,116.86580832621438,26.07600000000093
312782.4207,76.02027992581816,67.62530422583347,95.17947312267486,127.41098759018875,26.07699999999022
312782.4217,80.13396241667543,70.52512961256505,98.2462935572467,133.4772857952494,26.07799999997951
312782.4227,81.85340382969088,70.79745720831016,98.73919594139554,134.95656366296112,26.0789999999688
312782.4237,81.10734091167937,68.4077509513669,96.62209075623424,131.89715256937285,26.07999999995809
312782.4247,77.91918890699888,63.420704009014216,91.95315124028431,124.50029450381771,26.08099999994738
312782.4257,72.40912637571073,56.00051076768307,84.88592681571056,113.11122220239929,26.081999999994878
312782.4267,64.79176374948705,46.40685093080753,75.66627030892037,98.20521100586338,26.082999999984168
312782.4277,55.36925464718427,34.98652283290162,64.62494032542642,80.3691210486453,26.083999999973457
312782.4287,44.519972914589644,22.16090168118445,52.16598562316667,60.27912180297004,26.084999999962747
312782.4297,32.68315280632853,8.409645815372013,38.75127800907328,38.675442898684466,26.085999999952037
312782.4307,20.34015450678934,-5.748687473369519,24.881815019562914,16.33511778163238,26.086999999999534
312782.4317,7.993251806003834,-19.778243726419856,11.076643472637237,-5.956226954669347,26.087999999988824
312782.4327,-3.8569758551747575,-33.14865094281781,-2.1495591858188265,-27.43243980818587,26.088999999978114
312782.4337,-14.734444558170452,-45.35782943293389,-14.309083488722814,-47.373676168504176,26.089999999967404
312782.4347,-24.20931433860956,-55.95364632154218,-24.962751843280312,-65.13095123556812,26.090999999956694
312782.4357,-31.917477834363233,-64.55326686405486,-33.739260647944086,-80.14747158781475,26.091999999945983
312782.4367,-37.57670299637913,-70.85916832255661,-40.35122212543212,-91.9759480654253,26.09299999999348
312782.4377,-40.998539623631395,-74.6709657662943,-44.607011413627895,-100.29127680024283,26.09399999998277
312782.4387,-42.09535740958078,-75.89244134584972,-46.41777231592785,-104.89818957559119,26.09499999997206
312782.4397,-40.88218496097117,-74.53345298838435,-45.79922970835803,-105.73370808851865,26.09599999996135
312782.4407,-37.47334294018822,-70.70670507104772,-42.86827673989806,-102.86447629766484,26.09699999995064
312782.4417,-32.07418614382759,-64.61967039279946,-37.834627028583704,-96.47927721169822,26.097999999998137
312782.4427,-24.968564981431552,-56.562237381093176,-30.988121971588843,-86.87725165980082,26.098999999987427
312782.4437,-16.502864485171763,-46.89089826678268,-22.682538576477928,-74.45251437447664,26.099999999976717
312782.4447,-7.067660612178939,-36.01047564646087,-13.316934978306003,-59.675996823150825,26.100999999966007
312782.4457,2.921863331903265,-24.354493982308075,-3.3156853795987944,-43.07542936317248,26.101999999955297
312782.4467,13.045578708928808,-12.365332610135777,6.891613653320211,-25.214403834184303,26.102999999944586
312782.4477,22.89705517015619,-0.4752475848079054,16.889237902859726,-6.671432024585907,26.103999999992084
312782.4487,32.100228683479436,10.910772616632809,26.292435490469906,11.98016004189129,26.104999999981374
312782.4497,40.323337136836486,21.42953596306223,34.761732745857806,30.19077929242484,26.105999999970663
312782.4507,47.28960882519316,30.77100676948809,42.01388914845135,47.45097951760948,26.106999999959953
312782.4517,52.78445119776128,38.68619598966852,47.829211942784696,63.3053329373814,26.107999999949243
312782.4527,56.659146586909195,44.991537858897466,52.0552104883802,77.36351991098468,26.10899999999674
312782.4537,58.8312968166076,49.5699483029547,54.60681982742162,89.30855734174932,26.10999999998603
312782.4547,59.28245121972779,52.36896407266849,55.46363280531534,98.90222513133206,26.11099999997532
312782.4557,58.053488889627666,53.39651402781985,54.664734978907425,105.98785853725009,26.11199999996461
312782.4567,55.23839782108424,52.71496508579552,52.30182648506902,110.49074695644781,26.1129999999539
312782.4577,50.97709904723766,50.434110520039596,48.51133613490378,112.41641498168292,26.114000000001397
312782.4587,45.44790727955954,46.7037291385207,43.46618772774096,111.84706214966955,26.114999999990687
312782.4597,38.86011095632869,41.70624800981379,37.367775495089774,108.93640999645213,26.115999999979977
312782.4607,31.44700876512403,35.649901786872135,30.43855848656568,103.9031582820719,26.116999999969266
312782.4617,23.459574677100616,28.762615383731596,22.915510347310313,97.02319793185602,26.117999999958556
312782.4627,15.1607589152256,21.286663336180418,15.04448132712736,88.62067838103661,26.118999999947846
312782.4637,6.820287312626443,13.473998687879343,7.075363851068095,79.05799279949379,26.119999999995343
312782.4647,-1.290286847237839,5.582015202870364,-0.7421797853347715,68.72473509899926,26.120999999984633
312782.4657,-8.902583268820447,-2.1305758856990895,-8.162754036292919,58.025703282480734,26.121999999973923
312782.4667,-15.75675400068316,-9.40809968529659,-14.949384950826753,47.36807597288123,26.122999999963213
312782.4677,-21.607452149785143,-16.00281359683811,-20.878113700014893,37.14796968549282,26.123999999952503
312782.4687,-26.230551640450336,-21.68056695419537,-25.74325836800677,27.736686006492874,26.125
312782.4697,-29.43061014002873,-26.22730919817616,-29.36343545276977,19.467068999718002,26.12599999998929
312782.4707,-31.048893770211354,-29.4563636145682,-31.588263009673927,12.620499945813565,26.12699999997858
312782.4717,-30.971605106382743,-31.216204337216237,-32.305486480426204,7.415143802177209,26.12799999996787
312782.4727,-29.137796912149234,-31.39830511020857,-31.448097998345784,3.9961148824810206,26.12899999995716
312782.4737,-25.546333777322186,-29.944490540768303,-29.000882006396832,2.4282356076424727,26.12999999994645
312782.4747,-20.26119981285445,-26.853132920698858,-25.005733274241116,2.69201279019717,26.130999999993946
312782.4757,-13.414455089941837,-22.183514045936306,-19.565071873607764,4.683346605430368,26.131999999983236
312782.4767,-5.20622220864347,-16.057719317819405,-12.842730854639491,8.217319606121354,26.132999999972526
312782.4777,4.098764600731078,-8.659550895257516,-5.061816253650942,13.036194181674691,26.133999999961816
312782.4787,14.17830143949626,-0.23013035568087442,3.5007720160184763,18.821489710289075,26.134999999951106
312782.4797,24.663540474353493,8.939905156878986,12.523230584158995,25.2097330862229,26.135999999998603
312782.4807,35.15320581269617,18.52144592706447,21.650957321381387,31.811199599778497,26.136999999987893
312782.4817,45.2306189130838,28.160754783676254,30.51139814562973,38.230708347265434,26.137999999977183
312782.4827,54.48269120664251,37.49542633483712,38.73090817408287,44.08933026630036,26.138999999966472
312782.4837,62.51982971186731,46.171563851580935,45.9526877839172,49.04572803584252,26.139999999955762
312782.4847,68.99556030493837,53.86113178172086,51.854707379037436,52.81579167716044,26.140999999945052
312782.4857,73.62461833064515,60.27837431336562,56.16646840235386,55.189272006656275,26.14199999999255
312782.4867,76.19829573705394,65.19420912689324,58.68347113327815,56.042249202714565,26.14299999998184
312782.4877,76.59596834013438,68.44761125102669,59.278373126620664,55.34450090396698,26.14399999997113
312782.4887,74.79194857981717,69.95318795892531,57.908019004259586,53.161140884950214,26.14499999996042
312782.4897,70.85710311087507,69.704398107761,54.61578863245897,49.648265763415324,26.14599999994971
312782.4907,64.95501933988758,67.77216867304571,49.5290263134836,45.04274791092739,26.146999999997206
312782.4917,57.332874526795,64.2989838182271,42.851653882020884,39.64671842620115,26.147999999986496
312782.4927,48.30752680306403,59.488841994204506,34.852408586199246,33.807663809788636,26.148999999975786
312782.4937,38.24768080865819,53.593768758511054,25.849455369318388,27.89538398459168,26.149999999965075
312782.4947,27.55325530916126,46.897814026110034,16.192377924669714,22.277301246226738,26.150999999954365
312782.4957,16.633274336462733,39.699633349664154,6.24273330105753,17.293749202832167,26.152000000001863
312782.4967,5.883701684529459,32.294840424014374,-3.6455533948950127,13.234895139450424,26.152999999991152
312782.4977,-4.333366747860095,24.95931602685938,-13.14468151634581,10.320854865390244,26.153999999980442
312782.4987,-13.70784663038865,17.934568075437014,-21.969180549286474,8.686351753497233,26.154999999969732
312782.4997,-21.996041213518122,11.416066580683164,-29.888839607404364,8.370966185494302,26.155999999959022
312782.5007,-29.03042612357342,5.545240578496591,-36.73762661878838,9.315640659952088,26.15699999994831
312782.5017,-34.72435460221621,0.4055412468723214,-42.418167500319285,11.365678038097755,26.15799999999581
312782.5027,-39.07155843311106,-3.9773306369113786,-46.90168427421414,14.280027966020251,26.1589999999851
312782.5037,-42.14068314612493,-7.631239624506461,-50.22361744009188,17.74623239403671,26.15999999997439
312782.5047,-44.06543119881446,-10.629959662312723,-52.47545621446878,21.400026338374627,26.16099999996368
312782.5057,-45.031168667281385,-13.082768170280072,-53.79354771588787,24.848291144621147,26.161999999952968
312782.5067,-45.25905952664166,-15.122182474893483,-54.34583493219437,27.69385453068888,26.163000000000466
312782.5077,-44.988913456632,-16.890828543418237,-54.31757179562121,29.560536677147155,26.163999999989755
312782.5087,-44.46196238744145,-18.52845080471817,-53.8970774674511,30.116858052371786,26.164999999979045
312782.5097,-43.90471956789524,-20.16001348718228,-53.262523798474945,29.096947462051286,26.165999999968335
312782.5107,-43.514931922816764,-21.885716050414526,-52.57060939826389,26.317405260645245,26.166999999957625
312782.5117,-43.450427167734475,-23.773560887433934,-51.94777592987346,21.68916773088159,26.167999999946915
312782.5127,-43.82140145407512,-25.854887476929267,-51.484386304245966,15.223760829043027,26.168999999994412
312782.5137,-44.68641381004245,-28.1230429710871,-51.23203174349388,7.033698885985538,26.169999999983702
312782.5147,-46.052073583919636,-30.535114981316188,-51.20388684605668,-2.6728498115165644,26.17099999997299
312782.5157,-47.87614846376889,-33.01642732509293,-51.377808853550896,-13.602667983925343,26.17199999996228
312782.5167,-50.07360237545696,-35.467310518369324,-51.70169608446805,-25.39260861357021,26.17299999995157
312782.5177,-52.52490912697875,-37.77151889374305,-52.100493228972546,-37.62824214160337,26.17399999999907
312782.5187,-55.08588810778525,-39.805583775122386,-52.484164775926565,-49.86488976502124,26.17499999998836
312782.5197,-57.598275772953365,-41.44837033907489,-52.755953414991225,-61.64982509668701,26.17599999997765
312782.5207,-59.900278245029625,-42.590142592168,-52.82029338969066,-72.54442916026217,26.176999999966938
312782.5217,-61.83643797891904,-43.14052939613607,-52.58985010379454,-82.1451585067984,26.177999999956228
312782.5227,-63.266278494678716,-43.034913745874185,-51.991293575605816,-90.10232204323452,26.178999999945518
312782.5237,-64.07135008479688,-42.23892372651578,-50.969568908761936,-96.13584442054444,26.179999999993015
312782.5247,-64.16046908989567,-40.750871405282176,-49.49058526426754,-100.04740600351603,26.180999999982305
312782.5257,-63.47310698493339,-38.60214995947482,-47.5423901249679,-101.72857449806705,26.181999999971595
312782.5267,-61.98102814896163,-35.85574557769889,-45.13501450261561,-101.1647651643384,26.182999999960884
312782.5277,-59.68838506300755,-32.60313767358209,-42.299257282052196,-98.43507134410858,26.183999999950174
312782.5287,-56.63054931214884,-28.959940843277128,-39.0847176962177,-93.7081841386908,26.18499999999767
312782.5297,-52.87198350599436,-25.06068102186814,-35.55738337812546,-87.23476265610425,26.18599999998696
312782.5307,-48.503445306056875,-21.05309696623901,-31.797041657140237,-79.33672145584428,26.18699999997625
312782.5317,-43.638766820785584,-17.092321042354758,-27.894711993027713,-70.39397054928934,26.18799999996554
312782.5327,-38.411380891892385,-13.335228218948698,-23.950209015247577,-60.82917958582924,26.18899999995483
312782.5337,-32.97068271817949,-9.935159468227033,-20.069851682676358,-51.091147925326986,26.19000000000233
312782.5347,-27.47823411744303,-7.037136975490538,-16.364248011941385,-41.637353594354394,26.190999999991618
312782.5357,-22.10375105002496,-4.773605142764456,-12.94601882199753,-32.91623414566782,26.191999999980908
312782.5367,-17.020773180270734,-3.2606635226758867,-9.927287581797637,-25.349727747109956,26.192999999970198
312782.5377,-12.401904231060096,-2.5947133457865355,-7.416762599659641,-19.31657823013753,26.193999999959487
312782.5387,-8.413536516655052,-2.8494228235712438,-5.516273940867233,-15.13688587529923,26.194999999948777
312782.5397,-5.210030638763868,-4.0729288870568086,-4.316697493050175,-13.058366496055275,26.195999999996275
312782.5407,-2.9274058877897096,-6.285231719753262,-3.893295115759199,-13.244762699624124,26.196999999985565
312782.5417,-1.6766987299401996,-9.47579726959737,-4.300611905242551,-15.766829010564821,26.197999999974854
312782.5427,-1.537253621996533,-13.601453143505507,-5.567186047074269,-20.596281646602613,26.198999999964144
312782.5437,-2.5503088035114656,-18.58473452271603,-7.690429406889332,-27.603058623527822,26.199999999953434
312782.5447,-4.713316475293726,-24.31289814361682,-10.632114478223654,-36.55617156876375,26.20100000000093
312782.5457,-7.975480424467635,-30.63786388405975,-14.314944266675303,-47.128343522816365,26.20199999999022
312782.5467,-12.234996239617049,-37.377356906685286,-18.62067823940485,-58.90451549671155,26.20299999997951
312782.5477,-17.338435250209432,-44.317503329108916,-23.390236001841135,-71.39416949420404,26.2039999999688
312782.5487,-23.082623163316978,-51.21707722587584,-28.426102024290927,-84.04726065275726,26.20499999995809
312782.5497,-29.219232543493973,-57.81350843951782,-33.49721540318727,-96.2733823161066,26.20599999994738
312782.5507,-35.46214345838073,-63.83064491550268,-38.346358415482335,-107.46361380427159,26.206999999994878
312782.5517,-41.4974408930257,-68.98812902530364,-42.69986995642191,-117.01433183073709,26.207999999984168
312782.5527,-46.995725386031964,-73.0121059494891,-46.279320405518035,-124.3521145126256,26.208999999973457
312782.5537,-51.62623032546881,-75.64684633844917,-48.81460931644249,-128.95874359794269,26.209999999962747
312782.5547,-55.07208077421329,-76.6667479647469,-50.05780208869137,-130.39522711269228,26.210999999952037
312782.5557,-57.045908313673436,-75.88809365909684,-49.79691981914184,-128.32373072200116,26.211999999999534
312782.5567,-57.30496519294316,-73.17989501998937,-47.868847878094655,-122.52632881267066,26.212999999988824
312782.5577,-55.66486634218056,-68.47314964349512,-44.17053920092399,-112.91956947848793,26.213999999978114
312782.5587,-52.011132506462324,-61.76788664483853,-38.66775886109,-99.56399122023662,26.214999999967404
312782.5597,-46.3078101911354,-53.137469714678716,-31.400743325208627,-82.66792909532074,26.215999999956694
312782.5607,-38.60259802872929,-42.729763555603625,-22.48632240182068,-62.58519592484314,26.216999999945983
312782.5617,-29.028104212790478,-30.764939347574376,-12.116261849135098,-39.80650777869946,26.21799999999348
312782.5627,-17.799082108891596,-17.529886037804317,-0.5518145266795323,-14.94482687712179,26.21899999998277
312782.5637,-5.205725129325764,-3.369392910718096,11.885299192681607,11.284898435554556,26.21999999997206
312782.5647,8.396669410428174,11.32553958654042,24.825042599826954,38.09082663925323,26.22099999996135
312782.5657,22.60115084945165,26.131733632398632,37.86371833682987,64.63312316758316,26.22199999995064
312782.5667,36.96499298475577,40.60954906086644,50.58035764233232,90.05543754266704,26.222999999998137
312782.5677,51.027189236102735,54.31952369009494,62.553982235138704,113.5175877611201,26.223999999987427
312782.5687,64.32668794009456,66.83914019773542,73.3808472025478,134.22801671252785,26.224999999976717
312782.5697,76.42048146461828,77.77892964468674,82.69080223781785,151.47459818628602,26.225999999966007
312782.5707,86.9007101297655,86.79717984968049,90.16199280996,164.6524596197819,26.226999999955297
312782.5717,95.41003913870642,93.6126177431845,95.53325353057895,173.28764828481667,26.227999999944586
312782.5727,101.654703539679,98.01456885192994,98.61371078006931,177.0556853456215,26.228999999992084
312782.5737,105.41477950470221,99.87025217088446,99.2892959280441,175.7943125537597,26.229999999981374
312782.5747,106.55141524313761,99.1290317919584,97.52605867011742,169.51002122561025,26.230999999970663
312782.5757,105.01092690839432,95.82360493347434,93.3703470872595,158.37824368885182,26.231999999959953
312782.5767,100.82582049643112,90.06824806127413,86.94607392502171,142.73736551233122,26.232999999949243
312782.5777,94.11292919824831,82.05435970463242,78.44940729898815,123.07696681770094,26.23399999999674
312782.5787,85.06894979469493,72.04362465895701,68.14130251622268,100.02091065625733,26.23499999998603
312782.5797,73.96371851560914,60.35917743253502,56.33832829531282,74.30605805426558,26.23599999997532
312782.5807,61.13158770522855,47.375164502291334,43.40223806430434,46.75749981876215,26.23699999996461
312782.5817,46.96125500552809,33.50509981711239,29.72870180164999,18.261255978853427,26.2379999999539
312782.5827,31.884365145758714,19.189383061309513,15.735555666294855,-10.264589954506903,26.239000000001397
312782.5837,16.36316140910114,4.88231391107675,1.8508568824297158,-37.89937492208525,26.239999999990687
312782.5847,0.8774206899756402,-8.961103398193318,-11.499038092121376,-63.74905873379877,26.240999999979977
312782.5857,-14.089126800551458,-21.89830457817529,-23.90121222903529,-86.97431011187396,26.241999999969266
312782.5867,-28.062706427069408,-33.51202077302685,-34.967621707157974,-106.8167155588154,26.242999999958556
312782.5877,-40.5935406741973,-43.42261493023045,-44.346115905488226,-122.62242725333678,26.243999999947846
312782.5887,-51.26979380108724,-51.29966213073361,-51.73092077574851,-133.862642553232,26.244999999995343
312782.5897,-59.731135411535384,-56.872517998033,-56.87242482598028,-140.15038267370352,26.245999999984633
312782.5907,-65.68157033809675,-59.939593567809965,-59.586051635345015,-141.25311346984384,26.246999999973923
312782.5917,-68.90111052086735,-60.37602970717754,-59.7599398416943,-137.1008305849409,26.247999999963213
312782.5927,-69.25580189332885,-58.13944747102006,-57.36109255503933,-127.7893190570331,26.248999999952503
312782.5937,-66.70557844813496,-53.27345064509083,-52.43961535870656,-113.57839822133708,26.25
312782.5947,-61.30940825334365,-45.90857988455203,-45.13064673333889,-94.88507972477753,26.25099999998929
312782.5957,-53.227231168418484,-36.26046888777099,-35.65360579491394,-72.27170108915324,26.25199999997858
312782.5967,-42.71827042836212,-24.625033699511768,-24.308445072894315,-46.429248481687694,26.25299999996787
312782.5977,-30.135430489709226,-11.370635093986563,-11.468701741597096,-18.15624647815014,26.25399999995716
312782.5987,-15.915666929350113,3.0727135517801263,2.42871433647454,11.66623660097044,26.25499999994645
312782.5997,-0.5664213405245949,18.226871873091593,16.896881302734773,42.10275009920822,26.255999999993946
312782.6007,15.351558404528705,33.581455545571266,31.41506504275104,72.19391394502046,26.256999999983236
312782.6017,31.244460889389874,48.61155030678056,45.4472487961129,100.98815242761425,26.257999999972526
312782.6027,46.50794810549448,62.79659659142015,58.46229615927324,127.57359532160041,26.258999999961816
312782.6037,60.5510327466346,75.63967803805632,69.95489243870652,151.10897205354902,26.259999999951106
312782.6047,72.82020523533237,86.68637818034074,79.46629460089068,170.8523135377582,26.260999999998603
312782.6057,82.82264471650089,95.54234568113198,86.6038615096201,186.18632015435148,26.261999999987893
312782.6067,90.14734358925229,101.88873413477644,91.0583420250843,196.63935516614373,26.262999999977183
312782.6077,94.48304467384459,105.49475893928862,92.61797225931535,201.90117919859645,26.263999999966472
312782.6087,95.632031851125,106.22673850978315,91.17857286981659,201.83274802131763,26.264999999955762
312782.6097,93.51902131179496,104.05315395604529,86.74903536669947,196.46964386842683,26.265999999945052
312782.6107,88.19465856566309,99.04546067757198,79.45183070064662,186.01898769698673,26.26699999999255
312782.6117,79.83341899485634,91.37460474121434,69.51844752980996,170.849971236345,26.26799999998184
312782.6127,68.72601699107527,81.30342207451302,57.27995240584175,151.4784368571194,26.26899999997113
312782.6137,55.26672930983721,69.17531426138673,43.15313934703639,128.54620308711802,26.26999999996042
312782.6147,39.93631139035503,55.39978626504291,27.622982074458648,102.79606768251473,26.27099999994971
312782.6157,23.28141242161164,40.4355855371511,11.22230099644132,75.04360423840753,26.271999999997206
312782.6167,5.891561032041095,24.77228827894889,-5.49030498315987,46.14699133005315,26.272999999986496
312782.6177,-11.625111242732771,8.911230385546315,-21.953143450872755,16.976168208001486,26.273999999975786
312782.6187,-28.66622126440158,-6.65332454320346,-37.62361641937285,-11.617404026348677,26.274999999965075
312782.6197,-44.658425816493484,-21.45194759728583,-51.99887199838504,-38.82917926881711,26.275999999954365
312782.6207,-59.07863746579636,-35.05601280449037,-64.63401698854324,-63.92710704204679,26.277000000001863
312782.6217,-71.47232109457714,-47.09129243453383,-75.15717274823317,-86.27349315844957,26.277999999991152
312782.6227,-81.46823742554338,-57.248770998098856,-83.28087420180566,-105.34250074207203,26.278999999980442
312782.6237,-88.7892298274198,-65.29245011055164,-88.80954353603803,-120.7328931070657,26.279999999969732
312782.6247,-93.2588824865675,-71.06409234252293,-91.6429977025293,-132.17586135460422,26.280999999959022
312782.6257,-94.80409478049539,-74.4850101742426,-91.77615563002723,-139.5380051833216,26.28199999994831
312782.6267,-93.45380420168986,-75.55513533900398,-89.29528340274425,-142.819731663085,26.28299999999581
312782.6277,-89.334238045288,-74.34969675301943,-84.37124402949061,-142.14949329075998,26.2839999999851
312782.6287,-82.66117634305064,-71.01388844587233,-77.25029798905445,-137.77439731284315,26.28499999997439
312782.6297,-73.7297639387176,-65.7559231215995,-68.24303152787348,-130.04778131552763,26.28599999996368
312782.6307,-62.90242136491561,-58.83884675170402,-57.711976278692156,-119.4143681453078,26.286999999952968
312782.6317,-50.59537935247991,-50.57144271114458,-46.058434529979316,-106.39359304824085,26.288000000000466
312782.6327,-37.26431031922633,-41.29849049607631,-33.70895050494714,-91.56164743260756,26.288999999989755
312782.6337,-23.389463677205118,-31.39057525406004,-21.101781864396244,-75.53271888408206,26.289999999979045
312782.6347,-9.460642262299277,-21.233581404123893,-8.673639979259441,-58.939838738218235,26.290999999968335
312782.6357,4.03770433772085,-11.2179564570988,3.1531062673921917,-42.41568864301125,26.291999999957625
312782.6367,16.641038438032997,-1.7278073643933642,13.982621314174208,-26.573675951663404,26.292999999946915
312782.6377,27.918735842897906,6.870104255747876,23.45707299114649,-11.989570896708157,26.293999999994412
312782.6387,37.487318844190476,14.237369140400336,31.26726466549072,0.8159915398102981,26.294999999983702
312782.6397,45.02268417025326,20.074782937003828,37.162284738656155,11.393807848300574,26.29599999997299
312782.6407,50.271047854390396,24.1328112731442,40.95798163379563,19.38081149166745,26.29699999996228
312782.6417,53.058279806585105,26.221349473954728,42.54401511653298,24.512740785088155,26.29799999995157
312782.6427,53.29725523443327,26.21837768841754,41.88917892078684,26.634271100543252,26.29899999999907
312782.6437,50.99282001839812,24.07704720826872,39.044647685890645,25.706083530646012,26.29999999998836
312782.6447,46.24396421077188,19.83069761686073,34.14478511284371,21.808347331681233,26.30099999997765
312782.6457,39.24283153315098,13.595307648462235,27.405170027970655,15.14014474480059,26.301999999966938
312782.6467,30.27026936181925,5.568932661902736,19.117559464864055,6.014471121832224,26.302999999956228
312782.6477,19.687745194411974,-3.972218384327877,9.641615424110348,-5.151397749418105,26.303999999945518
312782.6487,7.925619051517287,-14.681265340212429,-0.60662779311463,-17.850170088114208,26.304999999993015
312782.6497,-4.5320413075775114,-26.151707909810767,-11.169393381452249,-31.503184616326358,26.305999999982305
312782.6507,-17.165696754917924,-37.931835261214715,-21.564518349930808,-45.48291737153072,26.306999999971595
312782.6517,-29.44099558872515,-49.54205090289339,-31.30495063536849,-59.138552335291884,26.307999999960884
312782.6527,-40.83101608759456,-60.49444107410424,-39.91959798444659,-71.82356512060989,26.308999999950174
312782.6537,-50.83907836719249,-70.31371116180199,-46.97456758761338,-82.92405899377144,26.30999999999767
312782.6547,-59.02098755647157,-78.55845505603425,-52.09371326139767,-91.88644883971743,26.31099999998696
312782.6557,-65.0055146242429,-84.84162389921913,-54.977350236403794,-98.24302927716224,26.31199999997625
312782.6567,-68.51194423763307,-88.84903622042297,-55.41801741371052,-101.63399990896967,26.31299999996554
312782.6577,-69.36362568407517,-90.35482820443241,-53.31226849733758,-101.82465800908462,26.31399999995483
312782.6587,-67.49665109978196,-89.23288143740562,-48.667655109246446,-98.7167027324411,26.31500000000233
312782.6597,-62.96304581535992,-85.46347946233413,-41.60431819038261,-92.35291261788987,26.315999999991618
312782.6607,-55.92817257993906,-79.13472061991139,-32.35091332190242,-82.91483940011933,26.316999999980908
312782.6617,-46.662403082220145,-70.43853377747256,-21.23494000882486,-70.71357937306055,26.317999999970198
312782.6627,-35.52747083977325,-59.66148208604814,-8.667899321248193,-56.174108105441356,26.318999999959487
312782.6637,-22.958261574372845,-47.17087186834768,4.87395853707464,-39.814063120678036,26.319999999948777
312782.6647,-9.44109355814149,-33.39698303432605,18.872241908695496,-22.218201552303643,26.320999999996275
312782.6657,4.510232974127521,-18.812480220283035,32.791100385535564,-4.010019281714163,26.321999999985565
312782.6667,18.379200215777914,-3.91023080796064,46.10256364370769,14.17782525396776,26.322999999974854
312782.6677,31.670696131236415,10.819165944099531,58.31107760030581,31.732597055395054,26.323999999964144
312782.6687,43.933107969730926,24.908850750361317,68.97584184718626,48.08846893977306,26.324999999953434
312782.6697,54.77716181808996,37.93499742130357,77.72971316414484,62.74997600336454,26.32600000000093
312782.6707,63.890533792771436,49.53293730024019,84.29368604673292,75.31078770281833,26.32699999999022
312782.6717,71.04757267875861,59.40937922502764,88.48627272063575,85.46699008163934,26.32799999997951
312782.6727,76.1138266377754,67.35028550910995,90.22745686466735,93.02445614920086,26.3289999999688
312782.6737,79.04542923198011,73.22427743649797,89.5372589935988,97.90027724913143,26.32999999995809
312782.6747,79.88374330126832,76.9817473563927,86.52929841355596,100.11860160844633,26.33099999994738
312782.6757,78.74595830444419,78.65012418510142,81.40004015177261,99.8015503376801,26.331999999994878
312782.6767,75.81256530836535,78.32595438972116,74.41465295025739,97.15613354100869,26.332999999984168
312782.6777,71.31277811918174,76.16460644413779,65.89056024424171,92.4582546775658,26.333999999973457
312782.6787,65.50902112260195,72.36847536115684,56.17983152890377,86.03496297630608,26.334999999962747
312782.6797,58.68156459981228,67.17455477676859,45.651536291247275,78.24609324005897,26.335999999952037
312782.6807,51.11426508324791,60.8421640992392,34.67507432360287,69.4663295730635,26.336999999999534
312782.6817,43.082177313133435,53.64148079180084,23.605319321036447,60.068561060975384,26.337999999988824
312782.6827,34.84156665858088,45.84335120836262,12.770187212202535,50.40918480386054,26.338999999978114
312782.6837,26.622590974304366,37.710658736822104,2.4609900825705466,40.81577915963554,26.339999999967404
312782.6847,18.624664263338353,29.491337156381384,-7.074314721424402,31.577341910526133,26.340999999956694
312782.6857,11.014285224132477,21.412950256437597,-15.635099533125015,22.937086264007217,26.341999999945983
312782.6867,3.9249320375245236,13.678632317547505,-23.069571323075298,15.08762955070448,26.34299999999348
312782.6877,-2.5414947914654364,6.464109028940978,-29.274243043040038,8.168306405021134,26.34399999998277
312782.6887,-8.312249428506476,-0.08450065478968859,-34.19187407307866,2.2642941756324637,26.34499999997206
312782.6897,-13.340885221304609,-5.8523666288216605,-37.808384210098815,-2.5927499603471196,26.34599999996135
312782.6907,-17.604431597035422,-10.75729912228413,-40.14918910636056,-6.422783209510191,26.34699999995064
312782.6917,-21.100936607954253,-14.750844573187992,-41.275302700613935,-9.294357831443682,26.347999999998137
312782.6927,-23.847546677139878,-17.819077390474494,-41.27942092160187,-11.320543885073077,26.348999999987427
312782.6937,-25.87912478027561,-19.982921689319518,-40.28206026973283,-12.653758433419457,26.349999999976717
312782.6947,-27.24725130016043,-21.297744340167732,-38.42769461496305,-13.479401137286604,26.350999999966007
312782.6957,-28.01932804822746,-21.85190823274328,-35.880731614567075,-14.008173334932488,26.351999999955297
312782.6967,-28.277431233825688,-21.7639733843251,-32.82111060097496,-14.46698572290397,26.352999999944586
312782.6977,-28.11654335354759,-21.178288149052708,-29.43929523388871,-15.088440979076518,26.353999999992084
312782.6987,-27.64183996252975,-20.25882124235003,-25.930478885722447,-16.09900707707776,26.354999999981374
312782.6997,-26.96481065617358,-19.181238787131186,-22.48791422674672,-17.70616256730983,26.355999999970663
312782.7007,-26.198143057308027,-18.123414417793988,-19.295410207269708,-20.084978804524916,26.356999999959953
312782.7017,-25.449477236706084,-17.25475552163059,-16.519193960902086,-23.364784041899345,26.357999999949243
312782.7027,-24.81432501382794,-16.724913391164346,-14.299493074211739,-27.616706922032176,26.35899999999674
312782.7037,-24.368621593103185,-16.652597674796315,-12.74233488504152,-32.84299963157873,26.35999999998603
312782.7047,-24.161514391165753,-17.11531647910899,-11.912164619842706,-38.969074936514644,26.36099999997532
312782.7057,-24.20907725103724,-18.140897527836383,-11.825936994711972,-45.839143496532046,26.36199999996461
312782.7067,-24.489654253175477,-19.70160368484226,-12.449325092551334,-53.21620293947839,26.3629999999539
312782.7077,-24.941479455034603,-21.71153584324814,-13.695610950531124,-60.786911438623875,26.364000000001397
312782.7087,-25.463088099140073,-24.02782323507503,-15.427676504954674,-68.17158794288694,26.364999999990687
312782.7097,-25.916839729536015,-26.4558485149469,-17.463310619758992,-74.9392386007809,26.365999999979977
312782.7107,-26.135629789110634,-28.758461713046344,-19.58380355246569,-80.62714037012437,26.366999999969266
312782.7117,-25.932594717797556,-30.66882719093046,-21.545535096191173,-84.76414834554843,26.367999999958556
312782.7127,-25.11334098880534,-31.906247456156855,-23.09400059238203,-86.8965642217588,26.368999999947846
312782.7137,-23.489976783757335,-32.194043608680296,-23.97948467815659,-86.6151391388392,26.369999999995343
312782.7147,-20.896020711861805,-31.278368471137597,-23.973409073821777,-83.5816100835529,26.370999999984633
312782.7157,-17.201126020180844,-28.946704631949096,-22.884267104275423,-77.55310336583422,26.371999999973923
312782.7167,-12.324506238864217,-25.044768720511183,-20.57202730984914,-68.40279114342114,26.372999999963213
312782.7177,-6.245986948794095,-19.490610433728424,-16.959947499705628,-56.135357586003515,26.373999999952503
312782.7187,0.9862620361421911,-12.284856936194647,-12.0428870025968,-40.89611034041377,26.375
312782.7197,9.252047951127178,-3.516298847444495,-5.891428789612217,-22.972941743618872,26.37599999998929
312782.7207,18.359985829357875,6.637675559660326,1.3485924523647574,-2.7907765176583252,26.37699999997858
312782.7217,28.052973082512345,17.91594039118228,9.461238014072533,19.101393019740822,26.37799999996787
312782.7227,38.01810326689895,29.983565160476907,18.17003663162942,42.050321004849344,26.37899999995716
312782.7237,47.90048610742274,42.44625197321932,27.15141003307944,65.32418193435642,26.37999999994645
312782.7247,57.320150568967655,54.868403811448346,36.05110740410323,88.14275573302197,26.380999999993946
312782.7257,65.89097947130473,66.7937134769259,44.50259296447538,109.71050822216962,26.381999999983236
312782.7267,73.24047641684189,77.76700980389411,52.146201913574465,129.25079418770423,26.382999999972526
312782.7277,79.02911019084051,87.35603954320092,58.64784252964332,146.03937215495299,26.383999999961816
312782.7287,82.96802186526489,95.17190211957109,63.71607797381434,159.43550034394363,26.384999999951106
312782.7297,84.83401094293754,100.88698445863413,67.11656410336168,168.9090724647384,26.385999999998603
312782.7307,84.4809266784381,104.24945105535114,68.68303571975794,174.06253228259752,26.386999999987893
312782.7317,81.84686038052168,105.09361110750366,68.32430351083006,174.6466531203886,26.387999999977183
312782.7327,76.95684050280043,103.34578629949372,66.0270236663895,170.56965438972045,26.388999999966472
312782.7337,69.92104860010173,99.0256140287785,61.85430597459678,161.89952191650102,26.389999999955762
312782.7347,60.928874550740936,92.2430160750193,55.94050877477114,148.85977323329618,26.390999999945052
312782.7357,50.2393898077301,83.19131895087226,48.48280778286009,131.81923746168886,26.39199999999255
312782.7367,38.16901815098994,72.13721093950217,39.73030254715978,111.27668158370572,26.39299999998184
312782.7377,25.07731076854584,59.40834962010349,29.97152738526467,87.84129734916485,26.39399999997113
312782.7387,11.351779875677616,45.379486963955294,19.521258483781992,62.21016002950976,26.39499999996042
312782.7397,-2.607286662446498,30.45795851884534,8.707458146871856,35.14378375211428,26.39599999994971
312782.7407,-16.401210106646587,15.069297229307978,-2.140919443041171,7.440837452294717,26.396999999997206
312782.7417,-29.64584525902699,-0.3564048197231967,-12.704703818390236,-20.087034320425012,26.397999999986496
312782.7427,-41.98258282789244,-15.396933831935401,-22.68350650160543,-46.63950120283384,26.398999999975786
312782.7437,-53.087182989015446,-29.648921271473416,-31.802791579903325,-71.45034132904044,26.399999999965075
312782.7447,-62.67640337335303,-42.73724673507695,-39.81906504056424,-93.80831041345037,26.400999999954365
312782.7457,-70.51256960665859,-54.32293370610793,-46.523395667250874,-113.07581178526154,26.402000000001863
312782.7467,-76.40637979152126,-64.10970621296599,-51.74360108999935,-128.7052149707026,26.402999999991152
312782.7477,-80.21832449595668,-71.84943680621997,-55.3454981337271,-140.25274886488504,26.403999999980442
312782.7487,-81.85913545127657,-77.34672682382687,-57.233623347405405,-147.38992878719512,26.404999999969732
312782.7497,-81.28965015413466,-80.46282142368129,-57.351780201262486,-149.9124687569739,26.405999999959022
312782.7507,-78.52040282100936,-81.11898259402952,-55.68367238395972,-147.74659064134315,26.40699999994831
312782.7517,-73.61113670112297,-79.29933601445639,-52.25375116969361,-140.95258411042434,26.40799999999581
312782.7527,-66.67029444762836,-75.05308795000968,-47.128255569115986,-129.72541179422817,26.4089999999851
312782.7537,-57.85440002832738,-68.49589335703097,-40.41627520344474,-114.39210945283723,26.40999999997439
312782.7547,-47.367115767084506,-59.81006264993374,-32.27053567899857,-95.40571673546457,26.41099999996368
312782.7557,-35.45765824702522,-49.24323656454075,-22.887510911092132,-73.33550239597656,26.411999999952968
312782.7567,-22.41820046843289,-37.10514707095398,-12.506419086258436,-48.85332613939262,26.413000000000466
312782.7577,-8.579883750216519,-23.762123391716088,-1.406666743624986,-22.71610936091888,26.413999999989755
312782.7587,5.692885221085203,-9.629096468235094,10.096628811941487,4.25543551812015,26.414999999979045
312782.7597,20.01007163015047,4.841002355066573,21.65928843219322,31.201453081012072,26.415999999968335
312782.7607,33.96565348007189,19.170372439548455,32.91697583051374,57.250370794741954,26.416999999957625
312782.7617,47.1491542881736,32.87172554163173,43.49624646718775,81.54826626000181,26.417999999946915
312782.7627,59.15876016167082,45.465430575692245,53.02742012742582,103.28912272523839,26.418999999994412
312782.7637,69.6155239587384,56.497740016440346,61.15875503846196,121.7447453104477,26.419999999983702
312782.7647,78.17799455119992,65.55925607197617,67.57122712311947,136.29299784937186,26.42099999997299
312782.7657,84.55648774267308,72.30268479670184,71.99308951190766,146.44298521245165,26.42199999996228
312782.7667,88.52615152743826,76.45887998972484,74.21331939402033,151.85585818573796,26.42299999995157
312782.7677,89.93798132219514,77.85020404855793,74.09306111376166,152.3600602795019,26.42399999999907
312782.7687,88.72701362549303,76.40033189165574,71.5742492797493,147.96006362820765,26.42499999998836
312782.7697,84.91706575698286,72.13979223333683,66.68474001052331,138.83794261395948,26.42599999997765
312782.7707,78.62158510046714,65.20676739735777,59.539482264681986,125.34749085973624,26.426999999966938
312782.7717,70.0404084198674,55.84294273628275,50.33750884253249,108.00097677973545,26.427999999956228
312782.7727,59.45249117552173,44.38448990548289,39.35479824389214,87.44902893156375,26.428999999945518
312782.7737,47.204927054444575,31.24856283299035,26.933331913711324,64.45451811864316,26.429999999993015
312782.7747,33.69881776434841,16.915959041957475,13.466924023875034,39.86163299122201,26.430999999982305
312782.7757,19.372753072473433,1.9108314682078007,-0.6153878206576984,14.561607585203589,26.431999999971595
312782.7767,4.684805353872757,-13.221490086736123,-14.867449608058875,-10.54326435489777,26.432999999960884
312782.7777,-9.905979099143407,-27.93740555832628,-28.844571319923812,-34.57561323152594,26.433999999950174
312782.7787,-23.957602774039835,-41.71749119798058,-42.12154870152352,-56.717280651812516,26.43499999999767
312782.7797,-37.06172696134688,-54.08735005305979,-54.309160970816144,-76.24033208534203,26.43599999998696
312782.7807,-48.85806720442151,-64.63585437264973,-65.06831238039348,-92.53342275254832,26.43699999997625
312782.7817,-59.045947032115485,-73.02995308034704,-74.12117278693988,-105.12242240783368,26.43799999996554
312782.7827,-67.39259166012319,-79.02544819485475,-81.258896547068,-113.68453611386293,26.43899999995483
312782.7837,-73.73796826115284,-82.4734021417821,-86.3457407417904,-118.05552067557376,26.44000000000233
312782.7847,-77.99620200031069,-83.32210366516665,-89.31964290714288,-118.22996660030034,26.440999999991618
312782.7857,-80.15380010943947,-81.61477420044926,-90.18953625304015,-114.35497012138231,26.441999999980908
312782.7867,-80.26508525819304,-77.48342163397797,-89.0298606899784,-106.71783771550608,26.442999999970198
312782.7877,-78.44536354081669,-71.13943002352995,-85.97285880567408,-95.72872869177141,26.443999999959487
312782.7887,-74.86242518830325,-62.86160193088614,-81.19932010836705,-81.89933629846055,26.444999999948777
312782.7897,-69.72699608797609,-52.982439167358464,-74.92845256214184,-65.81882611842974,26.445999999996275
312782.7907,-63.28272849623611,-41.87345766037599,-67.4075211009937,-48.12828977515799,26.446999999985565
312782.7917,-55.79624731975605,-29.93028735361341,-58.9018065527038,-29.494935380762023,26.447999999974854
312782.7927,-47.54766474686265,-17.558217373529992,-49.68531715958326,-10.587132293967281,26.448999999964144
312782.7937,-38.82185384932815,-5.158722303531243,-40.032543161210484,7.948730340091378,26.449999999953434
312782.7947,-29.90064507293665,6.8826383767012445,-30.21139837619679,25.50880786277405,26.45100000000093
312782.7957,-21.05599197832736,18.20670372830056,-20.47735670726633,41.54923985811836,26.45199999999022
312782.7967,-12.54405619285767,28.48947175434211,-11.068679486647243,55.600136150176695,26.45299999997951
312782.7977,-4.600095432889622,37.449146591258256,-2.202551914017997,67.27598349402426,26.4539999999688
312782.7987,2.56599200646184,44.85156681512572,5.9280903312758495,76.2825233389134,26.45499999995809
312782.7997,8.773606751434485,50.51415770414975,13.157258556091074,82.4202899302476,26.45599999994738
312782.8007,13.874973055804835,54.30856270235971,19.348303940184156,85.58509531077439,26.456999999994878
312782.8017,17.758285200235974,56.162089993733986,24.39610414599606,85.76580370508128,26.457999999984168
312782.8027,20.35043268919172,56.0580672623146,28.229050481155486,83.03975686746752,26.458999999973457
312782.8037,21.619180108099307,54.035142384836284,30.810746459417537,77.56620217921167,26.459999999962747
312782.8047,21.574607629630012,50.185512292663745,32.141242610403964,69.57804667729958,26.460999999952037
312782.8057,20.26957170315033,44.6520185654237,32.25756972999491,59.37222358782606,26.461999999999534
312782.8067,17.79893180661108,37.624026627840706,31.233304027564074,47.29892344809321,26.462999999988824
312782.8077,14.29731379952163,29.33201266553531,29.17690934030332,33.7499177473751,26.463999999978114
312782.8087,9.935244283116166,20.040821386784803,26.228655387375998,19.14619458318913,26.464999999967404
312782.8097,4.91358950378591,10.041626840321968,22.556003412655247,3.925135146042698,26.465999999956694
312782.8107,-0.5436417168644525,-0.35727841640711183,18.347473170857455,-11.472514519603656,26.466999999945983
312782.8117,-6.197930863824741,-10.840633179934139,13.805145750500126,-26.615584656828286,26.46799999999348
312782.8127,-11.80597730149596,-21.09695463462511,9.136100269603771,-41.09500196944031,26.46899999998277
312782.8137,-17.130053435157162,-30.829442985962565,4.543213089001783,-54.53551683863055,26.46999999997206
312782.8147,-21.948423765788068,-39.76653093048242,0.2158506607000308,-66.60624045443222,26.47099999996135
312782.8157,-26.065208920912013,-47.6715275296678,-3.6789513295989837,-77.02959088996903,26.47199999995064
312782.8167,-29.319070115238098,-54.35081159356843,-7.004218219649034,-85.58827109511034,26.472999999998137
312782.8177,-31.590136979630312,-59.66008184377342,-9.659114082788125,-92.12995727387629,26.473999999987427
312782.8187,-32.8047006591047,-63.50826857305102,-11.582900074586592,-96.56946349118616,26.474999999976717
312782.8197,-32.937337801648155,-65.85884818057059,-12.75644792280499,-98.88826430275675,26.475999999966007
312782.8207,-32.01030832800879,-66.72846757626534,-13.201159324950044,-99.13139482185163,26.476999999955297
312782.8217,-30.090266019736976,-66.18296653982883,-12.975338263859028,-97.40189698006598,26.477999999944586
312782.8227,-27.28251923574723,-64.33106729899387,-12.168262316108665,-93.8531296834894,26.478999999992084
312782.8237,-23.723262196516597,-61.316166035173794,-10.89238312914659,-88.67939596962735,26.479999999981374
312782.8247,-19.570349079287308,-57.30679598422322,-9.274238663078862,-82.10544929514157,26.480999999970663
312782.8257,-14.99329004895294,-52.486423989366166,-7.4447664357357,-74.37551253678743,26.481999999959953
312782.8267,-10.163200534176166,-47.0432830962757,-5.5297577016725405,-65.74246884835287,26.482999999949243
312782.8277,-5.243427485596466,-41.16092877014704,-3.6411819214060785,-56.457858716828326,26.48399999999674
312782.8287,-0.3815091388431106,-35.010136075770255,-1.8700390742769428,-46.7632424073526,26.48499999998603
312782.8297,4.296996742693811,-28.742634995924544,-0.28126975501599377,-36.88336615699658,26.48599999997532
312782.8307,8.692446978492178,-22.487020644886965,1.088920065782081,-27.021413071629162,26.48699999996461
312782.8317,12.732636323500389,-16.346987731957903,2.233166788145384,-17.3564385356549,26.4879999999539
312782.8327,16.371946458743622,-10.40184003219222,3.170554306264274,-8.042900579506327,26.489000000001397
312782.8337,19.588361799095004,-4.709032832417455,3.941993956230824,0.7879850812459004,26.489999999990687
312782.8347,22.378775338982244,0.6916638721117674,4.603845597930266,9.025491047304131,26.490999999979977
312782.8357,24.753150762239613,5.772926141329913,5.2203945015685465,16.57576618955163,26.491999999969266
312782.8367,26.728197903389294,10.514188244690464,5.855893097587137,23.357969747380473,26.492999999958556
312782.8377,28.321248684075393,14.896158740532496,6.566908183462722,29.30075990693268,26.493999999947846
312782.8387,29.544986511503378,18.896157699060467,7.395679476323579,34.339688354750955,26.494999999995343
312782.8397,30.403586266288197,22.484799200909748,8.365097010343685,38.41593842554753,26.495999999984633
312782.8407,30.890672637356623,25.62440040452998,9.475751213134462,41.47668317204813,26.496999999973923
312782.8417,30.989315081101186,28.269318680255143,10.705314192296827,43.47714559142331,26.497999999963213
312782.8427,30.674065585112157,30.368218056811656,12.0102915359612,44.384234720182945,26.498999999952503
312782.8437,29.91483075323258,31.868064251809777,13.329960990521018,44.181428821556416,26.5
312782.8447,28.68217324372392,32.719463092082904,14.592108555997678,42.87440102374508,26.50099999998929
312782.8457,26.953478718305444,32.882808054068946,15.72000329008404,40.49675216654406,26.50199999997858
312782.8467,24.71931936014493,32.3346037330929,16.639935601801458,37.11514502209167,26.50299999996787
312782.8477,21.98930489398315,31.073293424290924,17.288591290666155,32.83313269515373,26.50399999995716
312782.8487,18.796741888061415,29.123945105194185,17.61955020458516,27.793044470729093,26.50499999994645
312782.8497,15.20152008972435,26.541239159353587,17.60828264508238,22.175430165092216,26.505999999993946
312782.8507,11.290802008276529,23.41034524542942,17.25516046904553,16.19575782963701,26.506999999983236
312782.8517,7.177294238035808,19.845461452703862,16.586189338874032,10.098292288096278,26.507999999972526
312782.8527,2.9951067970784013,15.985998803450414,15.651385414701672,4.147332052086617,26.508999999961816
312782.8537,-1.1065620202881037,11.990608334001314,14.520942966265865,-1.3837739035587946,26.509999999951106
312782.8547,-4.971465728053077,8.029445993379012,13.279547334280968,-6.225193590357373,26.510999999998603
312782.8557,-8.445453121993605,4.275233552799817,12.019360378915923,-10.123963666007729,26.511999999987893
312782.8567,-11.385978681716473,0.8937861270706217,10.83232654512631,-12.857227695777205,26.512999999977183
312782.8577,-13.67119706818787,-1.9652718001508485,9.802505645614064,-14.244442177200426,26.513999999966472
312782.8587,-15.207885756609823,-4.176894387970872,8.999128372276353,-14.15768916872022,26.514999999955762
312782.8597,-15.937537444325134,-5.647477386185841,8.470994085382058,-12.529365927322425,26.515999999945052
312782.8607,-15.840122719526132,-6.3197012039451606,8.242695793766554,-9.356715343388496,26.51699999999255
312782.8617,-14.935228098759294,-6.175036119590717,8.312978255741362,-4.7028982854432515,26.51799999998184
312782.8627,-13.280505056116569,-5.233793653203441,8.65532981599131,1.3054316501785772,26.51899999997113
312782.8637,-10.967599788303179,-3.5528156540661873,9.220697313434918,8.483832757096774,26.51999999996042
312782.8647,-8.115948730421762,-1.2210858046392363,9.942016814291668,16.598608093125225,26.52099999994971
312782.8657,-4.865000852266105,1.6462911922012944,10.74008996868787,25.377527908733562,26.521999999997206
312782.8667,-1.3655481608150906,4.91518419915313,11.530221813186467,34.52197636758958,26.522999999986496
312782.8677,2.2291001471434027,8.439989256401555,12.228981185267166,43.71970134602049,26.523999999975786
312782.8687,5.771380960113137,12.071032290932767,12.76045397052169,52.65736333555191,26.524999999965075
312782.8697,9.126543325045,15.66127462254766,13.061430266732804,61.032165338980306,26.525999999954365
312782.8707,12.178025390598597,19.07188930858751,13.085091282772819,68.56198900607528,26.527000000001863
312782.8717,14.830836419999343,22.17642831197123,12.802927245395416,74.99364657534774,26.527999999991152
312782.8727,17.0128485200888,24.863473235576347,12.204806711891633,80.10906327418488,26.528999999980442
312782.8737,18.674116154469342,27.03783720165813,11.297311194962102,83.72940886635126,26.529999999969732
312782.8747,19.784536408569902,28.620543588150937,10.100627253250668,85.71737880475435,26.530999999959022
312782.8757,20.330319809390314,29.54793187090301,8.644433098718332,85.97796648136881,26.53199999994831
312782.8767,20.309844601326663,29.770318505733112,6.963313568716827,84.4581545436591,26.53299999999581
312782.8777,19.729506501330345,29.25066339266552,5.092276068104837,81.14597743739269,26.5339999999851
312782.8787,18.600147337207545,27.963657697692522,3.062916709660723,76.06936844632499,26.53499999997439
312782.8797,16.93455274728294,25.89556058027155,0.9007025884806191,69.29510881886307,26.53599999996368
312782.8807,14.746361071685763,23.044980464406056,-1.3762986945704818,60.92805687837335,26.536999999952968
312782.8817,12.050538212042872,19.424635567891347,-3.757083703739179,51.11066927969837,26.538000000000466
312782.8827,8.865366323692486,15.063956540595568,-6.235805904001488,40.022656083276885,26.538999999989755
312782.8837,5.215689754190799,10.012230867651464,-8.808522440535645,27.880458373488857,26.539999999979045
312782.8847,1.136981733870314,4.341853263772795,-11.46899225599824,14.936122607999726,26.540999999968335
312782.8857,-3.3203401611464702,-1.8488448155048556,-14.204054689031382,1.4750867900902638,26.541999999957625
312782.8867,-8.08699720251905,-8.433747938162805,-16.989195154728197,-12.187598887793289,26.542999999946915
312782.8877,-13.071984515075073,-15.258624470157507,-19.784917974447225,-25.713016124528064,26.543999999994412
312782.8887,-18.16134436291149,-22.142750099032217,-22.534492686345303,-38.74634171678689,26.544999999983702
312782.8897,-23.219029764257648,-28.88277890549461,-25.16352282316529,-50.92708454149541,26.54599999997299
312782.8907,-28.090119998808554,-35.25896030448631,-27.58161532720104,-61.901414606703376,26.54699999996228
312782.8917,-32.60642060973655,-41.04357944833656,-29.686220247898188,-71.33615275511812,26.54799999995157
312782.8927,-36.5942348972513,-46.01127125411286,-31.36848405133305,-78.93375238767797,26.54899999999907
312782.8937,-39.88385564335868,-49.95064597401204,-32.52073794515968,-84.44740566642614,26.54999999998836
312782.8947,-42.32011874675153,-52.676488344295855,-33.045047419947764,-87.6952692125925,26.55099999997765
312782.8957,-43.77320599025011,-54.041671284681094,-32.8621010599902,-88.57274643405889,26.551999999966938
312782.8967,-44.14879919664771,-53.94787285730087,-31.91963192281291,-87.06179640834827,26.552999999956228
312782.8977,-43.396683236557145,-52.35420984860306,-30.19955411723318,-83.23636556814344,26.553999999945518
312782.8987,-41.51697408888723,-49.2830042712818,-27.723064498353132,-77.26325238359458,26.554999999993015
312782.8997,-38.56330597542148,-44.82207459440762,-24.553101137591756,-69.39800246752071,26.555999999982305
312782.9007,-34.642536490123305,-39.123179139996104,-20.793755645189453,-59.97577037976956,26.556999999971595
312782.9017,-29.910802005879916,-32.39651654241278,-16.586488298496043,-49.39744770448789,26.557999999960884
312782.9027,-24.566053837474566,-24.901484814602032,-12.103271053834264,-38.11171441328604,26.558999999950174
312782.9037,-18.83750214284869,-16.93419135445076,-7.53705870670873,-26.593991380454778,26.55999999999767
312782.9047,-12.972662380990307,-8.812465932293401,-3.0902369193199504,-15.323527841852773,26.56099999998696
312782.9057,-7.222913448924719,-0.85933425430462,1.0381063451476682,-4.760025272293908,26.56199999997625
312782.9067,-1.8286170478150712,6.61395763073397,4.665111877311398,4.6787374718591614,26.56299999996554
312782.9077,2.995099424169203,13.324230567731274,7.636264681952902,12.636861086866505,26.56399999995483
312782.9087,7.070834933694442,19.030876926818994,9.835720979786075,18.836605585984227,26.56500000000233
312782.9097,10.268751854724448,23.547619208924562,11.194005531415833,23.08998848340435,26.565999999991618
312782.9107,12.513039150244339,26.750766807627134,11.69244514502685,25.30502900521168,26.566999999980908
312782.9117,13.784555011740546,28.58348184495942,11.36396854560554,25.486348259276923,26.567999999970198
312782.9127,14.119511288163205,29.055868008874995,10.290200671955393,23.730236841164025,26.568999999959487
312782.9137,13.604380446649253,28.241009688971097,8.59508410959319,20.214689614365646,26.569999999948777
312782.9147,12.367505519703625,26.26738589432799,6.435544409456321,15.185251334641338,26.570999999996275
312782.9157,10.568148448012876,23.308339737316913,3.989954247920891,8.937789485627869,26.571999999985565
312782.9167,8.383900827147054,19.56947904247519,1.4453230324261581,1.7994916323478107,26.572999999974854
312782.9177,5.997488107565654,15.2750021100316,-1.0157706587063993,-5.8905387580235145,26.573999999964144
312782.9187,3.5840162286282666,10.653977089531335,-3.2274831782377915,-13.79974543152355,26.574999999953434
312782.9197,1.2996390648475729,5.927553585141293,-5.051308780588073,-21.618432940406887,26.57600000000093
312782.9207,-0.7275256825619234,1.297958100872712,-6.384203887836154,-29.07294573930626,26.57699999999022
312782.9217,-2.4036202297955698,-3.060065769840269,-7.163676705045574,-35.935020299603664,26.57799999997951
312782.9227,-3.672058505979559,-7.004947427741094,-7.369548842331457,-42.02695384341012,26.5789999999688
312782.9237,-4.513255843860897,-10.430944127997657,-7.022375724892057,-47.22258466954811,26.57999999995809
312782.9247,-4.9412843908601936,-13.26785532470652,-6.178786025010539,-51.44441680025541,26.58099999994738
312782.9257,-4.9979131797088145,-15.478130083600494,-4.924244310514926,-54.65751862498031,26.581999999994878
312782.9267,-4.744695656587875,-17.05189927128976,-3.3639359811799987,-56.861057977659044,26.582999999984168
312782.9277,-4.2539082716017695,-18.000606315313995,-1.6126044786738976,-58.07848688219891,26.583999999973457
312782.9287,-3.5992114003029085,-18.349986340219314,0.21577143857208939,-58.347447225057174,26.584999999962747
312782.9297,-2.8468946244233044,-18.13314928645231,2.017590749631376,-57.710430847457715,26.585999999952037
312782.9307,-2.0484849510390104,-17.384460151300758,3.707754706972964,-56.207099022000214,26.586999999999534
312782.9317,-1.2353476948646835,-16.134786471368237,5.225678040988865,-53.86895969407645,26.587999999988824
312782.9327,-0.4157096062307037,-14.40851235370544,6.538764992142861,-50.71683562151796,26.588999999978114
312782.9337,0.42569934735542125,-12.222516443760634,7.643162050281154,-46.76125715902873,26.589999999967404
312782.9347,1.3254344466247188,-9.587097381113974,8.561843184212302,-42.00560751679621,26.590999999956694
312782.9357,2.3368394517974864,-6.508624591111125,9.340316156281373,-36.4515641888254,26.591999999945983
312782.9367,3.523754128397648,-2.9935138707467686,10.040440007735585,-30.106144376888544,26.59299999999348
312782.9377,4.95307179666868,0.9470072512340966,10.732996510563511,-22.98949680938888,26.59399999998277
312782.9387,6.686886185090195,5.291957481636822,11.489749169315314,-15.142503083007268,26.59499999997206
312782.9397,8.774989620144517,10.00611068618865,12.375744643204579,-6.6332661527010455,26.59599999996135
312782.9407,11.248434940167412,15.036533306612574,13.442562028398152,2.438329526018103,26.59699999995064
312782.9417,14.114756730738046,20.310618346949795,14.723100691390043,11.938612874710506,26.597999999998137
312782.9427,17.355275283118345,25.73592633811751,16.22832892516903,21.701050607548783,26.598999999987427
312782.9437,20.924696292875304,31.201953907011728,17.94621051502901,31.530185282549066,26.599999999976717
312782.9447,24.752991824104512,36.58374815056402,19.842804943668998,41.20837146411675,26.600999999966007
312782.9457,28.749326334908538,41.74709086100829,21.86532170551461,50.50481578362244,26.601999999955297
312782.9467,32.80759791497532,46.5548109679236,23.946721722185323,59.18619703294006,26.602999999944586
312782.9477,36.81301876259798,50.87366370697705,26.01131798501454,67.02798494799627,26.603999999992084
312782.9487,40.64907479918568,54.581153620695275,27.980747259586288,73.82550676741131,26.604999999981374
312782.9497,44.20419012881085,57.57168205181035,29.779672551125028,79.40383565361014,26.605999999970663
312782.9507,47.37747835268921,59.761467958653185,31.340632412401657,83.62569155717195,26.606999999959953
312782.9517,50.08308265359298,61.09181647294171,32.607571181709574,86.3967406160667,26.607999999949243
312782.9527,52.25277650067082,61.53047935373781,33.537750462130994,87.66793320948516,26.60899999999674
312782.9537,53.83669802337115,61.07104741915979,34.10193813760804,87.43480700759416,26.60999999998603
312782.9547,54.80230164045352,59.73051645860674,34.28297545285758,85.73397041476716,26.61099999997532
312782.9557,55.131807686474005,57.54535378598334,34.07301290139358,82.63724436040661,26.61199999996461
312782.9567,54.818593457127434,54.566542914430585,33.46986122614756,78.24415014153763,26.6129999999539
312782.9577,53.86308004312428,50.854182966645695,32.47300788982883,72.67356732165531,26.614000000001397
312782.9587,52.268716918534004,46.47225689799233,31.07989061364218,66.05543557375206,26.614999999990687
312782.9597,50.038645682207466,41.48415435621713,29.282993417653234,58.52333373674276,26.615999999979977
312782.9607,47.173538072490075,35.94944382870231,27.068239592274733,50.20864333149759,26.616999999969266
312782.9617,43.6709607958921,29.92224397736258,24.415009632455213,41.23680602492715,26.617999999958556
312782.9627,39.52643616949131,23.451360650484208,21.297925698255188,31.725935831268412,26.618999999947846
312782.9637,34.736162707578,16.58215294673376,17.69033723135658,21.787772982724604,26.619999999995343
312782.9647,29.301155438974465,9.359889936129477,13.569236802068065,11.530695556136966,26.620999999984633
312782.9657,23.232383706442192,1.834180195524498,8.921152907271996,1.064264842339184,26.621999999973923
312782.9667,16.556343921505977,-5.936082036639258,3.748426827901017,-9.495404369032821,26.622999999963213
312782.9677,9.320421336001203,-13.87789287757151,-1.9248009652728328,-20.02026801845927,26.623999999952503
312782.9687,1.5973775871588956,-21.90009353108575,-8.047583593688937,-30.365815873057862,26.625
312782.9697,-6.511647949229743,-29.890710547326016,-14.538772691308564,-40.3681541765408,26.62599999998929
312782.9707,-14.876119581441934,-37.716175273317994,-21.285747024029288,-49.84334214550065,26.62699999997858
312782.9717,-23.33739750172192,-45.222749870899676,-28.145600326686946,-58.58940150481302,26.62799999996787
312782.9727,-31.712463142980592,-52.240283357232855,-34.94890955178991,-66.3911551916801,26.62899999995716
312782.9737,-39.79997716648986,-58.58819874298661,-41.505972270563205,-73.02776574096868,26.62999999994645
312782.9747,-47.388350742092136,-64.08339251690465,-47.6151733455149,-78.28256328287773,26.630999999993946
312782.9757,-54.2653169765624,-68.54953131307684,-53.07293786615956,-81.9545046413155,26.631999999983236
312782.9767,-60.22833901168506,-71.82707636052939,-57.68456902436761,-83.8704127511631,26.632999999972526
312782.9777,-65.09509875394114,-73.78326918369173,-61.27517128405199,-83.89702821520717,26.633999999961816
312782.9787,-68.71328425714138,-74.32128172280268,-63.69983052093687,-81.95187392951551,26.634999999951106
312782.9797,-70.9689370683295,-73.38777420024668,-64.8522670093775,-78.01199283052483,26.635999999998603
312782.9807,-71.79272954028902,-70.97821184911446,-64.67129074216892,-72.11976306335912,26.636999999987893
312782.9817,-71.16370633135458,-67.13945800681269,-63.1445617104391,-64.38521144160885,26.637999999977183
312782.9827,-69.11022904929074,-61.96937160576205,-60.309375050789654,-54.98451550295532,26.638999999966472
312782.9837,-65.70808951173889,-55.613373191908195,-56.2504328650816,-44.1546824934375,26.639999999955762
312782.9847,-61.07598465412375,-48.258184262454556,-51.09480916343511,-32.184693454904156,26.640999999945052
312782.9857,-55.36875390654313,-40.1231684209356,-45.00453956031538,-19.40367547185112,26.64199999999255
312782.9867,-48.768948941880424,-31.449889568098016,-38.16745257450719,-6.16689079169527,26.64299999998184
312782.9877,-41.47742077741556,-22.49063540708509,-30.786987801634876,7.159511540207556,26.64399999997113
312782.9887,-33.7036601137944,-13.49672220747683,-23.071806259997054,20.213960662021417,26.64499999996042
312782.9897,-25.656609456797206,-4.7073933886796695,-15.225984682769992,32.65413637851725,26.64599999994971
312782.9907,-17.536582488387854,3.659948951892321,-7.440500238921512,44.169935943309746,26.646999999997206
312782.9917,-9.528786225331729,11.417576321680459,0.11343621052473554,54.493991430645586,26.647999999986496
312782.9927,-1.798759221069947,18.412911490530824,7.288836869283711,63.40921980911452,26.648999999975786
312782.9937,5.510166829773396,24.531448671958923,13.965047693517358,70.75314777008792,26.649999999965075
312782.9947,12.277483068205774,29.697138734204803,20.047608560394913,76.41902244288305,26.650999999954365
312782.9957,18.404487330711053,33.8704753051224,25.46617323237286,80.35397205810361,26.652000000001863
312782.9967,23.812076921077267,37.044698658456504,30.1709758534695,82.55469429360268,26.652999999991152
312782.9977,28.437887877526467,39.24066613219088,34.12845118327272,83.06130579792423,26.653999999980442
312782.9987,32.23335080545891,40.5010089368471,37.31666841002496,81.95007183894077,26.654999999969732
312782.9997,35.16119869487154,40.88420037458174,39.72121832383755,79.32574519733565,26.655999999959022
312783.0007,37.19386452901055,40.45910142980441,41.33210360830501,75.31418115068203,26.65699999994831
312783.0017,38.313056990344435,39.3004348108868,42.14203213379191,70.05577089107449,26.65799999999581
312783.0027,38.510618046063314,37.485481967826466,42.14631989260393,63.70006539315538,26.6589999999851
312783.0037,37.79056755287277,35.09211773199922,41.34439477112065,56.40176636231543,26.65999999997439
312783.0047,36.172049988484126,32.19811458525986,39.74267834473798,48.31806328766086,26.66099999996368
312783.0057,33.69273909940746,28.88148372343486,37.35843392007182,39.607118243803065,26.661999999952968
312783.0067,30.412146714921025,25.22149136437544,34.22402619922656,30.427362549657538,26.663000000000466
312783.0077,26.414236114513375,21.29991028825295,30.390957444003725,20.937186390391005,26.663999999989755
312783.0087,21.808765289390493,17.202046780198156,25.933036512030345,11.29458223008489,26.664999999979045
312783.0097,16.730880697415216,13.017123724792233,20.94810257100533,1.656346117565594,26.665999999968335
312783.0107,11.338639439779602,8.837696502324816,15.557858662929714,-7.823458770476435,26.666999999957625
312783.0117,5.808341982476247,4.7579182108971425,9.90555820696075,-16.995928043784716,26.667999999946915
312783.0127,0.32778794866428956,0.8706382116847071,4.151510627800992,-25.720613900600203,26.668999999994412
312783.0137,-4.912199872343757,-2.7365065385894707,-1.5333927520037853,-33.86950419581051,26.669999999983702
312783.0147,-9.727428145028693,-5.985685127631723,-6.975709442590135,-41.331337501660556,26.67099999997299
312783.0157,-13.950442736710855,-8.813698464014978,-12.008424743814588,-48.01579297380928,26.67199999996228
312783.0167,-17.440276245278888,-11.176502091811571,-16.480142049428757,-53.85703280487652,26.67299999995157
312783.0177,-20.090991187351555,-13.052868047587522,-20.263690330854914,-58.81607894587909,26.67399999999907
312783.0187,-21.838236000123217,-14.446668906022929,-23.263375718728017,-62.8815772955952,26.67499999998836
312783.0197,-22.663169036875445,-15.38737010262756,-25.420202772498648,-66.06863658247636,26.67599999997765
312783.0207,-22.593311224902116,-15.928472383135992,-26.714558603185477,-68.41561317302073,26.676999999966938
312783.0217,-21.700142751166208,-16.1438399671048,-27.166073785333264,-69.9789283443522,26.677999999956228
312783.0227,-20.09353958695266,-16.122062517474447,-26.830626811180398,-70.8262282348185,26.678999999945518
312783.0237,-17.913425482133224,-15.959208646611938,-25.794719226715536,-71.02840401720873,26.679999999993015
312783.0247,-15.319267544438365,-15.750513611072943,-24.167691182441835,-70.6511569847256,26.680999999982305
312783.0257,-12.478244254524217,-15.581684213455063,-22.072448196195612,-69.74689985401872,26.681999999971595
312783.0267,-9.553044035312249,-15.520583954380003,-19.635509696520145,-68.3478170916465,26.682999999960884
312783.0277,-6.690297215964752,-15.610071070122471,-16.97725453832018,-66.46085632109502,26.683999999950174
312783.0287,-4.010599262620693,-15.862697937077236,-14.203221564092837,-64.06529106744014,26.68499999999767
312783.0297,-1.6009517978165675,-16.25784629610397,-11.397225725037854,-61.11329181258139,26.68599999998696
312783.0307,0.4897583442776434,-16.7416796101146,-8.616881333740066,-57.533684657700704,26.68699999997625
312783.0317,2.2518844635571575,-17.23005829167759,-5.8918996136381265,-53.23878782744475,26.68799999996554
312783.0327,3.7126874643033925,-17.61430655331904,-3.2252690667399033,-48.13392251543279,26.68899999995483
312783.0337,4.930784234957442,-17.76946464199848,-0.5971587688537077,-42.1289240071082,26.69000000000233
312783.0347,5.987895249825966,-17.564430775897673,2.028868138546602,-35.150757909789014,26.690999999991618
312783.0357,6.978642484564085,-16.87321468074229,4.697956991466683,-27.156196856356775,26.691999999980908
312783.0367,7.999313997526312,-15.58640657898947,7.455160660502892,-18.143451155255633,26.692999999970198
312783.0377,9.1365948497317,-13.621923403021107,10.336596427097028,-8.16168063118743,26.693999999959487
312783.0387,10.457258630871246,-10.934132593401188,13.361422290036296,2.6825562401622394,26.694999999948777
312783.0397,11.999721120612303,-7.520570486582911,16.52541469167895,14.222645141095766,26.695999999996275
312783.0407,13.768186880158268,-3.425657281348906,19.796778256530796,26.23349666056468,26.696999999985565
312783.0417,15.729887135257416,1.258952003544087,23.114609805540496,38.43748277625087,26.697999999974854
312783.0427,17.815634810466086,6.3974719237863225,26.39019367058718,50.51450159658813,26.698999999964144
312783.0437,19.923634875895324,11.816360057768293,29.51104639669987,62.11561018675559,26.699999999953434
312783.0447,21.92621102562038,17.313511251447302,32.34738042164355,72.87937382475687,26.70100000000093
312783.0457,23.678867377240092,22.669600674161025,34.76044102088786,82.44985486288179,26.70199999999022
312783.0467,25.030916942293818,27.66073719712274,36.61200795653537,90.49502475111265,26.70299999997951
312783.0477,25.83679218421867,32.07149309920643,37.77425688581554,96.72434041955619,26.7039999999688
312783.0487,25.96711547662731,35.70735895599555,38.139153234523945,100.9042842982386,26.70499999995809
312783.0497,25.318649836993476,38.405734143114685,37.62660346635751,102.8708202337462,26.70599999994738
312783.0507,23.822366877127315,40.04469709529049,36.19070909371627,102.53795177604468,26.706999999994878
312783.0517,21.449046957165027,40.548992438041914,33.82364480151588,99.90186427867518,26.707999999984168
312783.0527,18.212048371785187,39.89290643267175,30.556896227746805,95.04046259838637,26.708999999973457
312783.0537,14.16712694008937,38.09995657098404,26.459824647495388,88.10845391379677,26.709999999962747
312783.0547,9.409432120809912,35.23957297049314,21.635753276747813,79.32844222309136,26.710999999952037
312783.0557,4.068028941638846,31.421176517811023,16.21597231001978,68.9787717065285,26.711999999999534
312783.0567,-1.7015224825834787,26.78624227871638,10.352219169873475,57.37905920324739,26.712999999988824
312783.0577,-7.725870971515008,21.499061791863955,4.208293336588368,44.87447674714449,26.713999999978114
312783.0587,-13.823140329916672,15.736975499968974,-2.048496189329815,31.819876138536994,26.714999999967404
312783.0597,-19.812040468363104,9.680834245797879,-8.255379664669494,18.564789590610243,26.715999999956694
312783.0607,-25.52017470383006,3.5063705538526317,-14.261088106204395,5.44020201517458,26.716999999945983
312783.0617,-30.791016387693496,-2.622973538699293,-19.931281665253707,-7.252213268434538,26.71799999999348
312783.0627,-35.48918968524018,-8.5613899895851,-25.152171539378,-19.247952212990615,26.71899999998277
312783.0637,-39.50387306110961,-14.184044423972601,-29.832251300983696,-30.324457562867984,26.71999999997206
312783.0647,-42.750330781431934,-19.388436144706535,-33.90224015576217,-40.302908536632216,26.72099999996135
312783.0657,-45.16974897038667,-24.09398503542547,-37.313506236014,-49.0473535332893,26.72199999995064
312783.0667,-46.72769220136101,-28.240200357283374,-40.035366765044515,-56.461707727999745,26.722999999998137
312783.0677,-47.41159186587358,-31.78388798148707,-42.051742147125516,-62.48526583801564,26.723999999987427
312783.0687,-47.22772125017777,-34.695899447228705,-43.35766634176027,-67.08743750192357,26.724999999976717
312783.0697,-46.19810256790049,-36.957916399193365,-43.956125651622465,-70.26239699174324,26.725999999966007
312783.0707,-44.357731982033144,-38.5597012803938,-43.85561738635189,-72.02425572266677,26.726999999955297
312783.0717,-41.75240881071058,-39.49713874410915,-43.06869892536142,-72.40322687962022,26.727999999944586
312783.0727,-38.43732757744862,-39.771255410088465,-41.61165058441263,-71.44307308401595,26.728999999992084
312783.0737,-34.47645184871987,-39.38825436551168,-39.50521889986844,-69.1999302833885,26.729999999981374
312783.0747,-29.94255332945865,-38.3604522768769,-36.776257685070384,-65.7424051206741,26.730999999970663
312783.0757,-24.917684091155376,-36.70787748914947,-33.45995863853147,-61.15266925466311,26.731999999959953
312783.0767,-19.493767317064776,-34.460191028899715,-29.602274888206836,-55.52813998486083,26.732999999949243
312783.0777,-13.77295205457323,-31.658539235958038,-25.262099154351038,-48.98325514702134,26.73399999999674
312783.0787,-7.867384962613741,-28.35694232177394,-20.51276781921665,-41.65082898443417,26.73499999998603
312783.0797,-1.8981065493806284,-24.622867737272305,-15.442522375608862,-33.682515642440634,26.73599999997532
312783.0807,4.007124626750782,-20.536725824024128,-10.153664484906724,-25.248002812439843,26.73699999996461
312783.0817,9.717149035975265,-16.190148085999674,-4.760279507119526,-16.53269884722616,26.7379999999539
312783.0827,15.101788977829287,-11.683052082037982,0.6154384950915903,-7.733846769822246,26.739000000001397
312783.0837,20.037075266311934,-7.119645562111352,5.848066254239137,0.944820581502177,26.739999999990687
312783.0847,24.41096484539367,-2.603659477538886,10.814694595304706,9.299598119844175,26.740999999979977
312783.0857,28.129095930964493,1.76679069421404,15.401078570807607,17.134068273301857,26.741999999969266
312783.0867,31.120070173279995,5.904246180073025,19.5076648720538,24.26657130676982,26.742999999958556
312783.0877,33.33974600583446,9.736358851563486,23.05494698649276,30.537307771605253,26.743999999947846
312783.0887,34.774076935957716,13.209300056014259,25.98763491088871,35.814507518764096,26.744999999995343
312783.0897,35.440130409322684,16.289749483922492,28.27721676435007,39.999171224023634,26.745999999984633
312783.0907,35.38506875577246,18.965215833681427,29.922626573960613,43.02801329815645,26.746999999973923
312783.0917,34.683050371774634,21.242599218952325,30.948903046614056,44.87439669985455,26.747999999963213
312783.0927,33.43019981664312,23.145079327545258,31.40391176632434,45.54723373634679,26.748999999952503
312783.0937,31.737980998101584,24.707585575793306,31.353389335400017,45.088013292521396,26.75
312783.0947,29.725469113471195,25.971257989823073,30.87473364970664,43.56628461210004,26.75099999998929
312783.0957,27.51113737598133,26.977423998399054,30.050092589068022,41.074063002998116,26.75199999997858
312783.0967,25.204840329099532,27.761683780073366,28.959380192968894,37.719709439171666,26.75299999996787
312783.0977,22.9006783834438,28.348707006074196,27.673866052628007,33.62186479706293,26.75399999995716
312783.0987,20.67136582405616,28.74829410609767,26.250937224203845,28.903987213669673,26.75499999994645
312783.0997,18.564601102533555,28.953148875895593,24.730525767297657,23.689950979474517,26.755999999993946
312783.1007,16.60176410284374,28.938655403336966,23.13353840829921,18.101026783099694,26.756999999983236
312783.1017,14.779055892974014,28.66476490355106,21.46243242014103,12.2543905113357,26.757999999972526
312783.1027,13.070971725842272,28.079894724084845,19.70387205672942,6.263119434777648,26.758999999961816
312783.1037,11.4357791764693,27.12654201317978,17.833193301970027,0.23745060941566457,26.759999999951106
312783.1047,9.822481594296747,25.748137826146813,15.820221828357539,-5.713083395806277,26.760999999998603
312783.1057,8.178601516538908,23.896531301746574,13.635848379909623,-11.47714420910435,26.761999999987893
312783.1067,6.458034105027181,21.53941177209205,11.258681797159245,-16.939268248594612,26.762999999977183
312783.1077,4.628206041959957,18.66695795621538,8.681081594819824,-21.978303446890067,26.763999999966472
312783.1087,2.6758329297433026,15.297050414537937,5.9139219386940445,-26.467103093779233,26.764999999955762
312783.1097,0.6106933638847288,11.478492631538268,2.989552848285472,-30.273854895610782,26.765999999945052
312783.1107,-1.5329808066479764,7.29184796576861,-0.03740807858132043,-33.26525335250811,26.76699999999255
312783.1117,-3.697677717720237,2.8476998123478316,-3.0916150250421484,-35.311522849663625,26.76799999998184
312783.1127,-5.8062822683363855,-1.7176373455299125,-6.0808028693083225,-36.29308707188987,26.76899999997113
312783.1137,-7.767960439648232,-6.248707610727415,-8.901584330939382,-36.10847836949002,26.76999999996042
312783.1147,-9.485744847710393,-10.579354425018849,-11.44675864154403,-34.68290863245993,26.77099999994971
312783.1157,-10.865150349414987,-14.542398914924934,-13.613502766332568,-31.97679845943977,26.771999999997206
312783.1167,-11.823044502011477,-17.979830431432948,-15.311721618693117,-27.99349698422294,26.772999999986496
312783.1177,-12.295964224983845,-20.75273364406542,-16.47180585114096,-22.785428161466754,26.773999999975786
312783.1187,-12.247110257745044,-22.750192138738004,-17.05108737195367,-16.457971948587755,26.774999999965075
312783.1197,-11.67136124049002,-23.896488130677383,-17.038389870203925,-9.170525731635438,26.775999999954365
312783.1207,-10.597819312856986,-24.156054184697158,-16.456234331753702,-1.1343818431446004,26.777000000001863
312783.1217,-9.089613406505334,-23.535813318328763,-15.360462642845334,7.392714348019431,26.777999999991152
312783.1227,-7.240925307435986,-22.084752353153572,-13.837267074871285,16.115213362691126,26.778999999980442
312783.1237,-5.171445355625987,-19.890791427408256,-11.997839020524703,24.711258443853676,26.779999999969732
312783.1247,-3.018687505838754,-17.075221205118698,-9.971056198626675,32.846446167931425,26.780999999959022
312783.1257,-0.9287774834313266,-13.785160739108196,-7.894795080607562,40.18908196492347,26.78199999994831
312783.1267,0.9535432466876977,-10.184628199822022,-5.906569676099043,46.42603239071378,26.78299999999581
312783.1277,2.494892025883194,-6.444902910565605,-4.134249285665116,51.27821268011267,26.7839999999851
312783.1287,3.582400355432425,-2.7348844727049357,-2.6875925348014738,54.514755790952584,26.78499999997439
312783.1297,4.131329644573031,0.7878772319560934,-1.651255273435586,55.96498701272557,26.78599999996368
312783.1307,4.090565728674224,3.98489385418847,-1.0797939533087093,55.52746975057284,26.786999999952968
312783.1317,3.445597544818902,6.742736273809731,-0.9950070895376377,53.17558172826714,26.788000000000466
312783.1327,2.2188031569725646,8.977025193815741,-1.3857522929629844,48.9593109663935,26.788999999989755
312783.1337,0.46709497841425934,10.634300414640567,-2.210164138176735,43.00320918866731,26.789999999979045
312783.1347,-1.722805063032715,11.691832499072076,-3.3999981221070645,35.50068737918903,26.790999999968335
312783.1357,-4.240999920399016,12.155601614756176,-4.866655997233903,26.705065167582756,26.791999999957625
312783.1367,-6.9623567021537225,12.056798680392637,-6.508322550552484,16.91797576126005,26.792999999946915
312783.1377,-9.755059514753599,11.447293033314319,-8.21757374451449,6.475867939747347,26.793999999994412
312783.1387,-12.489062004183983,10.394552455013008,-9.88880604050246,-4.264572647456269,26.794999999983702
312783.1397,-15.043767754501399,8.976494086503898,-11.424886013323874,-14.94124264577868,26.79599999997299
312783.1407,-17.314367844095173,7.276691886625063,-12.742521836768669,-25.20088345167103,26.79699999996228
312783.1417,-19.216414242139,5.38027554650948,-13.776002812613442,-34.7120871632509,26.79799999995157
312783.1427,-20.688390137409872,3.370738394372549,-14.4791250072401,-43.17648683949849,26.79899999999907
312783.1437,-21.69223565784975,1.3277413486677823,-14.825303113423866,-50.33774141859983,26.79999999998836
312783.1447,-22.211980568287043,-0.6741291367963111,-14.806043060568015,-55.988107943729844,26.80099999997765
312783.1457,-22.25080594953808,-2.565805050528049,-14.428099870727978,-59.97257231038439,26.801999999966938
312783.1467,-21.82698857439544,-4.283625321002891,-13.709756634771116,-62.1906692980036,26.802999999956228
312783.1477,-20.969262729634124,-5.768962194207857,-12.676723060556878,-62.59625050566591,26.803999999945518
312783.1487,-19.712157771977974,-6.967888999253731,-11.35816055493464,-61.19554605281403,26.804999999993015
312783.1497,-18.091834738738054,-7.831162155911129,-9.783295414946828,-58.043908123072946,26.805999999982305
312783.1507,-16.142856734558197,-8.314723134510448,-7.978988017711317,-53.24162204545381,26.806999999971595
312783.1517,-13.89619584297799,-8.38083079155643,-5.968494394689229,-46.92912870599279,26.807999999960884
312783.1527,-11.378618567542768,-7.999822560959295,-3.771501594228049,-39.28192976011766,26.808999999950174
312783.1537,-8.613419751302688,-7.152387786252707,-1.4053565496690086,-30.50535641502959,26.80999999999767
312783.1547,-5.622310082844764,-5.832131920268702,1.1127427072333065,-20.829287083671765,26.81099999998696
312783.1557,-2.4281223518732555,-4.048129259709907,3.7629482607898663,-10.502812605942756,26.81199999997625
312783.1567,0.9420984412795314,-1.8271147494877864,6.5197934023313,0.21121792333002395,26.81299999996554
312783.1577,4.454105463951429,0.7850409998548217,9.349523360970041,11.04187322942393,26.81399999995483
312783.1587,8.064038767382481,3.7228925883421176,12.208173266222097,21.71614062481113,26.81500000000233
312783.1597,11.717008406147414,6.902258160359383,15.040765953447949,31.96531870762628,26.815999999991618
312783.1607,15.346977499214928,10.222465347360414,17.781881804508618,41.531801981668416,26.816999999980908
312783.1617,18.87810327265673,13.570000514216243,20.357699315989574,50.176166807070054,26.817999999970198
312783.1627,22.22752540955248,16.82341313798274,22.689434598629582,57.68436585256905,26.818999999959487
312783.1637,25.309419199402925,19.85918891640762,24.697938715265035,63.874738004070814,26.819999999948777
312783.1647,28.039974590909935,22.558187505056928,26.3090620543047,68.60445664395151,26.820999999996275
312783.1657,30.342838423989697,24.812156820771296,27.45928150954561,71.77498438582928,26.821999999985565
312783.1667,32.1544797549396,26.529795747403373,28.101022350178532,73.33608714759163,26.822999999974854
312783.1677,33.42891654810998,27.64184678702737,28.207100716885414,73.28799141963272,26.823999999964144
312783.1687,34.141279712907156,28.104760807052195,27.773767278216106,71.68134753590738,26.824999999953434
312783.1697,34.28978508507871,27.902583561226038,26.821944174141134,68.61478532420514,26.82600000000093
312783.1707,33.89582717280189,27.046859347314555,25.396406495944962,64.23000829400955,26.82699999999022
312783.1717,33.0020868783113,25.57451822382766,23.562851666488836,58.704555704135856,26.82799999997951
312783.1727,31.668741692919994,23.5438940111954,21.403006942478132,52.242552340305,26.8289999999688
312783.1737,29.968061613135685,21.029193833984394,19.008126645488314,45.063945739312736,26.82999999995809
312783.1747,27.977847549900016,18.113889439083483,16.471406426192452,37.39288198149482,26.83099999994738
312783.1757,25.77430331139495,14.883611019136076,13.879973653159672,29.4459778395374,26.831999999994878
312783.1767,23.425012843105257,11.419184159350431,11.307186484559294,21.42129624607923,26.832999999984168
312783.1777,20.982711796793705,7.790452664718764,8.805980209798745,13.488815771925099,26.833999999973457
312783.1787,18.480493150553517,4.051472513108127,6.403935198832776,5.783100927277661,26.834999999962747
312783.1797,15.928973421160862,0.23754865492048405,4.100610109449199,-1.6012673249946265,26.835999999952037
312783.1807,13.31577815697769,-3.635574194577817,1.867497166235984,-8.611142274896425,26.836999999999534
312783.1817,10.607497507733212,-7.570249666502667,-0.3492707721020622,-15.233023540294441,26.837999999988824
312783.1827,7.754033525596489,-11.583290109181029,-2.6235789079472203,-21.488167705574135,26.838999999978114
312783.1837,4.695031668591649,-15.700450433330149,-5.04171748488543,-27.424988129694537,26.839999999967404
312783.1847,1.3678813885342083,-19.94952263878802,-7.693079491016511,-33.10936195241052,26.840999999956694
312783.1857,-2.283395302960598,-24.352674631562152,-10.659925477138021,-38.613643078514215,26.841999999945983
312783.1867,-6.299156333258111,-28.91875925450177,-14.007082819865792,-44.00529695683889,26.84299999999348
312783.1877,-10.695880763691115,-33.636347839363296,-17.772483146642518,-49.336114562631636,26.84399999998277
312783.1887,-15.459430539641886,-38.468202872513025,-21.959398612426,-54.632923925742276,26.84499999997206
312783.1897,-20.540516331424957,-43.347798563581534,-26.53111762670201,-59.89059974913853,26.84599999996135
312783.1907,-25.852878666621844,-48.178334351268006,-31.408612901364247,-65.0679841678896,26.84699999995064
312783.1917,-31.274473751037007,-52.83447829684823,-36.471515029112076,-70.08708996374173,26.847999999998137
312783.1927,-36.651701365600545,-57.16684285677103,-41.562433799452336,-74.83568215598908,26.848999999987427
312783.1937,-41.806452259721446,-61.00895538915097,-46.494390742412705,-79.17304874846232,26.849999999976717
312783.1947,-46.54550775539094,-64.18626151030938,-51.06086448314264,-82.93850163209169,26.850999999966007
312783.1957,-50.67161689352667,-66.52651154819713,-55.047728586516,-85.96191823263477,26.851999999955297
312783.1967,-53.99542526957813,-67.87074629640342,-58.246199416981064,-88.07546413254444,26.852999999944586
312783.1977,-56.34734864994068,-68.08403083734423,-60.46582363069659,-89.12554196563437,26.853999999992084
312783.1987,-57.58848120305057,-67.0650912315412,-61.546529162308715,-88.98400095991146,26.854999999981374
312783.1997,-57.61970337088527,-64.75408857142628,-61.36884054279946,-87.55771546794902,26.855999999970663
312783.2007,-56.38830156361758,-61.137911725972494,-59.86151224409983,-84.79579268271473,26.856999999959953
312783.2017,-53.891617897340765,-56.25257127190012,-57.00604881246933,-80.69388519884086,26.857999999949243
312783.2027,-50.177494577299214,-50.18251470870471,-52.837838522819915,-75.29534284554187,26.85899999999674
312783.2037,-45.34154194534736,-43.056935670807796,-47.443904967869756,-68.68921587659139,26.85999999998603
312783.2047,-39.52151762499073,-35.04339453576071,-40.9575534233009,-61.00539196261391,26.86099999997532
312783.2057,-32.88933310217549,-26.339282274540206,-33.55043157317835,-52.407387059750604,26.86199999996461
312783.2067,-25.641382734831378,-17.161824070056227,-25.422715638090068,-43.08349295715565,26.8629999999539
312783.2077,-17.988002629142876,-7.737419301990796,-16.79225640688993,-33.2370954326009,26.864000000001397
312783.2087,-10.142903453401965,1.7088587195105083,-7.883564915958938,-23.077006915635426,26.864999999990687
312783.2097,-2.313379807864723,10.96282803094719,1.082518169971745,-12.808604929634127,26.865999999979977
312783.2107,5.308015461739935,19.82917054895294,9.897736994215675,-2.6264391762132253,26.866999999969266
312783.2117,12.54981825060075,28.13732867615594,18.37336142012596,7.291219680327973,26.867999999958556
312783.2127,19.26572453576657,35.74505673622811,26.344817432215713,16.78564720231431,26.868999999947846
312783.2137,25.33632588171208,42.53958991094308,33.673913065041475,25.718753207532608,26.869999999995343
312783.2147,30.668681611291383,48.436620309142455,40.24880711715837,33.97223320606061,26.870999999984633
312783.2157,35.19410541284914,53.377469613316,45.982083367199195,41.44522925421302,26.871999999973923
312783.2167,38.864701664382466,57.325001199296615,50.80746167729999,48.051094363845706,26.872999999963213
312783.2177,41.64928124345896,60.2589073406089,54.67578322759881,53.713932266715304,26.873999999952503
312783.2187,43.5293094171273,62.17103098392359,57.550940753123704,58.365583834651126,26.875
312783.2197,44.49548842276262,63.06133553644307,59.406384136072646,61.94365336959963,26.87599999998929
312783.2207,44.54546100747057,62.93502614329134,60.22272277571061,64.39102108376551,26.87699999997858
312783.2217,43.68295185016331,61.80116447587738,59.9867815537475,65.65708845846909,26.87799999996787
312783.2227,41.91846031131163,59.67292362842251,58.69226531388302,65.70077246852505,26.87899999995716
312783.2237,39.271402723812756,56.56942113160716,56.34196965017966,64.495027867076,26.87999999994645
312783.2247,35.77339899692698,52.51886826016867,52.95126688352303,62.03245950041734,26.880999999993946
312783.2257,31.472228874782257,47.562603518522856,48.552417737561505,58.33141259548027,26.881999999983236
312783.2267,26.435866335768036,41.75945496464868,43.19913032717125,53.44181727119296,26.882999999972526
312783.2277,20.75594931044678,35.18981240075762,36.97072221414042,47.450026838527776,26.883999999961816
312783.2287,14.550062181581822,27.95879273056529,29.97524534516206,40.48193271011798,26.884999999951106
312783.2297,7.9622989487118785,20.19794951567988,22.35100724271863,32.70375870967668,26.885999999998603
312783.2307,1.1617267263817146,12.065103929980504,14.266057310815476,24.320123278494684,26.886999999987893
312783.2317,-5.661432706338514,3.742046130605172,5.915390753095604,15.569192001432116,26.887999999977183
312783.2327,-12.30186112461808,-4.5699436049656725,-2.484164124468252,6.715002784397396,26.888999999966472
312783.2337,-18.54717132055633,-12.65659550426413,-10.701187803962783,-1.962692792445201,26.889999999955762
312783.2347,-24.187423986881058,-20.298816617032763,-18.498645037948066,-10.180490694999936,26.890999999945052
312783.2357,-29.02548497291341,-27.28199960472591,-25.64402387659378,-17.664525157423785,26.89199999999255
312783.2367,-32.88746177387403,-33.40582983833242,-31.91994420394678,-24.16388798077306,26.89299999998184
312783.2377,-35.63241461807395,-38.49388305208429,-37.13447985822986,-29.46332367466953,26.89399999997113
312783.2387,-37.16056740150661,-42.402305164557184,-41.130444161754916,-33.394277027093494,26.89499999996042
312783.2397,-37.41934470370228,-45.026927832849545,-43.79296111588398,-35.84347785892141,26.89599999994971
312783.2407,-36.40672413975813,-46.30829169231074,-45.05477638783114,-36.75842542325717,26.896999999997206
312783.2417,-34.171603453914805,-46.23421279561729,-44.898940827792096,-36.149366698793784,26.897999999986496
312783.2427,-30.811119767131796,-44.83972128817458,-43.3587077489372,-34.087628570951594,26.898999999975786
312783.2437,-26.465102487407172,-42.20440715293846,-40.514704229605904,-30.700440605821672,26.899999999965075
312783.2447,-21.308069393854275,-38.44740743044218,-36.48964627637291,-26.162649006387117,26.900999999954365
312783.2457,-15.539366803742109,-33.7204450714451,-31.441049089607244,-20.685950906927545,26.902000000001863
312783.2467,-9.372192594306647,-28.199466403940043,-25.5525211528253,-14.506452206884571,26.902999999991152
312783.2477,-3.022313372976201,-22.075510819279206,-19.02431308244163,-7.871457448894497,26.903999999980442
312783.2487,3.302711357572642,-15.545476235070911,-12.063813179860135,-1.0264288191285882,26.904999999969732
312783.2497,9.413053601500497,-8.803416031132807,-4.876641341277285,5.796997876124309,26.905999999959022
312783.2507,15.144276297358678,-2.032921679856317,2.341102909054966,12.391173521259764,26.90699999994831
312783.2517,20.362694455756337,4.598980730045918,9.40902316926117,18.580186286128715,26.90799999999581
312783.2527,24.968216716191886,10.946149446519827,16.16679522693194,24.22483939463948,26.9089999999851
312783.2537,28.894669660377616,16.885764324003958,22.47666120202511,29.22473705972201,26.90999999997439
312783.2547,32.10782154031169,22.318957852247667,28.22416518761696,33.51760244462018,26.91099999996368
312783.2557,34.601507457132556,27.16987083542502,33.31740170522422,37.07617133157456,26.911999999952968
312783.2567,36.392397952223284,31.38348764977215,37.685165834622616,39.90318282145371,26.913000000000466
312783.2577,37.514035598978225,34.92268773095257,41.274463508900524,42.02510916439415,26.913999999989755
312783.2587,38.01078340716382,37.764982808957676,44.04785665207093,43.485321807111795,26.914999999979045
312783.2597,37.93228482619758,39.89939181403173,45.98108059043291,44.33737751898618,26.915999999968335
312783.2607,37.32893418001826,41.32384075711357,47.06128601115561,44.6390312163145,26.916999999957625
312783.2617,36.24871027643297,42.04337133209459,47.286135116130026,44.44745109406529,26.917999999946915
312783.2627,34.73555073699026,42.06931140007987,46.66383580184967,43.8159420750505,26.918999999994412
312783.2637,32.82925890527831,41.419417405403316,45.21404530268674,42.79229389652251,26.919999999983702
312783.2647,30.566758312940888,40.1188587761307,42.96943297639019,41.418680285481614,26.92099999997299
312783.2657,27.98435964221012,38.20179265429027,39.977576776931635,39.73286493833868,26.92199999996228
312783.2667,25.120596867765695,35.713187050096145,36.30279252628859,37.77033521927184,26.92299999995157
312783.2677,22.019133179107353,32.71050152790989,32.02746813671629,35.56689829786174,26.92399999999907
312783.2687,18.731238222050923,29.26483224670036,27.252499989492588,33.16124423707161,26.92499999998836
312783.2697,15.317395045860687,25.461173093173887,22.09650367876924,30.597007781554503,26.92599999997765
312783.2707,11.847701042255572,21.39753225980393,16.693588822792766,27.923940816078602,26.926999999966938
312783.2717,8.40087028596619,17.1827648809743,11.189635559514482,25.19793082769476,26.927999999956228
312783.2727,5.061809503511417,12.933124565455174,5.737173250398748,22.479753083187287,26.928999999945518
312783.2737,1.9179087938781934,8.767684832537523,0.48912262192290273,19.832608681464375,26.929999999993015
312783.2747,-0.9456566905457371,4.802919754120516,-4.408196105763407,17.31865913950457,26.930999999982305
312783.2757,-3.4511929824631915,1.1468465365462766,-8.82228002479115,14.99490345817964,26.931999999971595
312783.2767,-5.5338187861301495,-2.106791266214922,-12.641316499768335,12.90884093822024,26.932999999960884
312783.2777,-7.146330055042073,-4.883791648497605,-15.780138039227783,11.094411635670532,26.933999999950174
312783.2787,-8.263091450046034,-7.133725997373678,-18.18473561395061,9.568700631926845,26.93499999999767
312783.2797,-8.882527548919825,-8.832718649499515,-19.834910322311526,8.32983231677992,26.93599999998696
312783.2807,-9.027911182948408,-9.984472751189909,-20.7447902628141,7.356372421691804,26.93699999997625
312783.2817,-8.746303853527463,-10.619389284660661,-20.96111656255668,6.608409501818881,26.93799999996554
312783.2827,-8.105678089085538,-10.791793856176199,-20.55939309428227,6.030318875578577,26.93899999995483
312783.2837,-7.190426284671261,-10.575456889597708,-19.638180326441795,5.5550381050588005,26.94000000000233
312783.2847,-6.095617421575182,-10.057750517364987,-18.311977079667084,5.10952204681725,26.940999999991618
312783.2857,-4.920486216001251,-9.33291409023243,-16.703258826537844,4.620914244562128,26.941999999980908
312783.2867,-3.761716145200012,-8.494986879033144,-14.934315289141892,4.022883954302224,26.942999999970198
312783.2877,-2.707100494886118,-7.631002235525632,-13.119546002984237,3.2615439717726895,26.943999999959487
312783.2887,-1.8301315168810832,-6.815018139693025,-11.358828337271873,2.3003878571219047,26.944999999948777
312783.2897,-1.1859801047749596,-6.103485962330916,-9.732472069433436,1.1237644754326432,26.945999999996275
312783.2907,-0.8091955776208053,-5.532338950852173,-8.29812728861047,-0.26146431770111456,26.946999999985565
312783.2917,-0.7132902200956004,-5.116025586596076,-7.089831946368713,-1.826272740823656,26.947999999974854
312783.2927,-0.8921924039682119,-4.848535312606721,-6.119188771444444,-3.52183203776295,26.948999999964144
312783.2937,-1.3233732646579985,-4.706282064564666,-5.378467068453254,-5.2837011342578855,26.949999999953434
312783.2947,-1.9722927176118172,-4.652541892403203,-4.845251459734351,-7.037493104081284,26.95100000000093
312783.2957,-2.7976868321445574,-4.643000830131512,-4.488123259196998,-8.705524016553989,26.95199999999022
312783.2967,-3.75714248840929,-4.631871317263402,-4.272773690780694,-10.213856750685618,26.95299999997951
312783.2977,-4.812384338563462,-4.5779890160845795,-4.1679195968851275,-11.499112768318929,26.9539999999688
312783.2987,-5.933735381086456,-4.450310888233421,-4.150424067432342,-12.514443146554093,26.95499999995809
312783.2997,-7.103302217221372,-4.232298552690386,-4.209113181626456,-13.234124264175303,26.95599999994738
312783.3007,-8.316570202159104,-3.924781645311574,-4.3469169109241435,-13.656365970477527,26.956999999994878
312783.3017,-9.582258677908204,-3.547042971243473,-4.581133653964536,-13.804078874387285,26.957999999984168
312783.3027,-10.92046562722444,-3.136036109573872,-4.941807005886694,-13.723527350204414,26.958999999973457
312783.3037,-12.359306357420717,-2.743820304646603,-5.468391683593986,-13.480979024539916,26.959999999962747
312783.3047,-13.930404584674053,-2.4334602359953807,-6.20505468639878,-13.157632920167327,26.960999999952037
312783.3057,-15.663711161031896,-2.2737743210028833,-7.195091422659769,-12.84325173367455,26.961999999999534
312783.3067,-17.58219410097543,-2.333412245778543,-8.475021965487167,-12.629026608626276,26.962999999988824
312783.3077,-19.69695694326981,-2.674792239110053,-10.068961992460615,-12.600257058334357,26.963999999978114
312783.3087,-22.003299880395456,-3.348427843755898,-11.983834132348836,-12.829430985249056,26.964999999967404
312783.3097,-24.478144238586683,-4.388124285662334,-14.205902003117366,-13.370241548928341,26.965999999956694
312783.3107,-27.079105673950007,-5.8074324044287895,-16.69898015998031,-14.252985051361378,26.966999999945983
312783.3117,-29.745338815515716,-7.597623826206823,-19.404511840964695,-15.48165697351051,26.96799999999348
312783.3127,-32.40010258949852,-9.72730773726143,-22.243529130502424,-17.03291450550337,26.96899999998277
312783.3137,-34.95482854944595,-12.143661723186906,-25.120334572195304,-18.856917534563067,26.96999999997206
312783.3147,-37.31433078754403,-14.775111029985101,-27.92758646619924,-20.87991037054561,26.97099999996135
312783.3157,-39.38268946015218,-17.53517510271392,-30.55234700959573,-23.008276573852832,26.97199999995064
312783.3167,-41.06928077413172,-20.327117445015134,-32.882574370144795,-25.13369981236942,26.972999999998137
312783.3177,-42.29441973217728,-23.048991151834482,-34.81351332268385,-27.139002141835004,26.973999999987427
312783.3187,-42.9941279657548,-25.598670169012433,-36.25346555073745,-28.904211037665622,26.974999999976717
312783.3197,-43.12363224975506,-27.87849344622136,-37.12849613565899,-30.312427378236926,26.975999999966007
312783.3207,-42.65932975029134,-29.799219778512082,-37.385748306852015,-31.255123949874516,26.976999999955297
312783.3217,-41.59911001817619,-31.283086191443562,-36.99518153990548,-31.636590114118977,26.977999999944586
312783.3227,-39.96108529323026,-32.26587097538621,-35.94970339734429,-31.37734277411,26.978999999992084
312783.3237,-37.78093333321432,-32.69797175560376,-34.26381704107018,-30.416435066891058,26.979999999981374
312783.3247,-35.10818533796606,-32.54460751805915,-31.9710388064035,-28.71270053426168,26.980999999970663
312783.3257,-32.00188288750211,-31.78533113415309,-29.1204406454041,-26.245061215540264,26.981999999959953
312783.3267,-28.526073380106524,-30.413088128341478,-25.772731275973005,-23.01209463930401,26.982999999949243
312783.3277,-24.745609268385476,-28.43307407765427,-21.996302684145146,-19.031091498969786,26.98399999999674
312783.3287,-20.722663622270872,-25.861626720827367,-17.863635316951047,-14.336840735462548,26.98499999998603
312783.3297,-16.514279341433607,-22.725342866273724,-13.448380789027146,-8.980353207900418,26.98599999997532
312783.3307,-12.17114212664991,-19.06054103916945,-8.823334346666329,-3.0276837786113244,26.98699999996461
312783.3317,-7.737621716458379,-14.91310747833832,-4.059383033432052,3.4410581509398575,26.9879999999539
312783.3327,-3.2529773002291025,-10.338676012509437,0.7746162868064564,10.332498576918352,26.989000000001397
312783.3337,1.246512944194639,-5.4030122522741495,5.611197537724301,17.54065619083358,26.989999999990687
312783.3347,5.7248472755419435,-0.182409334585069,10.38315312299026,24.947600886166278,26.990999999979977
312783.3357,10.143440413383491,5.236135812683688,15.022243377571783,32.4242944605147,26.991999999969266
312783.3367,14.458552174883664,10.755204725832753,19.45810744615223,39.8318151227162,26.992999999958556
312783.3377,18.61942389418063,16.267912902155423,23.61771589026973,47.02315768885086,26.993999999947846
312783.3387,22.56746965711851,21.6596980741827,27.425643155817465,53.84576079082493,26.994999999995343
312783.3397,26.2367567194904,26.811019630985783,30.805339200050096,60.14484405821884,26.995999999984633
312783.3407,29.555867301155942,31.600948311620613,33.681454249984625,65.76754844040236,26.996999999973923
312783.3417,32.45107651215819,35.91151815786931,35.9831320726032,70.56777078711451,26.997999999963213
312783.3427,34.850624601293035,39.63260916916768,37.64805028210845,74.41148061218948,26.998999999952503
312783.3437,36.689722456510594,42.66704078887777,38.626866354792234,77.1822145415648,27.0
312783.3447,37.915822416043156,44.93549384039969,38.887639118768966,78.78637372956526,27.00099999998929
312783.3457,38.4936241476987,46.380850179728625,38.41974868310363,79.15791118055499,27.00199999997858
312783.3467,38.409275587876465,46.97155031122351,37.2368401733793,78.26199617318716,27.00299999996787
312783.3477,37.67327454913266,46.70362084855303,35.37837044870849,76.09728478838643,27.00399999995716
312783.3487,36.32167492755166,45.601113177950225,32.909439108257644,72.69650754576944,27.00499999994645
312783.3497,34.41534441092778,43.71481517822212,29.918727352214574,68.12520170815928,27.005999999993946
312783.3507,32.037195460904336,41.119239107365324,26.514538012134267,62.47855741368728,27.006999999983236
312783.3517,29.287501862044195,37.908037999069634,22.81911141253256,55.87650094818571,27.007999999972526
312783.3527,26.277601082412954,34.188146043185625,18.961567032549404,48.4572909105871,27.008999999961816
312783.3537,23.122449663446968,30.073061450755702,15.069972560484839,40.37003912768391,27.009999999951106
312783.3547,19.932628055655368,25.67578070704518,11.263153994349583,31.766674437777823,27.010999999998603
312783.3557,16.806469227418084,21.101941139548817,7.642920440594681,22.793932876342424,27.011999999987893
312783.3567,13.82300312559235,16.44372840678707,4.287377392119666,13.585974977921518,27.012999999977183
312783.3577,11.036363346395163,11.775055336725641,1.2459402624965852,4.258196870404084,27.013999999966472
312783.3587,8.472195812141377,7.148421686515119,-1.4634605803984235,-5.097281676671503,27.014999999955762
312783.3597,6.126450228338841,2.5937284969094807,-3.8546618778640007,-14.414095737585795,27.015999999945052
312783.3607,3.966737023151315,-1.880842779969116,-5.9709203261255075,-23.651883154034202,27.01699999999255
312783.3617,1.9362125712200968,-6.285953067318566,-7.88004258374472,-32.79428353697801,27.01799999998184
312783.3627,-0.04026674200000581,-10.646471581309898,-9.667319475788398,-41.844852733413326,27.01899999997113
312783.3637,-2.0481856772025107,-14.99548253244118,-11.426790177388835,-50.82122810509834,27.01999999996042
312783.3647,-4.174238916921389,-19.367454257830218,-13.251520707586598,-59.748024255548934,27.02099999994971
312783.3657,-6.496776271560654,-23.79117237065694,-15.223684376028379,-68.64904379923868,27.021999999997206
312783.3667,-9.076626430645824,-28.28306660842425,-17.40526951838214,-77.5394440797974,27.022999999986496
312783.3677,-11.949085875328967,-32.841534104978805,-19.830207210811327,-86.41850329535866,27.023999999975786
312783.3687,-15.117775644250905,-37.44278152028441,-22.49861012842609,-95.26357786594114,27.024999999965075
312783.3697,-18.550922777673843,-42.03858138684989,-25.373650920798806,-104.0257414860214,27.025999999954365
312783.3707,-22.180427532223057,-46.556175020453495,-28.381397609983644,-112.62745406729576,27.027000000001863
312783.3717,-25.903848516499142,-50.90036960912897,-31.413682249531163,-120.9624384095562,27.027999999991152
312783.3727,-29.589195535910473,-54.95768696751006,-34.33382806275125,-128.89775935698162,27.028999999980442
312783.3737,-33.08218533162213,-58.602242911017676,-36.98482131038728,-136.27792112310584,27.029999999969732
312783.3747,-36.21540923026627,-61.70288537939489,-39.19930824543755,-142.9306398578396,27.030999999959022
312783.3757,-38.81870229891718,-64.13101009252217,-40.81064304131782,-148.67382498682886,27.03199999994831
312783.3767,-40.72990519905831,-65.76841480824204,-41.66412351648018,-153.32322566663674,27.03299999999581
312783.3777,-41.805181468586184,-66.51455274588027,-41.62753614343386,-156.7001746709295,27.0339999999851
312783.3787,-41.92809712659512,-66.29260286086144,-40.60019205191217,-158.63889270178953,27.03499999997439
312783.3797,-41.01678245168782,-65.05388454800095,-38.519766597935,-158.9928975319318,27.03599999996368
312783.3807,-39.02866742486477,-62.78029722157682,-35.36644525387723,-157.64018530310088,27.036999999952968
312783.3817,-35.962497120002546,-59.484647137728864,-31.16411128426183,-154.48700207521847,27.038000000000466
312783.3827,-31.85757165885202,-55.20891791448003,-25.978565077314332,-149.47018556158335,27.038999999989755
312783.3837,-26.790395289768263,-50.02072915617984,-19.913018078969912,-142.55821170520392,27.039999999979045
312783.3847,-20.86913845211507,-44.008391350897874,-13.10133289390905,-133.75121068687258,27.040999999968335
312783.3857,-14.226494878676672,-37.27508872109465,-5.699664192983418,-123.08030695092285,27.041999999957625
312783.3867,-7.0116361453925835,-29.932792506237604,2.122724422994325,-110.6066770273572,27.042999999946915
312783.3877,0.6179826963414665,-22.096517689058665,10.192645776011279,-96.42070212181812,27.043999999994412
312783.3887,8.504235355668307,-13.879484685397816,18.341386341714216,-80.6415208767917,27.044999999983702
312783.3897,16.494717241460975,-5.389638371586405,26.411631522398974,-63.41716910716286,27.04599999997299
312783.3907,24.447437531685996,3.272179741386177,34.262406177309394,-44.925341201224676,27.04699999996228
312783.3917,32.233530267811325,12.012299129238011,41.77173634753085,-25.37464017701781,27.04799999995157
312783.3927,39.737931129630475,20.742622734000165,48.83698278406325,-5.0060204813657165,27.04899999999907
312783.3937,46.85819528463746,29.377654277986622,55.37304304306305,15.90600990066293,27.04999999998836
312783.3947,53.5018387324814,37.83060783102937,61.30884177617054,37.05295515549739,27.05099999997765
312783.3957,59.5827492604479,46.00917916796267,66.58270584785328,58.0932280172846,27.051999999966938
312783.3967,65.01731622158631,53.81162169858487,71.13733402803146,78.6549091984298,27.052999999956228
312783.3977,69.72095977583537,61.12376636214054,74.91510864032517,98.34080440887735,27.053999999945518
312783.3987,73.6056963422592,67.81755376533219,77.85445476065988,116.7360742628087,27.054999999993015
312783.3997,76.57926198442765,73.75151378742065,79.88783551803614,133.4185044547319,27.055999999982305
312783.4007,78.54614091104975,78.77344499667183,80.94179158184954,147.97124513491735,27.056999999971595
312783.4017,79.41063007317855,82.72533078238652,80.93920730850854,159.99760122241415,27.057999999960884
312783.4027,79.08183520731133,85.45030178918627,79.80373810190466,169.1372227708905,27.058999999950174
312783.4037,77.48026291056074,86.80123708103196,77.46608836727891,175.0828490148656,27.05999999999767
312783.4047,74.54547130498055,86.65041065941412,73.87161172097073,177.5966210439293,27.06099999998696
312783.4057,70.24408954524588,84.89945378378816,68.98853675796275,176.52491110469524,27.06199999997625
312783.4067,64.5774298470694,81.48883055669917,62.81601959474595,171.81063009600567,27.06299999996554
312783.4077,57.587904283114035,76.40602200169609,55.39119890712891,163.50207072022297,27.06399999995483
312783.4087,49.36352424716628,69.69168324225892,46.7944830277898,151.75751665395248,27.06500000000233
312783.4097,40.03989754680858,61.44317351965406,37.15242688280695,136.84508599360322,27.065999999991618
312783.4107,29.799333884148965,51.81504769983083,26.637747018893716,119.13756247879722,27.066999999980908
312783.4117,18.86690569151634,41.01632375566622,15.466257741517305,99.10227889092988,27.067999999970198
312783.4127,7.503565768938985,29.304583386974148,3.89076847066301,77.28642967985631,27.068999999959487
312783.4137,-4.003327810635749,16.97720109486383,-7.807761980726406,54.29848029046253,27.069999999948777
312783.4147,-15.35150851459298,4.360210051296714,-19.331287712698412,30.786586772538026,27.070999999996275
312783.4157,-26.236576877480815,-8.204516941345476,-30.377242788081983,7.415122755648775,27.071999999985565
312783.4167,-36.36520359227386,-20.372979884438212,-40.651777326356374,-15.159481313933634,27.072999999974854
312783.4177,-45.46787385034039,-31.812817632465933,-49.88277463905735,-36.312356488112535,27.073999999964144
312783.4187,-53.310326657345115,-42.216306662842314,-57.8317839583519,-55.47209841819746,27.074999999953434
312783.4197,-59.70295337530376,-51.31185384069762,-64.30409713211361,-72.13991627402241,27.07600000000093
312783.4207,-64.50758965235077,-58.8733805654428,-69.15635279892098,-85.9051865246773,27.07699999999022
312783.4217,-67.64134792924655,-64.72717198095756,-72.30125281300741,-96.45681602204128,27.07799999997951
312783.4227,-69.07737403405578,-68.7559646649886,-73.70920416375677,-103.59009162732556,27.0789999999688
312783.4237,-68.84264953670268,-70.90025130813733,-73.40693457315787,-107.20897241667024,27.07999999995809
312783.4247,-67.01318044888845,-71.15697363630125,-71.47335069556134,-107.32404426977338,27.08099999994738
312783.4257,-63.70709373042587,-69.57593946443151,-68.03309568980187,-104.04658646229488,27.081999999994878
312783.4267,-59.076291065692736,-66.25442383221785,-63.24840278985186,-97.57938043201928,27.082999999984168
312783.4277,-53.29737489613235,-61.33048948831272,-57.309923143629675,-88.20501163259179,27.083999999973457
312783.4287,-46.56256112928901,-54.97558523647591,-50.42722506703898,-76.27247131120824,27.084999999962747
312783.4297,-39.071228898445945,-47.38695347427713,-42.8196193542977,-62.18285690575197,27.085999999952037
312783.4307,-31.022638677969244,-38.78030689887809,-34.70786842997654,-46.37490381760553,27.086999999999534
312783.4317,-22.610189373361152,-29.38312893666023,-26.307197801124786,-29.310968586140984,27.087999999988824
312783.4327,-14.017399691110946,-19.4288258415419,-17.821861939861435,-11.46393852504233,27.088999999978114
312783.4337,-5.415608034936212,-9.151824892632948,-9.441340885647712,6.694617725826631,27.089999999967404
312783.4347,3.03679270083578,1.2164130109666818,-1.3380762669714221,24.704903561999103,27.090999999956694
312783.4357,11.193916617268288,11.450603931216948,6.333487584697415,42.12793880688587,27.091999999945983
312783.4367,18.921177227843682,21.334287575634484,13.436896913877858,58.55329465960392,27.09299999999348
312783.4377,26.093795783309112,30.66216116426188,19.853113910706924,73.6056923163774,27.09399999998277
312783.4387,32.5955040389063,39.24234996430968,25.479779081280395,86.9506689371601,27.09499999997206
312783.4397,38.31785889716238,46.898824413330544,30.230673009060844,98.29950288424045,27.09599999996135
312783.4407,43.16047815739715,53.47410206812279,34.03565403254976,107.41354159321713,27.09699999995064
312783.4417,47.03236352829138,58.832278115162566,36.841229975995894,114.10799955714978,27.097999999998137
312783.4427,49.85431479592722,62.86232265477083,38.611785317077,118.25520315040534,27.098999999987427
312783.4437,51.562275186352835,65.48147950882245,39.33134613125019,119.78716736602189,27.099999999976717
312783.4447,52.11130030191088,66.63851291922816,39.00564017798297,118.69731095415196,27.100999999966007
312783.4457,51.47972773876356,66.31648677795229,37.66411355241987,115.04106332880653,27.101999999955297
312783.4467,49.67305456946386,64.53473482331805,35.36151039428161,108.93509838791313,27.102999999944586
312783.4477,46.727013668525565,61.34969467608418,32.178615887256036,100.55495243005927,27.103999999992084
312783.4487,42.70938022706727,56.854334389460746,28.2218076273072,90.13084626284127,27.104999999981374
312783.4497,37.720133709040475,51.175993443792215,23.621153191069816,77.9416310722277,27.105999999970663
312783.4507,31.889739240681998,44.472582579247565,18.526923771487894,64.3069047940162,27.106999999959953
312783.4517,25.37548243898586,36.927226700117615,13.104551808732287,49.577488058449866,27.107999999949243
312783.4527,18.355975906163998,28.741578078149445,7.528228061993836,34.12459136773503,27.10899999999674
312783.4537,11.02413519989724,20.12815809086763,1.9734923874146473,18.328132358476186,27.10999999998603
312783.4547,3.579078356307846,11.30219032137256,-3.390695191174807,2.56475911137581,27.11099999997532
312783.4557,-3.7824805622721835,2.4734538763350113,-8.409826209234925,-12.803809561359367,27.11199999996461
312783.4567,-10.874709581375303,-6.161295231377471,-12.951044518357216,-27.441511126588008,27.1129999999539
312783.4577,-17.530370431127157,-14.4248186525326,-16.909085015098967,-41.04716630553877,27.114000000001397
312783.4587,-23.607183027341293,-22.164371579923934,-20.21044153627344,-53.36173777885682,27.114999999990687
312783.4597,-28.992376165795534,-29.254849561780226,-22.815390636456783,-64.17329434500711,27.115999999979977
312783.4607,-33.60511751353142,-35.5999519450954,-24.717674785880497,-73.31952656406683,27.116999999969266
312783.4617,-37.39670599409107,-41.13138086367413,-25.941850155926005,-80.68784662861594,27.117999999958556
312783.4627,-40.34861130160018,-45.80626836094625,-26.53851123282458,-86.21328854858817,27.118999999947846
312783.4637,-42.46863861035491,-49.60318132000877,-26.57779675836737,-89.87458697701041,27.119999999995343
312783.4647,-43.785662402702016,-52.51717871172151,-26.141739852558295,-91.68893828559007,27.120999999984633
312783.4657,-44.34349526937808,-54.55447562567834,-25.316133661457407,-91.70602353495782,27.121999999973923
312783.4667,-44.19452348629227,-55.72729529679719,-24.182631273768042,-90.0018923593734,27.122999999963213
312783.4677,-43.39374469012177,-56.04946074572957,-22.811779624742936,-86.67326775927769,27.123999999952503
312783.4687,-41.99378385642354,-55.53319410321381,-21.257602744062094,-81.83273851151895,27.125
312783.4697,-40.041348069244954,-54.187461885107105,-19.554207422700735,-75.60516799888869,27.12599999998929
312783.4707,-37.5754199231384,-52.018040689030336,-17.71469720141095,-68.12547988955703,27.12699999997858
312783.4717,-34.6272999193125,-49.029295629075676,-15.732465901179788,-59.53779953415477,27.12799999996787
312783.4727,-31.222408833571894,-45.227480795702675,-13.584719782037569,-49.99575383875069,27.12899999995716
312783.4737,-27.383571610099857,-40.625204763235246,-11.237868641572776,-39.66357986091124,27.12999999994645
