TimeStamp,ECR,FCR,ECU,FCU,time_index
312777.3437,25.749462790713316,8.862064214690646,30.910083672505657,12.130415278175677,21.0
312777.3447,26.30306549627956,7.960959714210513,27.626943058160577,11.391240659804563,21.00099999998929
312777.3457,26.037785405519102,6.8196708510814945,23.5326975153056,10.263936001913294,21.00199999997858
312777.3467,24.896831578057167,5.398270065426086,18.661846499998227,8.710080504760239,21.00299999996787
312777.3477,22.85296484296769,3.667946606308109,13.073187334580608,6.707263830851148,21.00399999995716
312777.3487,19.912584282903563,1.6151387572111113,6.851703731389119,4.253153859312258,21.00499999994645
312777.3497,16.118181927083015,-0.7553778789406551,0.10917540199423136,1.3683434398263643,21.005999999993946
312777.3507,11.548859412764143,-3.418757770906297,-7.01675078495199,-1.9023367607344048,21.006999999983236
312777.3517,6.318746451977554,-6.329897186893869,-14.365165031915055,-5.490220543092235,21.007999999972526
312777.3527,0.5733250659945296,-9.424838337120077,-21.75617009215295,-9.304955521496968,21.008999999961816
312777.3537,-5.516169377513711,-12.623669503932337,-28.996677652180853,-13.238278717573664,21.009999999951106
312777.3547,-11.759944678595032,-15.834690142402467,-35.88743780495853,-17.169155784979925,21.010999999998603
312777.3557,-17.95799229629194,-18.95949800684923,-42.230898208389185,-20.969903608123694,21.011999999987893
312777.3567,-23.909028664091995,-21.898576522748975,-47.83940687187145,-24.512833345013853,21.012999999977183
312777.3577,-29.419450947117546,-24.556922002785495,-52.54323075798492,-27.67691064449868,21.013999999966472
312777.3587,-34.31172756683361,-26.849255064284467,-56.197865602742844,-30.353935023938405,21.014999999955762
312777.3597,-38.43169932999157,-28.70440768490418,-58.69016036159631,-32.453790136873586,21.015999999945052
312777.3607,-41.654365603354805,-30.068561605443158,-59.94286806912861,-33.90840557239415,21.01699999999255
312777.3617,-43.88786198234741,-30.90712659820037,-59.91735546725234,-34.67418994093541,21.01799999998184
312777.3627,-45.075488604673524,-31.205177165971733,-58.614345348164825,-34.73283260555603,21.01899999997113
312777.3637,-45.195807191917375,-30.96650070067497,-56.07271513475346,-34.090514221546144,21.01999999996042
312777.3647,-44.260975243589506,-30.211435933467083,-52.36651913163704,-32.77570067418514,21.02099999994971
312777.3657,-42.313613817327635,-28.97378558535361,-47.60052717808406,-30.835808503878948,21.021999999997206
312777.3667,-39.42259965519958,-27.29716158840149,-41.904668114118074,-28.33311215105794,21.022999999986496
312777.3677,-35.678225170085085,-25.231158316080354,-35.427824506525134,-25.340307203044752,21.023999999975786
312777.3687,-31.187177287448655,-22.827745903516945,-28.33144116502402,-21.93614598833341,21.024999999965075
312777.3697,-26.067749150606158,-20.13823292684655,-20.783383897199737,-18.201523166142415,21.025999999954365
312777.3707,-20.445622427196927,-17.211070296860157,-12.952420559435666,-14.21631422096373,21.027000000001863
312777.3717,-14.450451418793136,-14.0906644360072,-5.003601265351528,-10.057167298621058,21.027999999991152
312777.3727,-8.213355305042777,-10.817248434827516,2.9053010019066843,-5.796329560633125,21.028999999980442
312777.3737,-1.865295291395398,-7.42773719830641,10.626251942915314,-1.5014656866543798,21.029999999969732
312777.3747,4.4638068345534245,-3.9573791520843637,18.022401413289405,2.7636888667765676,21.030999999959022
312777.3757,10.64545025942083,-0.4419244940599115,24.96869694471531,6.93809187600964,21.03199999994831
312777.3767,16.552743531214542,3.0800322239818683,31.35192472258909,10.961892154363374,21.03299999999581
312777.3777,22.060731688726264,6.564902711400557,37.070478196861515,14.775005385676648,21.0339999999851
312777.3787,27.047176219258805,9.962501862381371,42.03415700631011,18.316100232562714,21.03499999997439
312777.3797,31.394042568892484,13.215291089781253,46.164263398790276,21.522276424406165,21.03599999996368
312777.3807,34.989854908714776,16.258681576223026,49.394194105459704,24.32963255560262,21.036999999952968
312777.3817,37.7329569184836,19.022499201960844,51.670630540669904,26.67481251767156,21.038000000000466
312777.3827,39.53558315859756,21.433587058110696,52.95531992204465,28.497497107709087,21.038999999989755
312777.3837,40.328512538737634,23.41939410345188,53.22732683684235,29.743684210749,21.039999999979045
312777.3847,40.06595811684739,24.912282601559337,52.485531785448494,30.36949013559019,21.040999999968335
312777.3857,38.730259442156374,25.854194458844173,50.75107231452568,30.345118245220846,21.041999999957625
312777.3867,36.335895778754214,26.201257298952285,48.069373400503316,29.658588745983053,21.042999999946915
312777.3877,32.93233796292219,25.927891729443303,44.511403480012554,28.318811871910523,21.043999999994412
312777.3887,28.60530596098425,25.030004604983205,40.173823754828334,26.357618208339023,21.044999999983702
312777.3897,23.476096081858234,23.526917809517034,35.1777696591469,23.83043270976298,21.04599999997299
312777.3907,17.698779112270593,21.461782712603974,29.666108996137623,20.81538704260403,21.04699999996228
312777.3917,11.455236990812343,18.900357939144392,23.79915184686306,17.41079851488114,21.04799999995157
312777.3927,4.948186394106995,15.928170609065116,17.748930708723666,13.731090572475024,21.04899999999907
312777.3937,-1.607483734851768,12.646225315820931,11.69231154774247,9.9013756158083,21.04999999998836
312777.3947,-7.994573960367463,9.165557066955836,5.803323354639867,6.051051501564125,21.05099999997765
312777.3957,-14.004023407773895,5.601031486851501,0.24519228144232372,2.306865538476545,21.051999999966938
312777.3967,-19.445255969608695,2.0648673500652412,-4.837374177752409,-1.214036421056127,21.052999999956228
312777.3977,-24.155711188389024,-1.3396141328533617,-9.325094377312872,-4.410539954198833,21.053999999945518
312777.3987,-28.008884346011655,-4.523524984807931,-13.129688526077773,-7.202965186838891,21.054999999993015
312777.3997,-30.920294821366838,-7.416803120786447,-16.197684375859552,-9.537013221259278,21.055999999982305
312777.4007,-32.850946676344876,-9.971133022265125,-18.512137974784945,-11.385941832880482,21.056999999971595
312777.4017,-33.80802881662022,-12.161193868846897,-20.092110164619207,-12.750801609267185,21.057999999960884
312777.4027,-33.842808416492886,-13.984180342197122,-20.9899121915715,-13.65872514456297,21.058999999950174
312777.4037,-33.04588284189138,-15.457690739141533,-21.28630865822416,-14.159424755174031,21.05999999999767
312777.4047,-31.54015372308561,-16.616216076998768,-21.08402743486696,-14.320203427891764,21.06099999998696
312777.4057,-29.472054926576558,-17.506579571899533,-20.500059507206256,-14.21990557122409,21.06199999997625
312777.4067,-27.001689507342945,-18.182757558384672,-19.657324960660613,-13.942317407869515,21.06299999996554
312777.4077,-24.292598935480356,-18.70055327845486,-18.676325911576377,-13.569563969939587,21.06399999995483
312777.4087,-21.501895683975686,-19.112590730125874,-17.667399166047712,-13.17603747341617,21.06500000000233
312777.4097,-18.771437859568586,-19.46404800974801,-16.72412154458156,-12.823331878990668,21.065999999991618
312777.4107,-16.22061764473233,-19.789463613104218,-15.918314773519235,-12.556556754072007,21.066999999980908
312777.4117,-13.941184467238546,-20.1108339609007,-15.296954495265052,-12.402270136482334,21.067999999970198
312777.4127,-11.994343430517281,-20.437087738207477,-14.881122497780499,-12.368117922949443,21.068999999959487
312777.4137,-10.410176453507335,-20.76488582631864,-14.666967979191627,-12.444111010044693,21.069999999948777
312777.4147,-9.189245406596552,-21.08056825214432,-14.628478410229285,-12.605325898241029,21.070999999996275
312777.4157,-8.306070016873404,-21.3629641706297,-14.721718270962914,-12.815693422841273,21.071999999985565
312777.4167,-7.714042696997626,-21.586707566446062,-14.890087193722938,-13.032454851686849,21.072999999974854
312777.4177,-7.35125817255625,-21.72566689690617,-15.070086858129683,-13.210822324978711,21.073999999964144
312777.4187,-7.146703558300393,-21.75610406939697,-15.19707297120651,-13.308384710526076,21.074999999953434
312777.4197,-7.026274901307057,-21.659225455862256,-15.210504629896906,-13.288848995942878,21.07600000000093
312777.4207,-6.9181545983769075,-21.422869506288425,-15.05828336841028,-13.124795487754145,21.07699999999022
312777.4217,-6.757191404700342,-21.042182848008142,-14.699889100627328,-12.79924266835425,21.07799999997951
312777.4227,-6.48805836793186,-20.519257913012225,-14.108157592853129,-12.305952088314985,21.0789999999688
312777.4237,-6.067109173048681,-19.861827140082198,-13.269689683743563,-11.648541112956213,21.07999999995809
312777.4247,-5.462994678546381,-19.081218662547585,-12.184021330732271,-10.838597547247243,21.08099999994738
312777.4257,-4.656224432267336,-18.189864452277263,-10.861801816089745,-9.893092288009717,21.081999999994878
312777.4267,-3.6379506509680435,-17.19870500490718,-9.322313575560822,-8.831453948343023,21.082999999984168
312777.4277,-2.4083060894343244,-16.114849136873126,-7.590713113875607,-7.672696232717261,21.083999999973457
312777.4287,-0.9746383402981812,-14.939821676216836,-5.695374621566649,-6.432972344387398,21.084999999962747
312777.4297,0.6500479821243345,-13.668668325944706,-3.6656770953247464,-5.12387299442149,21.085999999952037
312777.4307,2.4481978558323174,-12.29009226306464,-1.5304973488454645,-3.751692014969696,21.086999999999534
312777.4317,4.398214065879589,-10.787680889507687,0.6824354819032908,-2.3177661028069876,21.087999999988824
312777.4327,6.474331982659409,-9.1421556376948,2.9462913578617003,-0.8198653382787667,21.088999999978114
312777.4337,8.645940535714328,-7.334455976701958,5.234089611165752,0.7455173694205641,21.089999999967404
312777.4347,10.876532530058151,-5.349363616733039,7.5170550578691016,2.3802431913701043,21.090999999956694
312777.4357,13.122547460715477,-3.1792956506374894,9.762676816954277,4.081322116393488,21.091999999945983
312777.4367,15.332416738538427,-0.8278545703475688,11.932822253332477,5.837826500839205,21.09299999999348
312777.4377,17.446128626501977,1.6872762590363952,13.982273095160547,7.628331484599228,21.09399999998277
312777.4387,19.395596348454337,4.332460102327595,15.85802217125821,9.41925347771991,21.09499999997206
312777.4397,21.106040394333398,7.057543764992484,17.499599566581747,11.164380116857275,21.09599999996135
312777.4407,22.498491859698003,9.79677654042595,18.840592812253472,12.805773466239708,21.09699999995064
312777.4417,23.49339813566515,12.47124867894122,19.811397210709874,14.276093420555386,21.097999999998137
312777.4427,24.015178352765425,14.992743072832047,20.343092442119055,15.502243350887873,21.098999999987427
312777.4437,23.997447870007136,17.268755140409347,20.372204535322627,16.41009931229351,21.099999999976717
312777.4447,23.388522806340877,19.20831570696828,19.845992467653392,16.929961705635556,21.100999999966007
312777.4457,22.1567395624878,20.728161899955083,18.727809033633264,17.002276691844493,21.101999999955297
312777.4467,20.295090033481394,21.75875085950851,17.002036441448872,16.583123626646792,21.102999999944586
312777.4477,17.824686436876984,22.24960595902853,14.678094855377637,15.648960276087932,21.103999999992084
312777.4487,14.796631510086037,22.17352660049884,11.793068850718761,14.200161154669773,21.104999999981374
312777.4497,11.291976633261958,21.529277512322064,8.41258981069573,12.262972974030081,21.105999999970663
312777.4507,7.419594056697099,20.342494735038624,4.629744450809926,9.889637522577878,21.106999999959953
312777.4517,3.3119578510696064,18.664692544804012,0.5619397513481798,7.156585239104725,21.107999999949243
312777.4527,-0.8809933336908489,16.570415318346456,-3.6541714757104296,4.1607685356715205,21.10899999999674
312777.4537,-4.999566343964989,14.152736345291183,-7.869428097940554,1.014367400610267,21.10999999998603
312777.4547,-8.883101145151294,11.517447421997407,-11.93013070632771,-2.161754177915285,21.11099999997532
312777.4557,-12.379227641982823,8.776395665107339,-15.686691796516937,-5.2453475816179616,21.11199999996461
312777.4567,-15.3529186493206,6.040496920607941,-19.002336150583,-8.12026859527067,21.1129999999539
312777.4577,-17.694656948456785,3.4129815816455147,-21.761196288840353,-10.683566453720587,21.114000000001397
312777.4587,-19.32708338646592,0.9834060071375733,-23.875178392585557,-12.851611560336307,21.114999999990687
312777.4597,-20.20959713066689,-1.1771069644983718,-25.28905869603539,-14.564778477691245,21.115999999979977
312777.4607,-20.340530481422274,-3.0190453294216293,-25.98340241160319,-15.79032156440538,21.116999999969266
312777.4617,-19.756706659273654,-4.515890972561087,-25.97506581343412,-16.523233435272957,21.117999999958556
312777.4627,-18.530393976479548,-5.663654947894043,-25.31523278677657,-16.78504746637088,21.118999999947846
312777.4637,-16.76387613285246,-6.478673025318931,-24.085133482816936,-16.620719367918557,21.119999999995343
312777.4647,-14.582048102335042,-6.993919243242293,-22.389777628722545,-16.093883680266973,21.120999999984633
312777.4657,-12.12360361741847,-7.254219383776308,-20.350192420312794,-15.280914425903294,21.121999999973923
312777.4667,-9.531489917945912,-7.3108337434902575,-18.094771092332255,-14.264313182758338,21.122999999963213
312777.4677,-6.943358666634804,-7.215921623930792,-15.750403220747769,-13.12599434566086,21.123999999952503
312777.4687,-4.482734236471874,-7.017395161394529,-13.43406615073834,-11.941032583600204,21.125
312777.4697,-2.251552880178997,-6.754618541247139,-11.245508319141333,-10.772382531439076,21.12599999998929
312777.4707,-0.32460488306531154,-6.455315792294753,-9.26155438968136,-9.666981276717658,21.12699999997858
312777.4717,1.2537522830728147,-6.133925579536915,-7.532418410177357,-8.653509994002441,21.12799999996787
312777.4727,2.470433785159257,-5.791496990829253,-6.080237747127643,-7.741935041149045,21.12899999995716
312777.4737,3.342047018896715,-5.4170702613265584,-4.899852989971069,-6.9247857381560385,21.12999999994645
312777.4747,3.911113497159982,-4.990345091300963,-3.9616740457327095,-6.179971130701004,21.130999999993946
312777.4757,4.240487282110016,-4.485320067340964,-3.216306482785424,-5.474805533458767,21.131999999983236
312777.4767,4.406497343559463,-3.8745007777443923,-2.6004790726121865,-4.770814451152036,21.132999999972526
312777.4777,4.491424998750781,-3.1332292552985663,-2.04372439295605,-4.028837039511042,21.133999999961816
312777.4787,4.575955902737002,-2.243687049397653,-1.4752260233720584,-3.2139328313899838,21.134999999951106
312777.4797,4.73221801132921,-1.1981677972868465,-0.8302602100979668,-2.299638684491223,21.135999999998603
312777.4807,5.017936819906963,-0.0012976202176382815,-0.05572392586269438,-1.2712019984871497,21.136999999987893
312777.4817,5.47211598308172,1.3290057532465882,0.8856525037061616,-0.1275294398876446,21.137999999977183
312777.4827,6.112497904300878,2.7619131694459194,2.0126728304465793,1.1182751069853802,21.138999999966472
312777.4837,6.934890302880411,4.255345342412297,3.3247326605325895,2.4397675406422854,21.139999999955762
312777.4847,7.914277357698218,5.758729361390227,4.802521456836999,3.7992641027087823,21.140999999945052
312777.4857,9.007483440631534,7.216558034983787,6.4101789659896795,5.150918322577344,21.14199999999255
312777.4867,10.157037249394556,8.572384869490374,8.098598468205775,6.4444222245576785,21.14299999998184
312777.4877,11.295804528249013,9.772851473144385,9.809487578858551,7.628933346904546,21.14399999997113
312777.4887,12.351924438527853,10.771350176080349,11.479758217326907,8.656825187725778,21.14499999996042
312777.4897,13.253599141968259,11.530971569101661,13.045822843437524,9.486896590364353,21.14599999994971
312777.4907,13.933344626743482,12.026469256541443,14.447421687959565,10.086750505938832,21.146999999997206
312777.4917,14.331405240919624,12.245083544672855,15.630688837298464,10.434155993181845,21.147999999986496
312777.4927,14.398153349922879,12.186190491201135,16.550273593640817,10.517327863825953,21.148999999975786
312777.4937,14.095425317425507,11.859869624253202,17.170455061146786,10.33418300723367,21.149999999965075
312777.4947,13.39687113272693,11.284599382959362,17.465308868250688,9.890747737884753,21.150999999954365
312777.4957,12.287503680499832,10.484381749461537,17.418092113780595,9.198984135069821,21.152000000001863
312777.4967,10.762713202453169,9.485656821698727,17.0200945046701,8.274365211843666,21.152999999991152
312777.4977,8.827054596251815,8.314387792289285,16.269251611707816,7.133552126548897,21.153999999980442
312777.4987,6.493115691156551,6.993674592580918,15.168825373363877,5.792508856476887,21.154999999969732
312777.4997,3.7807340196314616,5.542192316738333,13.726426888458302,4.265332473950828,21.155999999959022
312777.5007,0.7167529469149437,3.9736546269334423,11.953590972526365,2.5639863138248966,21.15699999994831
312777.5017,-2.6645955255625307,2.297382426564301,9.866018681422489,0.69900847245896,21.15799999999581
312777.5027,-6.320712132740214,0.519926589732621,7.484493936992581,-1.3188584839921853,21.1589999999851
312777.5037,-10.199205427576162,-1.3524357205789719,4.836366412952822,-3.4762952474128035,21.15999999997439
312777.5047,-14.236274869215002,-3.3106247817698735,1.9573884509146815,-5.754578252197052,21.16099999996368
312777.5057,-18.355233844838413,-5.339480361233298,-1.106388370777408,-8.126664635198926,21.161999999952968
312777.5067,-22.46554450394136,-7.414706714808515,-4.297000867005727,-10.55459978163172,21.163000000000466
312777.5077,-26.462731879601492,-9.500467224851784,-7.543599672543384,-12.987655982450478,21.163999999989755
312777.5087,-30.22949400794341,-11.548011542676898,-10.762433218148832,-15.361563650540011,21.164999999979045
312777.5097,-33.63823063777097,-13.495631451943122,-13.858037284386137,-17.59910715685056,21.165999999968335
312777.5107,-36.55508347266447,-15.270119704414851,-16.725768756040928,-19.61223331398189,21.166999999957625
312777.5117,-38.84542766455068,-16.78976006903091,-19.255689238888753,-21.305673303277,21.167999999946915
312777.5127,-40.38059243589606,-17.96872075602493,-21.337659760576997,-22.581922568842902,21.168999999994412
312777.5137,-41.045434734269136,-18.722572562106016,-22.86736659022094,-23.34727337701415,21.169999999983702
312777.5147,-40.74626008269775,-18.97452271202477,-23.752875175046885,-23.518466651549403,21.17099999997299
312777.5157,-39.418493847667776,-18.6618589629654,-23.921217840741225,-23.02943689423055,21.17199999996228
312777.5167,-37.03346524206004,-17.742046572108936,-23.324471987332778,-21.8375769114796,21.17299999995157
312777.5177,-33.60368220123433,-16.197919561080827,-21.944785847669042,-19.92895388877792,21.17399999999907
312777.5187,-29.186049167604892,-14.041458882543049,-19.79786055810856,-17.3219663657853,21.17499999998836
312777.5197,-23.882607538705813,-11.315750100135782,-16.93449738973974,-14.06903901263002,21.17599999997765
312777.5207,-17.83855050634936,-8.094853759414754,-13.439959733002272,-10.256100097518967,21.176999999966938
312777.5217,-11.23746617683551,-4.481490457518565,-9.431068887999757,-5.999762407729109,21.177999999956228
312777.5227,-4.293977936749358,-0.602624544808312,-5.05113589948086,-1.442316500611622,21.178999999945518
312777.5237,2.7558398638305666,3.3967911830891118,-0.4630119686905188,3.2551715193589237,21.179999999993015
312777.5247,9.66570839423926,7.3614889492962154,4.159299277806876,7.921203781984224,21.180999999982305
312777.5257,16.191347422896847,11.134432876619814,8.639898241915597,12.383056908714158,21.181999999971595
312777.5267,22.102840926353384,14.56561678232581,12.810465573727509,16.47619470420528,21.182999999960884
312777.5277,27.196345555576674,17.520465978051433,16.51928401650615,20.05320971934423,21.183999999950174
312777.5287,31.3043622961508,19.887227389857816,19.639163635274166,22.991652149713488,21.18499999999767
312777.5297,34.30389412983826,21.582816266027837,22.073714603274528,25.200194896374754,21.18599999998696
312777.5307,36.12196872083631,22.556716645323935,23.76154502784529,26.622720098401775,21.18699999997625
312777.5317,36.73820165917974,22.79269472720686,24.678129538432383,27.240082623125474,21.18799999996554
312777.5327,36.18429567695736,22.308264469287494,24.835282388595623,27.06949443051655,21.18899999995483
312777.5337,34.54059570158617,21.15202675330322,24.278359750230248,26.16166343222499,21.19000000000233
312777.5347,31.93002965968662,19.399170950832676,23.08149266783289,24.595994531397874,21.190999999991618
312777.5357,28.509943198602517,17.145565889574144,21.34129921924346,22.474303699354014,21.191999999980908
312777.5367,24.462468675088306,14.500964213952372,19.16962913313609,19.913596030745655,21.192999999970198
312777.5377,19.984144958645672,11.581892109936605,16.685947850710438,17.038507706544888,21.193999999959487
312777.5387,15.275520076344677,8.504792182959829,14.009966033914274,13.974006544261385,21.194999999948777
312777.5397,10.531424258332088,5.379932727753756,11.255066194620376,10.83888828884474,21.195999999996275
312777.5407,5.932502618826969,2.306498182850348,8.522976772595225,7.740502799403394,21.196999999985565
312777.5417,1.6384552602441516,-0.6308563080032031,5.90000623589247,4.771006745080399,21.197999999974854
312777.5427,-2.2167376962756813,-3.36385519016232,3.45498945463004,2.005281290741666,21.198999999964144
312777.5437,-5.52751133710756,-5.840883490011138,1.238931418252737,-0.4995098720653738,21.199999999953434
312777.5447,-8.217414702884856,-8.025871057364023,-0.7138246155492939,-2.702899187212566,21.20100000000093
312777.5457,-10.238053814654656,-9.896075313228613,-2.3832113764782608,-4.578934956199031,21.20199999999022
312777.5467,-11.566643172512702,-11.439145251993306,-3.7602387026104025,-6.113237173208648,21.20299999997951
312777.5477,-12.202609532216247,-12.649894225337025,-4.843438840379429,-7.2997308301810655,21.2039999999688
312777.5487,-12.163722345326883,-13.527207957797659,-5.635417395652146,-8.137496772627792,21.20499999995809
312777.5497,-11.48220651915728,-14.071468782614824,-6.139927826969426,-8.628132916742745,21.20599999994738
312777.5507,-10.201229671635412,-14.282793111328473,-6.359801731407797,-8.77393152363108,21.206999999994878
312777.5517,-8.372056648011313,-14.160266286024775,-6.29594925999603,-8.577061306193302,21.207999999984168
312777.5527,-6.0520408491586215,-13.702229578492537,-5.947506686033539,-8.039809296088443,21.208999999973457
312777.5537,-3.3034890246540978,-12.9075420389727,-5.313066074370752,-7.165801015472762,21.209999999962747
312777.5547,-0.1933082891899007,-11.777619070007516,-4.392790079169148,-5.961993027266213,21.210999999952037
312777.5557,3.206765030704033,-10.318952589229358,-3.1911068219545005,-4.4411324233567235,21.211999999999534
312777.5567,6.819634096398521,-8.54575444709569,-1.7196066645800032,-2.6243135933176904,21.212999999988824
312777.5577,10.56232801262101,-6.482341813806068,0.0002681083906898108,-0.5432403124382772,21.213999999978114
312777.5587,14.345825152021973,-4.164902790968541,1.9351351614539885,1.7581769540567784,21.214999999967404
312777.5597,18.07549020025889,-1.642340402721716,4.038521851599196,4.223194932805457,21.215999999956694
312777.5607,21.652323518730235,1.024012899344761,6.250893567844684,6.782790099850615,21.216999999945983
312777.5617,24.97511618942687,3.761899791879988,8.500978355901703,9.357473539504511,21.21799999999348
312777.5627,27.943483793784406,6.49082093428062,10.708367840432492,11.860315760894293,21.21899999998277
312777.5637,30.461630125176143,9.125726505616875,12.787236433230818,14.200995191146896,21.21999999997206
312777.5647,32.442582418655284,11.581432861095706,14.650896784088319,16.290566162792633,21.22099999996135
312777.5657,33.81255488301013,13.777393684878023,16.216812335590156,18.04655280926601,21.22199999995064
312777.5667,34.515047413237674,15.64240416635912,17.411627931735794,19.397924037154215,21.222999999998137
312777.5677,34.51427784876306,17.118807815042118,18.175763228426113,20.28949753405909,21.223999999987427
312777.5687,33.79758124608072,18.165810095244158,18.4671433068544,20.68535907934411,21.224999999976717
312777.5697,32.37648601402741,18.761578282619944,18.26371393974262,20.570964163251503,21.225999999966007
312777.5707,30.286287691472584,18.903915885988404,17.564498570736315,19.95370470347723,21.226999999955297
312777.5717,27.584076145006616,18.609432255678854,16.38908968777219,18.861863498068374,21.227999999944586
312777.5727,24.34531778996924,17.911270780871877,14.77561565761452,17.342029455181603,21.228999999992084
312777.5737,20.659236400482857,16.855598330490245,12.777370594270979,15.455192859924297,21.229999999981374
312777.5747,16.623359491775716,15.497180455404798,10.458424842171521,13.27186746608108,21.230999999970663
312777.5757,12.337688944005565,13.894459022237786,7.8886340173104035,10.866682180618545,21.231999999959953
312777.5767,7.8990041566782505,12.104601831150347,5.138524889921339,8.312939619887839,21.232999999949243
312777.5777,3.3958071918114916,10.17900154840366,2.2745501522458267,5.677645872854871,21.23399999999674
312777.5787,-1.095629629135848,8.159662462073477,-0.6448307623618257,3.017473985594391,21.23499999998603
312777.5797,-5.513749128348482,6.0768311792570575,-3.571868458943698,0.37603631074798016,21.23599999997532
312777.5807,-9.812497997008041,3.9481087459337476,-6.470781114807239,-2.2172842463119324,21.23699999996461
312777.5817,-13.960350945840018,1.7791377343203767,-9.317442966609125,-4.746845325443473,21.2379999999539
312777.5827,-17.937676066155916,-0.43419783379450283,-12.097554508264585,-7.208662952618859,21.239000000001397
312777.5837,-21.732716186458486,-2.7022743836732603,-14.803503664830371,-9.606959944889391,21.239999999990687
312777.5847,-25.33660874734101,-5.037281727434667,-17.43026804216894,-11.94970891205892,21.240999999979977
312777.5857,-28.73797822608253,-7.448279588158075,-19.9708173521703,-14.243641050899184,21.241999999969266
312777.5867,-31.91769854953003,-9.936271834468297,-22.41154096940033,-16.48925519293047,21.242999999958556
312777.5877,-34.84443067230849,-12.48982576969861,-24.72824096548162,-18.676374148139786,21.243999999947846
312777.5887,-37.47149012419297,-15.081726567700533,-26.883193321954366,-20.78075525985177,21.244999999995343
312777.5897,-39.73549386971392,-17.667071909941992,-28.823691837085104,-22.76217223470245,21.245999999984633
312777.5907,-41.557083591965686,-20.1830863281453,-30.482357910885398,-24.564253500604426,21.246999999973923
312777.5917,-42.84383643974708,-22.550779913629754,-31.779336564545194,-26.116200430547803,21.247999999963213
312777.5927,-43.49527077033712,-24.678406063045557,-32.62631957155767,-27.336331612565978,21.248999999952503
312777.5937,-43.40965188470125,-26.466503545153678,-32.932157114109984,-28.137223430556197,21.25
312777.5947,-42.49211989538724,-27.814155279425876,-32.60965685011389,-28.4320591036015,21.25099999998929
312777.5957,-40.6635159491359,-28.625974321005103,-31.58303925154243,-28.141673070528896,21.25199999997858
312777.5967,-37.869188216939925,-28.819248384658955,-29.795433276084943,-27.20169731722499,21.25299999996787
312777.5977,-34.08702507376598,-28.330645639020716,-27.215765503292907,-25.569188925430907,21.25399999995716
312777.5987,-29.333993998540468,-27.121909600051254,-23.84442250782307,-23.228146863421326,21.25499999994645
312777.5997,-23.670559315764525,-25.184047864593843,-19.71714883145326,-20.19340869376552,21.255999999993946
312777.6007,-17.20250254707812,-22.539641387628755,-14.906774613095264,-16.51254722708115,21.256999999983236
312777.6017,-10.079863248350442,-19.243056993008885,-9.522536302144204,-12.26555158073404,21.257999999972526
312777.6027,-2.4929391474530345,-15.378521556438859,-3.706945931329123,-7.562261663490626,21.258999999961816
312777.6037,5.334486960624923,-11.056195666561981,2.3696379671477987,-2.537712947509612,21.259999999951106
312777.6047,13.154309618454025,-6.406551064646416,8.516399217159409,2.6542776531952197,21.260999999998603
312777.6057,20.705082871785795,-1.5734945263103914,14.530917181914305,7.848809736005768,21.261999999987893
312777.6067,27.724113822575195,3.293221486100908,20.208874467354246,12.878304599923029,21.262999999977183
312777.6077,33.95987866661623,8.045712775388287,25.353947342238794,17.580991177639365,21.263999999966472
312777.6087,39.183956264831615,12.545218364741563,29.787202420735337,21.808851959625446,21.264999999955762
312777.6097,43.20172301715776,16.668370069540074,33.35537548809013,25.434468295622374,21.265999999945052
312777.6107,45.86116074282505,20.31205362054271,35.93751204592458,28.356312613270287,21.26699999999255
312777.6117,47.0592856344253,23.39657728219446,37.449593900638234,30.502180431331087,21.26799999998184
312777.6127,46.74589622601512,25.867024881456512,37.84694794675388,31.830623346117243,21.26899999997113
312777.6137,44.92454412415223,27.692837420102187,37.12441595036469,32.330419233087575,21.26999999996042
312777.6147,41.65083447701324,28.865824893040596,35.31444065513747,32.01828113430724,21.27099999994971
312777.6157,37.02834610730544,29.39694263453257,32.48337788543634,30.935146316010428,21.271999999997206
312777.6167,31.202608697898103,29.312262119030667,28.726462940901545,29.141489094222944,21.272999999986496
312777.6177,24.35367504914326,28.648616092319056,24.161932633952237,26.71215645519463,21.273999999975786
312777.6187,16.68787372485676,27.449398229743565,18.924826619376347,23.73123016715318,21.274999999965075
312777.6197,8.429320206796717,25.76094918160775,13.160963073619483,20.287373970236015,21.275999999954365
312777.6207,-0.18829288503891595,23.629869648623004,7.021509169568031,16.470035419591238,21.277000000001863
312777.6217,-8.929205015650844,21.101477011594646,0.6584554694757214,12.366749181343838,21.277999999991152
312777.6227,-17.56210290512855,18.219478184632774,-5.778831917060105,8.061645392678892,21.278999999980442
312777.6237,-25.865490140125566,15.02678279857692,-12.145951903371683,3.635118299189896,21.279999999969732
312777.6247,-33.63189999554553,11.56724294245176,-18.304810122701717,-0.8355276996404286,21.280999999959022
312777.6257,-40.671063911081326,7.887992720524259,-24.124187074404265,-5.274750937728965,21.28199999994831
312777.6267,-46.812242598860394,4.041984470320249,-29.479841849587284,-9.607137862417211,21.28299999999581
312777.6277,-51.90598317713495,0.09028655576426377,-34.25450274059331,-13.75586759538949,21.2839999999851
312777.6287,-55.82557949723702,-3.896276385155543,-38.33809251991412,-17.641668135115268,21.28499999997439
312777.6297,-58.468484251994546,-7.836497425230212,-41.628487751893054,-21.18259669951474,21.28599999996368
312777.6307,-59.75785554047982,-11.639429481011259,-44.03302371921686,-24.29487734564685,21.286999999952968
312777.6317,-59.644326463403914,-15.20641662948764,-45.470839135681395,-26.89490064817122,21.288000000000466
312777.6327,-58.1079762989357,-18.434485976125647,-45.87602070486496,-28.90234630459201,21.288999999989755
312777.6337,-55.16036990871822,-21.220920086762412,-45.201371587606445,-30.244245179135874,21.289999999979045
312777.6347,-50.84643257043898,-23.468692344209813,-43.42250516190357,-30.859667781975592,21.290999999968335
312777.6357,-45.245853483640836,-25.09233780154163,-40.541870136045084,-30.704625421933475,21.291999999957625
312777.6367,-38.473673132900046,-26.02376169915084,-36.59225654134561,-29.756709411713956,21.292999999946915
312777.6377,-30.67971409039211,-26.21746452165671,-31.639322013408293,-28.01897997923081,21.293999999994412
312777.6387,-22.046563713779086,-25.654689445164497,-25.78271706702021,-25.522652516932663,21.294999999983702
312777.6397,-12.785907720778885,-24.346073496748808,-19.155474767982888,-22.32821209177982,21.29599999997299
312777.6407,-3.1331383480902906,-22.332501167695387,-11.92145740454041,-18.524710580410286,21.29699999996228
312777.6417,6.659691655747282,-19.68400787242597,-4.270809280727196,-14.227153121896217,21.29799999995157
312777.6427,16.332341813972807,-16.49674666571025,3.586463820707544,-9.572047503469825,21.29899999999907
312777.6437,25.625906998215253,-12.888199360987693,11.428497890029405,-4.71135568301724,21.29999999998836
312777.6447,34.29288776831933,-8.990966699248506,19.030713850710722,0.1947651022776848,21.30099999997765
312777.6457,42.107214728825895,-4.945596857447429,26.175538648930072,4.985927796749133,21.301999999966938
312777.6467,48.87359040468813,-0.8929954437095523,32.66206837657183,9.509610734720821,21.302999999956228
312777.6477,54.435522214439,3.033004808745856,38.31501696342471,13.628783685369466,21.303999999945518
312777.6487,58.68148488708916,6.7123534901787245,42.99232985632356,17.228497240546613,21.304999999993015
312777.6497,61.54876626902284,10.044277432332414,46.59093219787737,20.220950469686205,21.305999999982305
312777.6507,63.02470809421381,12.951178821895882,49.05021792569661,22.54867777954712,21.306999999971595
312777.6517,63.14523996737103,15.380698847325394,50.35305806229808,24.185653940379574,21.307999999960884
312777.6527,61.99080457128201,17.30587322119707,50.52429803952258,25.13629163072932,21.308999999950174
312777.6537,59.67996749409058,18.723473738360685,49.62690809198936,25.432482331134548,21.30999999999767
312777.6547,56.36117876109028,19.650785848998318,47.75613019598216,25.128992623354957,21.31099999998696
312777.6557,52.203289613051275,20.121201531010144,45.03211374854643,24.297659102053565,21.31199999997625
312777.6567,47.38551502149558,20.17909771472171,41.59163709970137,23.020914288126615,21.31299999996554
312777.6577,42.0875620215077,19.87451512892871,37.57956420951102,21.385215312101515,21.31399999995483
312777.6587,36.4806135069871,19.25814722775624,33.140681078873065,19.474933658012393,21.31500000000233
312777.6597,30.719769450034978,18.377095180315553,28.412496455780193,17.367199906875076,21.315999999991618
312777.6607,24.938410550748234,17.271748765963892,23.51948202436021,15.12808898653963,21.316999999980908
312777.6617,19.244775530251918,15.974024443522254,18.569079693367485,12.81038983144487,21.317999999970198
312777.6627,13.720848384444093,14.507043890053762,13.64963197498015,10.453042529470578,21.318999999959487
312777.6637,8.42345349090425,12.886183691716408,8.830212075290046,8.082161606270786,21.319999999948777
312777.6647,3.3872722796961092,11.121284651821947,4.162159966546111,5.713411855188685,21.320999999996275
312777.6657,-1.3706584358278875,9.219691217452045,-0.31801498073479445,3.355377495304025,21.321999999985565
312777.6667,-5.845516053014462,7.189709165991705,-4.584812208466683,1.0134781381646103,21.322999999974854
312777.6677,-10.038935844943039,5.0440307028647,-8.619507441966176,-1.3060560525822458,21.323999999964144
312777.6687,-13.953534104792102,2.80268396153092,-12.406027262371738,-3.5926291806175383,21.324999999953434
312777.6697,-17.588259316161384,0.4951174183665495,-15.927406841204077,-5.828567096997468,21.32600000000093
312777.6707,-20.935013286844416,-1.838876673894195,-19.16321921131238,-7.987571822080498,21.32699999999022
312777.6717,-23.976838761073303,-4.149571574517496,-22.08824049648939,-10.034537031342406,21.32799999997951
312777.6727,-26.68780021504287,-6.379077539219151,-24.672468308297255,-11.926769965113047,21.3289999999688
312777.6737,-29.03450687251623,-8.464358784028361,-26.882455118245193,-13.61651262912286,21.32999999995809
312777.6747,-30.979058510458266,-10.341243632319584,-28.68377049369709,-15.054514069286665,21.33099999994738
312777.6757,-32.483051332651975,-11.949064061365247,-30.044280382061086,-16.19428977726926,21.331999999994878
312777.6767,-33.51217645979818,-13.235484595026698,-30.93784051974236,-16.996625324930097,21.332999999984168
312777.6777,-34.04088697285233,-14.161047137709382,-31.347953366990936,-17.433846920783683,21.333999999973457
312777.6787,-34.05660579939758,-14.702971448609926,-31.27093818257467,-17.493395148818994,21.334999999962747
312777.6797,-33.56299576628574,-14.857809550303317,-30.71821161632946,-17.18029842357792,21.335999999952037
312777.6807,-32.58190950687513,-14.642651080050191,-29.717366439853286,-16.518243857451704,21.336999999999534
312777.6817,-31.153770744520898,-14.094706162696788,-28.311859462828544,-15.549075486333003,21.337999999988824
312777.6827,-29.336296375368253,-13.269240545065067,-26.55926370904511,-14.33070030665482,21.338999999978114
312777.6837,-27.20163511756256,-12.235990391682432,-24.528189922514965,-12.933536720276743,21.339999999967404
312777.6847,-24.832156948375705,-11.074326734706485,-22.29412321533576,-11.435782768693965,21.340999999956694
312777.6857,-22.31526265498198,-9.867558454511459,-19.934537843549393,-9.91789904521178,21.341999999945983
312777.6867,-19.737681477684436,-8.696846432458207,-17.523734726867076,-8.456781906468729,21.34299999999348
312777.6877,-17.179777538535472,-7.63524208429707,-15.127883960014048,-7.120138603872875,21.34399999998277
312777.6887,-14.710387549335906,-6.7423568785692405,-12.800744115988822,-5.961563573315665,21.34499999997206
312777.6897,-12.382663181796156,-6.0601161856617916,-10.580472318578078,-5.016755378948604,21.34599999996135
312777.6907,-10.231296414599129,-5.609955846001757,-8.487839292713337,-4.301212299120066,21.34699999995064
312777.6917,-8.271374557826698,-5.391692108737394,-6.526031513620581,-3.8096109006600822,21.347999999998137
312777.6927,-6.4989564312504555,-5.384147096080823,-4.6820710475543885,-3.5169189065213082,21.348999999987427
312777.6937,-4.893297532585886,-5.5474566571444415,-2.9297275687619986,-3.381135825628403,21.349999999976717
312777.6947,-3.4204959383772637,-5.826839948574341,-1.2336517252316712,-3.3474072382180133,21.350999999966007
312777.6957,-2.038197307599269,-6.157484070634418,0.4456611172377201,-3.3531353588696895,21.351999999955297
312777.6967,-0.7008996098574211,-6.470104220871019,2.146550746944441,-3.333621201043265,21.352999999944586
312777.6977,0.6346545472598024,-6.696688487634582,3.9010271468304882,-3.2277305033464687,21.353999999992084
312777.6987,2.0045129226793374,-6.775930946791647,5.730260432483182,-2.983080420050251,21.354999999981374
312777.6997,3.4334437383614773,-6.657897077722623,7.641165113192915,-2.560296044695617,21.355999999970663
312777.7007,4.932136339183268,-6.307547227872158,9.624414958712752,-1.935979786979734,21.356999999959953
312777.7017,6.495919737427385,-5.706858564316509,11.654088602222275,-1.1041631054008458,21.357999999949243
312777.7027,8.10509508143148,-4.855422225563139,13.688989916298365,-0.07615667458933277,21.35899999999674
312777.7037,9.726818615056317,-3.7695368687258815,15.675526200851072,1.1211325546423163,21.35999999998603
312777.7047,11.318319708567605,-2.4799585248761327,17.55187687057108,2.4482055080722644,21.36099999997532
312777.7057,12.831108920265436,-1.0285864054499827,19.253060183535727,3.8569637292173677,21.36199999996461
312777.7067,14.215736417642947,0.5355461552732383,20.71641777171756,5.295271512864088,21.3629999999539
312777.7077,15.426610595000177,2.1605551938510734,21.886994900923035,6.7116238649304325,21.364000000001397
312777.7087,16.426385158592876,3.7958349422793765,22.72230267352305,8.059458427522777,21.364999999990687
312777.7097,17.189470280632264,5.395636809063818,23.196006139623982,9.30069663838908,21.365999999979977
312777.7107,17.704314814382276,6.9217757363511305,23.300184073508333,10.408186862135976,21.366999999969266
312777.7117,17.97423285143193,8.345244118496844,23.045942307042573,11.36684102453254,21.367999999958556
312777.7127,18.016696497265727,9.646636170830513,22.462319946888577,12.17339435680627,21.368999999947846
312777.7137,17.8611728554687,10.815415389758735,21.59359139244525,12.834861323597663,21.369999999995343
312777.7147,17.545731312815274,11.848181271032638,20.49522102559471,13.365895295751194,21.370999999984633
312777.7157,17.11277256012147,12.746196212960845,19.228856853244235,13.785371602806574,21.371999999973923
312777.7167,16.604320862871273,13.5125089739257,17.856841676775318,14.112592089383512,21.372999999963213
312777.7177,16.05736689362982,14.149049668473634,16.43676653799486,14.363546408057697,21.373999999952503
312777.7187,15.49974532859901,14.654069355680324,15.016586715297366,14.547657366476464,21.375
312777.7197,14.94697963018797,15.020255243002286,13.630765812262428,14.665385590368402,21.37599999998929
312777.7207,14.400431075588605,15.233774958146146,12.297813797577389,14.706977892378253,21.37699999997858
312777.7217,13.846959593878088,15.274398437643645,11.019449923335127,14.652523291454553,21.37799999996787
312777.7227,13.260153208736094,15.11672475915257,9.78146442291938,14.473342844236587,21.37899999995716
312777.7237,12.60302585921842,14.732416401858021,8.556189079758054,14.134598329019086,21.37999999994645
312777.7247,11.83193573843836,14.093228034002383,7.306332115867826,13.598874720230231,21.380999999993946
312777.7257,10.901352777509025,13.174523117675093,5.98980238904202,12.830385569281978,21.381999999983236
312777.7267,9.769016839511574,11.958909304680684,4.565054203594322,11.79937969417467,21.382999999972526
312777.7277,8.400986271701745,10.439599466746445,2.996436065773696,10.486299272383134,21.383999999961816
312777.7287,6.7760838846451055,8.623122036988823,1.2590288560366862,8.885256554133637,21.384999999951106
312777.7297,4.889303450730055,6.531060708332154,-0.6574893920003648,7.00645740837556,21.385999999998603
312777.7307,2.7538388575790247,4.200593937900953,-2.7463190220504554,4.877298793051965,21.386999999987893
312777.7317,0.4015302414082519,1.6837201237385748,-4.9825911378634204,2.541994184726732,21.387999999977183
312777.7327,-2.118326408487488,-0.9548168778006856,-7.324081533810628,0.05972334509138438,21.388999999966472
312777.7337,-4.741702684269692,-3.640758098344778,-9.713512551578262,-2.4985536929994923,21.389999999955762
312777.7347,-7.393844509481625,-6.2944555815936685,-12.082219955802247,-5.054348243775566,21.390999999945052
312777.7357,-9.994191497197326,-8.835542670642873,-14.354836132471256,-7.526585997003794,21.39199999999255
312777.7367,-12.46175439668031,-11.187739545168316,-16.454550626487208,-9.83679995759231,21.39299999998184
312777.7377,-14.72045763071871,-13.283368066185844,-18.308462629954906,-11.914107963512382,21.39399999997113
312777.7387,-16.70396437543588,-15.06717521235439,-19.852541472601647,-13.699531484437852,21.39499999996042
312777.7397,-18.359559683690147,-16.49912958681336,-21.035759644026317,-15.149278102680402,21.39599999994971
312777.7407,-19.65076669744188,-17.555954294275292,-21.82305294667185,-16.236712853695682,21.396999999997206
312777.7417,-20.558501777192166,-18.231282160335063,-22.196884534804372,-16.952873146199938,21.397999999986496
312777.7427,-21.080723030408016,-18.534453556488806,-22.15733125944663,-17.30552529329268,21.398999999975786
312777.7437,-21.230678118611753,-18.488109538031573,-21.720757533457444,-17.316903379964067,21.399999999965075
312777.7447,-21.033996002799594,-18.124850246379715,-20.917279117559204,-17.020398935326803,21.400999999954365
312777.7457,-20.524979398931915,-17.48331867998766,-19.787333175108472,-16.456569823218533,21.402000000001863
312777.7467,-19.742528833549756,-16.604123767330034,-18.377750466524148,-15.66889884013438,21.402999999991152
312777.7477,-18.726157850924103,-15.526028551182481,-16.737763007954175,-14.69975042915354,21.403999999980442
312777.7487,-17.512539277821386,-14.28279777153452,-14.915372530988618,-13.586945821077713,21.404999999969732
312777.7497,-16.132956552431086,-12.901027126573753,-12.954452862556801,-12.36130556089336,21.405999999959022
312777.7507,-14.61192872295077,-11.399171001013384,-10.892868549434459,-11.045400893712587,21.40699999994831
312777.7517,-12.96714359954501,-9.78785690162062,-8.761772196616032,-9.653622664052817,21.40799999999581
312777.7527,-11.21068443467532,-8.07143605673499,-6.586106499169379,-8.19353162982406,21.4089999999851
312777.7537,-9.351386727328302,-6.250584586539149,-4.386197921833658,-6.668312098447957,21.40999999997439
312777.7547,-7.398028665591789,-4.325652059299575,-2.1802017928261055,-5.080026078048007,21.41099999996368
312777.7557,-5.362955225270335,-2.300366232906894,0.012943548417577524,-3.4332706058763205,21.411999999952968
312777.7567,-3.2656730419218287,-0.18545363340241633,2.170462214747293,-1.7387865620660554,21.413000000000466
312777.7577,-1.1359379004504002,1.9982691338055703,4.263017770959147,-0.016559167140634122,21.413999999989755
312777.7587,0.9841086269246581,4.217737632514701,6.252730955457149,1.7020099930519819,21.414999999979045
312777.7597,3.0391148371060592,6.426736640914678,8.09228020574876,3.3731954036503438,21.415999999968335
312777.7607,4.961246267693545,8.566455465545012,9.72532169289774,4.9415195114061135,21.416999999957625
312777.7617,6.672553564550292,10.567563563901368,11.088331905899583,6.341872673889729,21.417999999946915
312777.7627,8.088904697290932,12.353716912363273,12.113826804856306,7.503092071443513,21.418999999994412
312777.7637,9.125242066079412,13.846258437931429,12.734761813831915,8.352756845717881,21.419999999983702
312777.7647,9.701779318972743,14.96974759944646,12.889781369079342,8.822822317568983,21.42099999997299
312777.7657,9.75063904173655,15.657857604829239,12.528879127649788,8.855614445213169,21.42199999996228
312777.7667,9.222362492239128,15.859123638682671,11.618961508718078,8.409647199343027,21.42299999995157
312777.7677,8.091703816538324,15.542017837685346,10.14878558298159,7.464716705328476,21.42399999999907
312777.7687,6.362156522429996,14.69886810984254,8.13277063156277,6.025768592807657,21.42499999998836
312777.7697,4.068747142375709,13.348225121721537,5.613259387466269,4.125125864564229,21.42599999997765
312777.7707,1.27876283311757,11.53540736752074,2.660923810060573,1.8227959848003252,21.426999999966938
312777.7717,-1.909755288495686,9.331106979651997,-0.6268391229467873,-0.7952638929810378,21.427999999956228
312777.7727,-5.371737626551936,6.828104978531349,-4.129507197302212,-3.620870103819813,21.428999999945518
312777.7737,-8.960829220212718,4.136308764688923,-7.708842095601314,-6.529097739958628,21.429999999993015
312777.7747,-12.516778311900119,1.3764716766995837,-11.215762801392149,-9.385146461747457,21.430999999982305
312777.7757,-15.873957515611842,-1.3269292731344149,-14.49820707275868,-12.05208210225463,21.431999999971595
312777.7767,-18.870407236376096,-3.8531066618422662,-17.409413716104275,-14.398869645438339,21.432999999960884
312777.7777,-21.35674559967529,-6.092089966414917,-19.816016038140056,-16.308084502093976,21.433999999950174
312777.7787,-23.20429999730445,-7.951014921311754,-21.605347390265422,-17.682714131514672,21.43499999999767
312777.7797,-24.311881394841393,-9.359096684155253,-22.691422413694735,-18.451538728611503,21.43599999998696
312777.7807,-24.610737632881285,-10.270924321767934,-23.019166860468065,-18.57270089336599,21.43699999997625
312777.7817,-24.06737542960361,-10.667861129571257,-22.56661477740953,-18.035228766354162,21.43799999996554
312777.7827,-22.68411848914628,-10.557499908987001,-21.344961055688263,-16.858450814920648,21.43899999995483
312777.7837,-20.49745471220018,-9.971289305282223,-19.396534369935722,-15.089417320506088,21.44000000000233
312777.7847,-17.57440206252232,-8.96060125309103,-16.79092417196902,-12.798607460046737,21.440999999991618
312777.7857,-14.00727424704995,-7.5916364012451805,-13.619640331048016,-10.074336819959578,21.441999999980908
312777.7867,-9.907340625021117,-5.939652656912207,-9.989792206156862,-7.016376080869202,21.442999999970198
312777.7877,-5.397940072006013,-4.083044000410578,-6.017335935450153,-3.729339186446164,21.443999999959487
312777.7887,-0.607620972334294,-2.097789230232726,-1.8204495326089067,-0.31639492509859174,21.444999999948777
312777.7897,4.336160700059868,-0.052734798088850385,2.4864450850260282,3.126199160925783,21.445999999996275
312777.7907,9.312340878125623,1.9939215512093194,6.797580909443347,6.513341131358211,21.446999999985565
312777.7917,14.21022544921281,3.9967089981324193,11.019357351653493,9.773841542687151,21.447999999974854
312777.7927,18.93197760828439,5.923434736053367,15.072304847379629,12.851581543920533,21.448999999964144
312777.7937,23.39360417503356,7.754271624389879,18.89150104107726,15.705120643677066,21.449999999953434
312777.7947,27.52458260560348,9.479588260505148,22.425589024851046,18.305952248194025,21.45100000000093
312777.7957,31.26640069833755,11.096845302124175,25.63467923300941,20.635730132585945,21.45199999999022
312777.7967,34.570376938349696,12.606964557514162,28.487514369872525,22.6828777246853,21.45299999997951
312777.7977,37.395182195974726,14.010617235599147,30.958332218899027,24.439036410606757,21.4539999999688
312777.7987,39.704488744501994,15.304871593398149,33.02386975432551,25.895805463521455,21.45499999995809
312777.7997,41.46513083822902,16.480589388045967,34.6609138336814,27.042175898232266,21.45599999994738
312777.8007,42.646077721045415,17.5208707880891,35.844723766512175,27.862969437247255,21.456999999994878
312777.8017,43.21840444669916,18.400728270581624,36.54853825511061,28.33847171520919,21.457999999984168
312777.8027,43.15631101452192,19.088033895112805,36.74424580353413,28.445308712305046,21.458999999973457
312777.8037,42.439100678084216,19.545645150387358,36.40415783704476,28.158471744714046,21.459999999962747
312777.8047,41.053898883508616,19.734486449028307,35.50369209584894,27.454263929104275,21.460999999952037
312777.8057,38.99878902132981,19.61725922539848,34.02466400210515,26.313833410420163,21.461999999999534
312777.8067,36.285971372906516,19.162383906680876,31.958806926509126,24.72688674240848,21.462999999988824
312777.8077,32.94452495199505,18.347748706911627,29.311106402314213,22.695146918301862,21.463999999978114
312777.8087,29.022371570700276,17.163855982093377,26.102541913120024,20.235137569836844,21.464999999967404
312777.8097,24.587105790055357,15.616015085848064,22.37188190651693,17.379936042895086,21.465999999956694
312777.8107,19.725457203958822,13.725325322743224,18.176267703021292,14.179637213402184,21.466999999945983
312777.8117,14.5412824888431,11.528314094178798,13.59044064780849,10.70039699216683,21.46799999999348
312777.8127,9.15213057711463,9.075231354909764,8.704601942314424,7.022066622911875,21.46899999998277
312777.8137,3.6845702665189006,6.42713826119627,3.621032172843487,3.2345717074272664,21.46999999997206
312777.8147,-1.7313995108175961,3.6520515102935325,-1.5502765568410355,-0.5666810999030489,21.47099999996135
312777.8157,-6.9684343685339565,0.8205027471235005,-6.696621785877359,-4.285984745222854,21.47199999995064
312777.8167,-11.907939215205547,-1.9990655065556195,-11.707805051482573,-7.832650201156378,21.472999999998137
312777.8177,-16.44567241832337,-4.74462616208854,-16.481115488074963,-11.125992710781029,21.473999999987427
312777.8187,-20.49639206154343,-7.36419967197741,-20.925659670901016,-14.099542084577415,21.474999999976717
312777.8197,-23.997156872179197,-9.818442694770587,-24.96567855740144,-16.704103746254972,21.475999999966007
312777.8207,-26.909013590590362,-12.081947231124586,-28.542592838420216,-18.90940521032606,21.476999999955297
312777.8217,-29.216949724579873,-14.143133159766606,-31.615645004354743,-20.704197647933963,21.477999999944586
312777.8227,-30.92815150154911,-16.00275920971338,-34.16114710745759,-22.094830856124318,21.478999999992084
312777.8237,-32.06876555796595,-17.6712184243849,-36.17048321408748,-23.102467536857834,21.479999999981374
312777.8247,-32.67950365277754,-19.164909906799316,-37.647140489347436,-23.759234573688385,21.480999999970663
312777.8257,-32.81053820770829,-20.502076280403923,-38.60313974442514,-24.103711703019997,21.481999999959953
312777.8267,-32.51620153763889,-21.69855573183251,-39.05529483849892,-24.17622115767807,21.482999999949243
312777.8277,-31.850016193161146,-22.76391229770218,-39.021744092820946,-24.01439892286407,21.48399999999674
312777.8287,-30.86054578188507,-23.69837616622932,-38.519163865503224,-23.649497143954434,21.48499999998603
312777.8297,-29.58846805724691,-24.490949747578984,-37.56099741504206,-23.10379069840042,21.48599999997532
312777.8307,-28.06514302339878,-25.1189220884812,-36.156918435578376,-22.389346271304884,21.48699999996461
312777.8317,-26.31279060106352,-25.548894588127244,-34.31360931467106,-21.50827059575327,21.4879999999539
312777.8327,-24.34622041533306,-25.739268373093765,-32.036783167990606,-20.454399761258994,21.489000000001397
312777.8337,-22.17588749866265,-25.643993009946108,-29.334231397720703,-19.216239016159587,21.489999999990687
312777.8347,-19.811899111734494,-25.217242368912903,-26.219550169303265,-17.780827579150525,21.490999999979977
312777.8357,-17.268484730279592,-24.41857982673766,-22.716103456704435,-16.138099335230397,21.491999999969266
312777.8367,-14.568375561658574,-23.218112241265715,-18.860727817871027,-14.285248676987475,21.492999999958556
312777.8377,-11.746529322996698,-21.601117011727922,-14.706681362513878,-12.230597882270608,21.493999999947846
312777.8387,-8.852682752808217,-19.571661264566767,-10.325388162368718,-9.99650027805748,21.494999999995343
312777.8397,-5.95231518998681,-17.154814165669595,-5.80662624306518,-7.620899038036915,21.495999999984633
312777.8407,-3.1257529463971165,-14.397175340652362,-1.2569440637137643,-5.157287081121209,21.496999999973923
312777.8417,-0.4653229395133802,-11.365593225220506,3.2037452942522493,-2.6729674470794422,21.497999999963213
312777.8427,1.929341430840868,-8.144112812489956,7.447266435483831,-0.24568108448870998,21.498999999952503
312777.8437,3.9575472959521263,-4.8293571015620245,11.34368263873544,2.041165949522557,21.5
312777.8447,5.5248766257581,-1.524694910542749,14.76874693199333,4.104297401280457,21.50099999998929
312777.8457,6.551009501309611,1.6663346208708305,17.611740112536612,5.866891955175894,21.50199999997858
312777.8467,6.977356833764379,4.646794936711151,19.78306602573282,7.264877798298295,21.50299999996787
312777.8477,6.773802281245244,7.332750429821949,21.220963291541374,8.25261871067801,21.50399999995716
312777.8487,5.94389622561313,9.658744580599095,21.89673925226297,8.807450843478069,21.50499999994645
312777.8497,4.527949089886883,11.581888577201369,21.818033109901133,8.93261782264855,21.505999999993946
312777.8507,2.603628733098634,13.084210721778955,21.029762789262463,8.658284007978791,21.506999999983236
312777.8517,0.283863867032359,14.173068702219334,19.612591371860166,8.040469747028087,21.507999999972526
312777.8527,-2.2879247027409866,14.879596694219746,17.67894813348439,7.157933300056071,21.508999999961816
312777.8537,-4.945020054260871,15.255331486882556,15.366838663220452,6.107205113463724,21.509999999951106
312777.8547,-7.50658076238068,15.367320434143924,12.83186049959102,4.996144529806582,21.510999999998603
312777.8557,-9.788164941654198,15.292144385917565,10.237988970788377,3.936521581969303,21.511999999987893
312777.8567,-11.612862306115735,15.109378920430352,7.747799276928021,3.0362149090113935,21.512999999977183
312777.8577,-12.822229980384204,14.895059091943839,5.512836350045289,2.391652840526945,21.513999999966472
312777.8587,-13.286234751212318,14.715703023478072,3.6648297761200777,2.0811049968684574,21.514999999955762
312777.8597,-12.911477683520618,14.623389409707126,2.3083785656217106,2.1593582095981727,21.515999999945052
312777.8607,-11.647110088723606,14.652279489415761,1.5156065550394031,2.6541900560346035,21.51699999999255
312777.8617,-9.48803095526727,14.816835567088829,1.3231250407914832,3.564897051166863,21.51799999998184
312777.8627,-6.475169138478772,15.111829099385401,1.7314497351549265,4.8629570557273984,21.51899999997113
312777.8637,-2.6928801275826157,15.51406692535283,2.706821261804527,6.494723142555469,21.51999999996042
312777.8647,1.7362926748054737,15.98560996984657,4.1851896885289275,8.38587575068541,21.52099999994971
312777.8657,6.65904743589335,16.478129100291486,6.0779604598392485,10.447216929979875,21.521999999997206
312777.8667,11.900346334145569,16.937949653497064,8.278975389222003,12.581287604200115,21.522999999986496
312777.8677,17.273334143538783,17.311287705008343,10.672128108263719,14.68923491079159,21.523999999975786
312777.8687,22.589418448721727,17.549181245024332,13.138993838643849,16.67735593970126,21.524999999965075
312777.8697,27.667802130229546,17.611667122982197,15.565888699695012,18.46279564073159,21.525999999954365
312777.8707,32.34384252465124,17.470844388590265,17.84985905515085,19.977974408749898,21.527000000001863
312777.8717,36.47574453908619,17.112586927993505,19.903227168494983,21.173454673567107,21.527999999991152
312777.8727,39.949263191796405,16.536810460334824,21.656472642231943,22.019112207450675,21.528999999980442
312777.8737,42.68027787188222,15.756346634226011,23.059394462064233,22.503641357657532,21.529999999969732
312777.8747,44.61528811665397,14.794615413588698,24.08065988848625,22.632578124888457,21.530999999959022
312777.8757,45.73005144350666,13.682402549935667,24.705988665988794,22.425156175837497,21.53199999994831
312777.8767,46.026722454271145,12.45413053638506,24.935331040054958,21.910406287816922,21.53299999999581
312777.8777,45.529947365588676,11.144051395875298,24.779466350155605,21.122960886542927,21.5339999999851
312777.8787,44.28241228286982,9.782784601575322,24.256470316239295,20.099028278949433,21.53499999997439
312777.8797,42.34033514920563,8.39457454882048,23.388473147472745,18.872956778520255,21.53599999996368
312777.8807,39.769333886398364,6.9955548820322475,22.199061597570036,17.474722756785322,21.536999999952968
312777.8817,36.64100514873565,5.5931910180858395,20.71157461272114,15.928558415218108,21.538000000000466
312777.8827,33.03042154614651,4.1869396243270085,18.948416104156497,14.252797526318934,21.538999999989755
312777.8837,29.014614917020435,2.770028417087685,16.931373524403035,12.460875084977854,21.539999999979045
312777.8847,24.671974972656248,1.3321354475658853,14.68280186150703,10.563284581935383,21.540999999968335
312777.8857,20.08237146171431,-0.137353179040826,12.227423072040926,8.570188102494708,21.541999999957625
312777.8867,15.327716771031426,-1.645894160767725,9.594412315274944,6.4943007450977,21.542999999946915
312777.8877,10.492633938642282,-3.194558366235979,6.819402731147606,4.353639364555241,21.543999999994412
312777.8887,5.664887329753877,-4.775415963195483,3.9460438729189127,2.1737394066805225,21.544999999983702
312777.8897,0.9352697631241295,-6.369868133291044,1.026794685468747,-0.01099901874457208,21.54599999997299
312777.8907,-3.6032841001292635,-7.9481621358451315,-1.877284902626053,-2.157079793495278,21.54699999996228
312777.8917,-7.8574818197565115,-9.470204517445142,-4.697868049909772,-4.212915704115638,21.54799999995157
312777.8927,-11.736353795229727,-10.887651772785649,-7.361816776020204,-6.121053931240834,21.54899999999907
312777.8937,-15.154701055050838,-12.147122527335531,-9.794624310671601,-7.82146875225353,21.54999999998836
312777.8947,-18.037063152725494,-13.194254136468093,-11.92458878989221,-9.255644320589537,21.55099999997765
312777.8957,-20.321865796263072,-13.978231916260293,-13.687366957302673,-10.371073515677075,21.551999999966938
312777.8967,-21.965349892472773,-14.45636085969565,-15.030494904147757,-11.125739192817214,21.552999999956228
312777.8977,-22.944868368557408,-14.598233861817635,-15.917442758673149,-11.492128258257532,21.553999999945518
312777.8987,-23.261167194827234,-14.389079150171678,-16.33079439898685,-11.460358990849983,21.554999999993015
312777.8997,-22.939340407147714,-13.83194031197967,-16.27420997263231,-11.040075421373626,21.555999999982305
312777.9007,-22.028258919281917,-12.948448328031823,-15.772932150472078,-10.260872447437722,21.556999999971595
312777.9017,-20.5984088664522,-11.778076104548571,-14.872726744640456,-9.171151059450219,21.557999999960884
312777.9027,-18.738223594637137,-10.37590932898603,-13.63729192045652,-7.835451260357377,21.558999999950174
312777.9037,-16.549139165877367,-8.809108974791586,-12.144313555828562,-6.3304563082441545,21.55999999999767
312777.9047,-14.13973138231484,-7.152366471634487,-10.480473081444128,-4.739991239069359,21.56099999998696
312777.9057,-11.619389404240765,-5.48274997351706,-8.735815442949285,-3.149438246310202,21.56199999997625
312777.9067,-9.09203656342489,-3.874399571190008,-6.9979483732170085,-1.6400512818779416,21.56299999996554
312777.9077,-6.650416503043101,-2.393544691198355,-5.346563335610214,-0.2836659605400712,21.56399999995483
312777.9087,-4.371420583427225,-1.0942865986262647,-3.848741033501081,0.8617332187107183,21.56500000000233
312777.9097,-2.312843792609232,-0.015515664041115373,-2.555432603534661,1.755205182563073,21.565999999991618
312777.9107,-0.5118290729996766,0.82077611115423,-1.4993982250465823,2.374537197373793,21.566999999980908
312777.9117,1.014894168941162,1.4096613160274847,-0.694748323854825,2.7162978941935685,21.567999999970198
312777.9127,2.269037953320253,1.761942829895912,-0.13808198234690747,2.794288760455649,21.568999999959487
312777.9137,3.267273156563262,1.9014843291067205,0.18893281923427352,2.6365766257513257,21.569999999948777
312777.9147,4.036602548189744,1.8614991900178555,0.3158273158908166,2.281424254345871,21.570999999996275
312777.9157,4.609064693339034,1.6801906415421803,0.27884507469454617,1.7725398940042607,21.571999999985565
312777.9167,5.016308436738461,1.3961964223024044,0.11616443564227376,1.1541292165732822,21.572999999974854
312777.9177,5.284590630372549,1.0443066468259976,-0.13668321265410324,0.466248203894046,21.573999999964144
312777.9187,5.430709347590104,0.651892386104664,-0.45073836136557904,-0.2590785063564442,21.574999999953434
312777.9197,5.459294335444742,0.23640750891608142,-0.8064914362145177,-1.0005893670155108,21.57600000000093
312777.9207,5.361744071467981,-0.19578517107592638,-1.195433262357892,-1.7491017378279243,21.57699999999022
312777.9217,5.116936825875178,-0.6491495763923397,-1.6201344117845187,-2.5072910512589393,21.57799999997951
312777.9227,4.693666887780568,-1.1373093955194458,-2.092861502539736,-3.287970588484394,21.5789999999688
312777.9237,4.054583434238677,-1.6801608052244528,-2.6328896392924994,-4.1110642517691005,21.57999999995809
312777.9247,3.1612551706786114,-2.3000768574426025,-3.2628059273592647,-4.999601624753168,21.58099999994738
312777.9257,1.9798639277517411,-3.017614879533756,-4.0042058971812144,-5.975169607894095,21.581999999994878
312777.9267,0.4869567840815245,-3.847197173093915,-4.8732520446264385,-7.053317336370821,21.582999999984168
312777.9277,-1.3253334107241834,-4.793247491850058,-5.876584641621683,-8.239424351318187,21.583999999973457
312777.9287,-3.4451525141940036,-5.847229469423846,-7.008047120047526,-9.525504277496314,21.584999999962747
312777.9297,-5.83833770200978,-6.98595133608515,-8.246614047711002,-10.888330705225975,21.585999999952037
312777.9307,-8.447705540212826,-8.171381390070719,-9.555795903362787,-12.289146425933957,21.586999999999534
312777.9317,-11.194373928098674,-9.352072060790672,-10.884652306201556,-13.675063448395948,21.587999999988824
312777.9327,-13.981089954478263,-10.466131047570462,-12.170387705220106,-14.982094006663873,21.588999999978114
312777.9337,-16.69734933483741,-11.445521370334085,-13.342345972587012,-16.139588202671234,21.589999999967404
312777.9347,-19.225924271510067,-12.221333576013441,-14.327078150138608,-17.07570806155937,21.590999999956694
312777.9357,-21.450281306183058,-12.729566580729598,-15.054044668906041,-17.72345503226543,21.591999999945983
312777.9367,-23.26228192913685,-12.916889542876,-15.461440884033143,-18.02669971267239,21.59299999999348
312777.9377,-24.56952495626846,-12.745842602612413,-15.501610131483615,-17.945646023883718,21.59399999998277
312777.9387,-25.301714399944867,-12.198971430345681,-15.145534588817233,-17.46119951029187,21.59499999997206
312777.9397,-25.415517648082787,-11.281476483786983,-14.385969060872307,-16.577798044962517,21.59599999996135
312777.9407,-24.897508801251497,-10.022085129381106,-13.238899797599398,-15.324395180744306,21.59699999995064
312777.9417,-23.76495893384768,-8.47201173890979,-11.743158899870139,-13.753449682103575,21.597999999998137
312777.9427,-22.064423275108126,-6.702042958954828,-9.958191007240163,-11.937954264147518,21.598999999987427
312777.9437,-19.868267259721758,-4.7979564170853095,-7.960137215315152,-9.966715433926579,21.599999999976717
312777.9447,-17.26945114470388,-2.8546349830859277,-5.836555634420263,-7.9382576771892825,21.600999999966007
312777.9457,-14.375039873951572,-0.9693606805936168,-3.6802239585516308,-5.9538537113555,21.601999999955297
312777.9467,-11.299007506158556,0.7651492695520292,-1.5825547581240127,-4.11026581817254,21.602999999944586
312777.9477,-8.1549544898342,2.267374612651128,0.37280936501745277,-2.4928133007890163,21.603999999992084
312777.9487,-5.049347219968347,3.4727295573598718,2.115669791743763,-1.1693548373564742,21.604999999981374
312777.9497,-2.075824046850597,4.337921124212886,3.5937315196909965,-0.18569422745634667,21.605999999970663
312777.9507,0.6890029684489264,4.843566577459466,4.775477269753833,0.4372088177277618,21.606999999959953
312777.9517,3.1879742216515172,4.9948637254300685,5.651231696500316,0.7040027486555577,21.607999999949243
312777.9527,5.383936271064835,4.820281682552048,6.232358559537604,0.6436441509832307,21.60899999999674
312777.9537,7.258504415280176,4.368415474894704,6.548705473942639,0.3061783881799237,21.60999999998603
312777.9547,8.80928533801105,3.703309243271935,6.644570805784703,-0.24208515283765564,21.61099999997532
312777.9557,10.045952679669327,2.8986848021927507,6.573600215118324,-0.9245504054650984,21.61199999996461
312777.9567,10.985668389008165,2.0316028647986006,6.393113700828275,-1.660915950036607,21.6129999999539
312777.9577,11.648391715244026,1.1761252604608174,6.158409039141725,-2.3737676253836213,21.614000000001397
312777.9587,12.05261144388304,0.3975346138458754,5.917580182164634,-2.9946010219749115,21.614999999990687
312777.9597,12.211976607574849,-0.2523950916577286,5.707330508412702,-3.468757533590062,21.615999999979977
312777.9607,12.133192855153611,-0.7386913671945193,5.550156755991925,-3.758869815707255,21.616999999969266
312777.9617,11.81540701570188,-1.0447955189537423,5.4531403351861405,-3.8465606439823854,21.617999999958556
312777.9627,11.251135772652116,-1.1724123798117556,5.408422160730718,-3.7323088393251544,21.618999999947846
312777.9637,10.428622499591096,-1.1396820819370839,5.395270814408354,-3.43357075808334,21.619999999995343
312777.9647,9.335346417920888,-0.9779139546738373,5.3834978709219365,-2.981409126257124,21.620999999984633
312777.9657,7.962276336741826,-0.727252365995254,5.337843633335224,-2.416017277309839,21.621999999973923
312777.9667,6.308370600361649,-0.43173634176248643,5.222863833606293,-1.7816234196062868,21.622999999963213
312777.9677,4.384784739404219,-0.13426084436556915,5.007801834465614,-1.1213076299771316,21.623999999952503
312777.9687,2.218263009815678,0.12805610110065724,4.670935738830659,-0.4722598083304881,21.625
312777.9697,-0.14674152815718716,0.3276486531735621,4.20294484715109,0.13804910343685375,21.62599999998929
312777.9707,-2.647557788988072,0.44906443035167976,3.6089395270133022,0.6944117162863956,21.62699999997858
312777.9717,-5.204585224618131,0.4900841770447706,2.9089329081002266,1.1949101477374773,21.62799999996787
312777.9727,-7.7243926797574884,0.4613212672828716,2.1366887031725827,1.6503467540938532,21.62899999995716
312777.9737,-10.104460487775137,0.384377233557414,1.3370416594943813,2.082166693413769,21.62999999994645
312777.9747,-12.239231462061094,0.28877473328524383,0.561939881463689,2.5191126674818376,21.630999999993946
312777.9757,-14.026997757875098,0.20801094604181525,-0.13441328576581968,2.992980174196446,21.631999999983236
312777.9767,-15.377054212101127,0.17516059520637034,-0.700848388890674,3.533931862651077,21.632999999972526
312777.9777,-16.216504432854553,0.21850039375169888,-1.0944344197404858,4.165873474655022,21.633999999961816
312777.9787,-16.4961183936516,0.3576218179746046,-1.2850869961626195,4.902387320098708,21.634999999951106
312777.9797,-16.19470895797624,0.6004474811802819,-1.259121726111845,5.743663177195659,21.635999999998603
312777.9807,-15.32161361335311,0.9414733640409941,-1.0213919870432562,6.674766698018761,21.636999999987893
312777.9817,-13.917025907644991,1.3614341625543473,-0.5957828679335619,7.66545187530954,21.637999999977183
312777.9827,-12.050104046874315,1.8284445593875025,-0.023987547276515715,8.671570201704384,21.638999999966472
312777.9837,-9.81497484145214,2.3005197100023076,0.6373459956150925,9.637970092283203,21.639999999955762
312777.9847,-7.324931935808203,2.7292385158422,1.320856860942938,10.502631651327661,21.640999999945052
312777.9857,-4.705281247320389,3.0641971729055437,1.9537305585684146,11.201658539766207,21.64199999999255
312777.9867,-2.0853995771740017,3.257819492724528,2.463510054752727,11.674662589223963,21.64299999998184
312777.9877,0.40936581304028075,3.2700525392826276,2.783942558429578,11.870036232803624,21.64399999997113
312777.9887,2.6653235690674006,3.072484863483984,2.8603447065617664,11.749616569057022,21.64499999996042
312777.9897,4.587008621833631,2.651479058458186,2.6540160990684574,11.292301845274695,21.64599999994971
312777.9907,6.102216795359163,2.010004987803553,2.145322141818357,10.496280489320585,21.646999999997206
312777.9917,7.165166765019216,1.1679853746787596,1.3351927431280648,9.379664542220697,21.647999999986496
312777.9927,7.757622121787506,0.16110899710424803,0.24493115753696626,7.979470326478324,21.648999999975786
312777.9937,7.887986302514639,-0.9617857215202504,-1.085617275707308,6.349044503927436,21.649999999965075
312777.9947,7.588556423914712,-2.142516968586699,-2.601338650962823,4.554178099290555,21.650999999954365
312777.9957,6.911272465228567,-3.3182029273094265,-4.23624184510192,2.668270566101547,21.652000000001863
312777.9967,5.92241216110998,-4.426311598907579,-5.918550106972198,0.7669891176238557,21.652999999991152
312777.9977,4.696749597872476,-5.409650819764835,-7.57602399974886,-1.0770923859634212,21.653999999980442
312777.9987,3.3117117915426486,-6.220842281166404,-9.141041583604823,-2.799398985984889,21.654999999969732
312777.9997,1.8420325600850638,-6.825877633262926,-10.555002157319938,-4.347382774175031,21.655999999959022
312778.0007,0.35532193730999456,-7.206447489752753,-11.77170101484802,-5.683345860137778,21.65699999994831
312778.0017,-1.0911481825180536,-7.360855798692603,-12.75943557918853,-6.785854394769486,21.65799999999581
312778.0027,-2.4522825205897147,-7.303470258784387,-13.5017359712856,-7.649681084854895,21.6589999999851
312778.0037,-3.695614840383827,-7.062800345409078,-13.996751779199066,-8.284357660525151,21.65999999997439
312778.0047,-4.800506563017022,-6.678424033672246,-14.25545735655324,-8.711551159145817,21.66099999996368
312778.0057,-5.756344753172896,-6.197089707395994,-14.298947309269142,-8.96158556719898,21.661999999952968
312778.0067,-6.560080320449721,-5.668390813450053,-14.155171225953728,-9.069502879956605,21.663000000000466
312778.0077,-7.213493582364819,-5.140440910718782,-13.855494929276365,-9.071088254806428,21.663999999989755
312778.0087,-7.720575702045494,-4.655963428369436,-13.43147149738687,-8.999270247536279,21.664999999979045
312778.0097,-8.085372171804057,-4.249155665185244,-12.912160387634934,-8.88125127699396,21.665999999968335
312778.0107,-8.310554282644992,-3.9435964923812015,-12.322252802664106,-8.736631894714785,21.666999999957625
312778.0117,-8.39687613481143,-3.7513515559961506,-11.681155212949802,-8.576675170107892,21.667999999946915
312778.0127,-8.343550784813434,-3.673300717046406,-11.003062567038283,-8.404727109964652,21.668999999994412
312778.0137,-8.149453659695203,-3.700583479152567,-10.297931435141368,-8.217679325736786,21.669999999983702
312778.0147,-7.814948469314136,-3.8169425718950256,-9.573154382012426,-8.008244777029576,21.67099999997299
312778.0157,-7.3440431080850574,-4.001655540904421,-8.835652092585574,-7.767728418532357,21.67199999996228
312778.0167,-6.746530274698229,-4.232688321809034,-8.09404839363613,-7.488921229695731,21.67299999995157
312778.0177,-6.039755778924069,-4.489688926931544,-7.3605809637412545,-7.168733953980861,21.67399999999907
312778.0187,-5.249688375693974,-4.7564649862147474,-6.6524286827834,-6.810217179996377,21.67499999998836
312778.0197,-4.411035536247462,-5.022653115137805,-5.9922024160092695,-6.423684024223186,21.67599999997765
312778.0207,-3.5662526481065706,-5.284384111903708,-5.407442716290257,-6.026753411736257,21.676999999966938
312778.0217,-2.763418022002316,-5.543865709932439,-4.929085305802848,-5.643255236331597,21.677999999956228
312778.0227,-2.0530796287761848,-5.807931661665747,-4.588980826929021,-5.301070665123976,21.678999999945518
312778.0237,-1.484307436352026,-6.085728916903377,-4.41667577654728,-5.029107683660191,21.679999999993015
312778.0247,-1.1002936407991193,-6.385820518673484,-4.43576365548899,-4.853720191546765,21.680999999982305
312778.0257,-0.9339198090554611,-6.713059148907044,-4.660187766524038,-4.794956834592868,21.681999999971595
312778.0267,-1.003745801440689,-7.0656263954075005,-5.09091124398109,-4.863064513260982,21.682999999960884
312778.0277,-1.3108651258521458,-7.432630858278445,-5.71336103710569,-5.055666205092737,21.683999999950174
312778.0287,-1.8370144723919626,-7.79261347889217,-6.496000252152359,-5.355982841170319,21.68499999999767
312778.0297,-2.5442256933024185,-8.113224625074807,-7.390291466666345,-5.732378454464404,21.68599999998696
312778.0307,-3.3761749489232007,-8.352222219912607,-8.332190446323539,-6.139384824471481,21.68699999997625
312778.0317,-4.26122831565211,-8.459804613860397,-9.245166565166828,-6.520217967228444,21.68799999996554
312778.0327,-5.117020553168772,-8.382149310937095,-10.044596876348068,-6.810647990236142,21.68899999995483
312778.0337,-5.8562497832553335,-8.065893400114748,-10.643239873385022,-6.943940968142048,21.69000000000233
312778.0347,-6.393240945583993,-7.463177521635187,-10.9573766976112,-6.856471045910608,21.690999999991618
312778.0357,-6.650738514429787,-6.536794513242161,-10.913124151898161,-6.493515480668404,21.691999999980908
312778.0367,-6.566344207382344,-5.264945591527844,-10.452384483924668,-5.814704151633015,21.692999999970198
312778.0377,-6.0980240272521335,-3.6451161019823712,-9.537906509229717,-4.798603408970659,21.693999999959487
312778.0387,-5.228171648600865,-1.6966400416277483,-8.156991600507371,-3.445972480896019,21.694999999948777
312778.0397,-3.965827387076078,0.5383764297205206,-6.32348196049745,-1.781334654874008,21.695999999996275
312778.0407,-2.3468044135034405,2.995965911406623,-4.07780861322982,0.1473537522930185,21.696999999985565
312778.0417,-0.431653104958817,5.5930789017077815,-1.4850402900818056,2.270988554304687,21.697999999974854
312778.0427,1.6984157310012489,8.232096570498573,1.3689529881313796,4.503434630544532,21.698999999964144
312778.0437,3.9473450443395386,10.806781124187136,4.382942206440255,6.7471849697010775,21.699999999953434
312778.0447,6.211320423715958,13.20922844623055,7.446964894540871,8.900127543556295,21.70100000000093
312778.0457,8.386551021125268,15.33728402543634,10.449603974142322,10.862877628559103,21.70199999999022
312778.0467,10.377090645065849,17.10182540743826,13.285328852608265,12.546072138997562,21.70299999997951
312778.0477,12.102035652612638,18.433308669561963,15.861298805807898,13.877014786262194,21.7039999999688
312778.0487,13.50148421896381,19.287024112803735,18.103073283547598,14.805107776853609,21.70499999995809
312778.0497,14.54074515001868,19.646603943354847,19.95876814799878,15.305603580844295,21.70599999994738
312778.0507,15.2124346285432,19.525464001744563,21.401332687396724,15.38135056794441,21.706999999994878
312778.0517,15.536282764448151,18.966030511770093,22.42878732411396,15.06237656966363,21.707999999984168
312778.0527,15.556672021920317,18.036786489586547,23.06244129220919,14.403339406299619,21.708999999973457
312778.0537,15.338128372456678,16.82735457506606,23.34328685809883,13.479056431189521,21.709999999962747
312778.0547,14.959165300232378,15.441997401308708,23.326925710355845,12.378489650365557,21.710999999952037
312778.0557,14.505024253267488,13.99204856029874,23.07750941951156,11.197694115588334,21.711999999999534
312778.0567,14.059949763093986,12.587875038076577,22.661257850244073,10.032323269714112,21.712999999988824
312778.0577,13.699674717507033,11.331007971184846,22.140149673916763,8.970318110091505,21.713999999978114
312778.0587,13.484767924658476,10.307059713387975,21.566355045314275,8.085384651949362,21.714999999967404
312778.0597,13.4554144936578,9.579973461687262,20.97790447549381,7.431788547824303,21.715999999956694
312778.0607,13.628067370599931,9.188033805496273,20.3959671649159,7.040874051247466,21.716999999945983
312778.0617,13.994237924805649,9.141913391549163,19.823957902696918,6.919558188451145,21.71799999999348
312778.0627,14.521500554636852,9.424856405468114,19.248518503318635,7.050874515920373,21.71899999998277
312778.0637,15.15658863410534,9.994919528923017,18.642243774225864,7.3964604381787655,21.71999999997206
312778.0647,15.830274832838368,10.789021550947565,17.967859527988846,7.900714213661895,21.72099999996135
312778.0657,16.46357463725536,11.728408861648434,17.18342619502181,8.496207658488746,21.72199999995064
312778.0667,16.97470159939416,12.72503809021259,16.248048463520206,9.109840632301719,21.722999999998137
312778.0677,17.286146086319793,13.68831797665129,15.12752751802292,9.669172267477535,21.723999999987427
312778.0687,17.331250692800385,14.531644569686792,13.799401672460206,10.108365559237557,21.724999999976717
312778.0697,17.059714159955153,15.178206608267855,12.256882319752364,10.37323536903824,21.725999999966007
312778.0707,16.441565424244487,15.565626347925411,10.51129911114658,10.424989256762451,21.726999999955297
312778.0717,15.469299393518043,15.649125829870535,8.592810820642129,10.242385733300946,21.727999999944586
312778.0727,14.15804163264834,15.403057093882625,6.549302837050215,9.822192121769387,21.728999999992084
312778.0737,12.543793496536715,14.820792505819593,4.443563055913083,9.177988861530968,21.729999999981374
312778.0747,10.679984872716922,13.913122990300954,2.348989000181071,8.337522918517685,21.730999999970663
312778.0757,8.632712101523154,12.705443164109711,0.3442151840653253,7.338945145998556,21.731999999959953
312778.0767,6.475149920648902,11.23410102250833,-1.4928516014346556,6.2263625981129715,21.732999999949243
312778.0777,4.2816884198520295,9.542347191076162,-3.091049268880669,5.045188200562519,21.73399999999674
312778.0787,2.122353809451214,7.676330275403403,-4.391488788911986,3.837772559558642,21.73499999998603
312778.0797,0.058025421672537006,5.681550580270887,-5.352102632302942,2.639756622413236,21.73599999997532
312778.0807,-1.863133851293509,3.6001090402808535,-5.950817097469504,1.4774947325829724,21.73699999996461
312778.0817,-3.607750454883677,1.4689802664581786,-6.187083371417989,0.3667748949376835,21.7379999999539
312778.0827,-5.157692158024827,-0.6805900197583495,-6.081656305102191,-0.6870804318496377,21.739000000001397
312778.0837,-6.508942786204823,-2.822598465575113,-5.674672112580106,-1.6877992287465031,21.739999999990687
312778.0847,-7.669103382941411,-4.934871982079577,-5.022230900021489,-2.645637043321338,21.740999999979977
312778.0857,-8.65385973293313,-6.99700097640575,-4.191822351459144,-3.574069841087072,21.741999999969266
312778.0867,-9.482855261429611,-8.98796429982847,-3.257030613909552,-4.486107866565477,21.742999999958556
312778.0877,-10.175460633314184,-10.883827979169574,-2.2920085201302562,-5.390674292396317,21.743999999947846
312778.0887,-10.746932047158673,-12.655892054456144,-1.366217211653714,-6.28948388355847,21.744999999995343
312778.0897,-11.205399594296518,-14.269609520060943,-0.5398852064857262,-7.174802341769992,21.745999999984633
312778.0907,-11.55003062908263,-15.68451373888104,0.13944405448099098,-8.028372122339903,21.746999999973923
312778.0917,-11.770580971604444,-16.85527494367366,0.6390260036081127,-8.821665122938525,21.747999999963213
312778.0927,-11.848392618798405,-17.73387469875911,0.9415802027860318,-9.51747962758019,21.748999999952503
312778.0937,-11.758736363870653,-18.272753350228434,1.0445445134634261,-10.07275295514608,21.75
312778.0947,-11.474247820475291,-18.42866375502773,0.9580950645560621,-10.442327444563267,21.75099999998929
312778.0957,-10.969081276579722,-18.16686804294317,0.7022264391742543,-10.58329955655952,21.75199999997858
312778.0967,-10.223320424262585,-17.46525346665855,0.30327051213288025,-10.459511247799831,21.75299999996787
312778.0977,-9.227147292951127,-16.317925612948745,-0.20972526344378561,-10.045716912693932,21.75399999995716
312778.0987,-7.984284821020667,-14.737865158994985,-0.8083424053858921,-9.330981127927151,21.75499999994645
312778.0997,-6.514293371095692,-12.758306117068878,-1.4674887309487967,-8.320930389879623,21.755999999993946
312778.1007,-4.853410927875279,-10.432602795649812,-2.1671651922008377,-7.038589557470946,21.756999999983236
312778.1017,-3.053769981624463,-7.83248930560318,-2.893135396789926,-5.523670316098531,21.757999999972526
312778.1027,-1.1809869880833477,-5.0447862420338865,-3.6364646064489934,-3.8303311674492324,21.758999999961816
312778.1037,0.6897134706141538,-2.1667594359278204,-4.392031509737546,-2.023581056649573,21.759999999951106
312778.1047,2.4785248493234757,0.6995295198197532,-5.156240872211702,-0.17463643853097063,21.760999999998603
312778.1057,4.106796201237495,3.4534355159384993,-5.924264865397509,1.6443496080306437,21.761999999987893
312778.1067,5.50295990257502,6.001993737788639,-6.6872046099042075,3.365698879041407,21.762999999977183
312778.1077,6.6080963304312235,8.265705232830951,-7.42958406425555,4.931251451730832,21.763999999966472
312778.1087,7.380604387115005,10.183345590674918,-8.127563117692912,6.2965609100217215,21.764999999955762
312778.1097,7.799521351334686,11.715376805528996,-8.748187624488633,7.433837570495667,21.765999999945052
312778.1107,7.866155801543771,12.84566176672091,-9.249887755543863,8.333352725575237,21.76699999999255
312778.1117,7.6038519346890805,13.581329942452165,-9.584302992430837,9.003163158587652,21.76799999998184
312778.1127,7.055877676065956,13.950807773073779,-9.699365802790737,9.467176673001052,21.76899999997113
312778.1137,6.281605721875951,14.000192508045622,-9.54343152114069,9.761740361939054,21.76999999996042
312778.1147,5.351318903121376,13.788297998378967,-9.070114262734263,9.931078023061572,21.77099999994971
312778.1157,4.340103172318478,13.380820975914503,-8.243391380259816,10.022017211519014,21.771999999997206
312778.1167,3.3213801526070554,12.844155083752558,-7.042482721814171,10.078518563310713,21.772999999986496
312778.1177,2.3606677805625518,12.239409760034992,-5.466002476886496,10.136542914442376,21.773999999975786
312778.1187,1.510138382145957,11.617169081029337,-3.534922735003109,10.219762876367998,21.774999999965075
312778.1197,0.8044702149676728,11.013453863684697,-1.2939761337211075,10.336547438945722,21.775999999954365
312778.1207,0.25836800761554035,10.447235510701727,1.1887474343184095,10.478528198618577,21.777000000001863
312778.1217,-0.1340281755349214,9.919703168898769,3.8240996899022806,10.620905387256826,21.777999999991152
312778.1227,-0.39780336173182484,9.415320742127426,6.505989246245231,10.724485424370982,21.778999999980442
312778.1237,-0.5741357364699692,8.904542839601271,9.11706780162351,10.739275229527644,21.779999999969732
312778.1247,-0.7156778933359211,8.34790472740161,11.535593698591043,10.609308032882401,21.780999999959022
312778.1257,-0.88089448816249,7.701075323210972,13.642963762682303,10.278255397143518,21.78199999994831
312778.1267,-1.1278945668455451,6.920376032821856,15.331332572502859,9.695302165746535,21.78299999999581
312778.1277,-1.5083402939240413,5.968229708256966,16.510717548980363,8.820732581604448,21.7839999999851
312778.1287,-2.0620017240634567,4.818016535573008,17.115020946008944,7.630699612521531,21.78499999997439
312778.1297,-2.8124610611213363,3.45787564891665,17.10648343092214,6.12072328450063,21.78599999996368
312778.1307,-3.7643561998959227,1.8930963968571988,16.478211129954,4.3075804828700095,21.786999999952968
312778.1317,-4.902403472713798,0.14688104092790424,15.254577345890253,2.229397056106803,21.788000000000466
312778.1327,-6.192268117475916,-1.7405822400515045,13.489477166509428,-0.05608103890197695,21.788999999989755
312778.1337,-7.583174755929905,-3.714636064674726,11.262591741444009,-2.474893200943321,21.789999999979045
312778.1347,-9.011986213076502,-5.710010692715438,8.673982841154263,-4.941648519577288,21.790999999968335
312778.1357,-10.40834312329602,-7.655647536325448,5.837472557429721,-7.365266573685754,21.791999999957625
312778.1367,-11.700361927123966,-9.480029392971474,2.8733556041404578,-9.655168013562765,21.792999999946915
312778.1377,-12.820343944842403,-11.116516280108543,-0.09896547778995213,-11.727372112876342,21.793999999994412
312778.1387,-13.709957155522744,-12.508193345794407,-2.9678422195696545,-13.509973560145434,21.794999999983702
312778.1397,-14.324413742528849,-13.611792386992882,-5.635221104272699,-14.94753520279523,21.79599999997299
312778.1407,-14.63527387365388,-14.400345125479799,-8.021052300397908,-16.004040675737155,21.79699999996228
312778.1417,-14.631648574299208,-14.864354683467717,-10.065996639584963,-16.664190193416808,21.79799999995157
312778.1427,-14.319737562642437,-15.011418794091677,-11.732323515892444,-16.932980603905094,21.79899999999907
312778.1437,-13.720805243858045,-14.864389596003333,-13.003059884732284,-16.833671771471188,21.79999999998836
312778.1447,-12.867853077106927,-14.458295545856053,-13.879607390793167,-16.404389968985807,21.80099999997765
312778.1457,-11.801373915613228,-13.836367365926597,-14.378176205062347,-15.693741045242742,21.801999999966938
312778.1467,-10.564661168295464,-13.04559085756159,-14.52547835428335,-14.75589019200599,21.802999999956228
312778.1477,-9.19918426010502,-12.13224725749614,-14.354171870757392,-13.64560345809339,21.803999999945518
312778.1487,-7.740528241473014,-11.137893281748264,-13.898546166221948,-12.413735531531946,21.804999999993015
312778.1497,-6.21533106458967,-10.096179355964706,-13.190889658256607,-11.103590307756857,21.805999999982305
312778.1507,-4.639543572982527,-9.030811458091605,-12.258888556218796,-9.748481554488237,21.806999999971595
312778.1517,-3.0181955689749764,-7.954839022125939,-11.124280647104563,-8.370690717595977,21.807999999960884
312778.1527,-1.3466906388553215,-6.871310877202394,-9.802842824394954,-6.981870695793958,21.808999999950174
312778.1537,0.3865111821791299,-5.775197287982411,-8.3056407253474,-5.584793026909085,21.80999999999767
312778.1547,2.196113940001262,-4.656343160702449,-6.641328322969827,-4.1761963828866735,21.81099999998696
312778.1557,4.095522063590762,-3.503108602649791,-4.819168706770476,-2.7503803387266594,21.81199999997625
312778.1567,6.092185668463998,-2.3062790843568153,-2.8523661743349393,-1.303111268038883,21.81299999996554
312778.1577,8.183279520782502,-1.0627958166882916,-0.7612621596048904,0.16462551747292964,21.81399999995483
312778.1587,10.35221900139089,0.22112917437160842,1.4240428875043445,1.6434784390161221,21.81500000000233
312778.1597,12.566443971200473,1.5278906677606934,3.662023802901398,3.1135772774921984,21.815999999991618
312778.1607,14.776784532466692,2.827641161929647,5.899307004504624,4.543664909986327,21.816999999980908
312778.1617,16.9185723412125,4.078869595529367,8.07164732109294,5.891671161908461,21.817999999970198
312778.1627,18.914491724669766,5.23041925269456,10.106318340940426,7.106738362247944,21.818999999959487
312778.1637,20.678992719654115,6.2248099966546855,11.925779939169415,8.132557096414578,21.819999999948777
312778.1647,22.12392998297315,7.002594927770419,13.452348438602556,8.911731775012047,21.820999999996275
312778.1657,23.164962814560464,7.507370956497521,14.613481625714217,9.390782721733448,21.821999999985565
312778.1667,23.72816503127801,7.690987558851562,15.347214022386968,9.52531579377653,21.822999999974854
312778.1677,23.756257917153693,7.518465709491188,15.607245323882792,9.28485977388891,21.823999999964144
312778.1687,23.213898901485738,6.972153124906857,15.367200372918694,8.656889278698548,21.824999999953434
312778.1697,22.09153168704014,6.054701505023157,14.623641408394972,7.649615415668971,21.82600000000093
312778.1707,20.407423830750652,4.790551077890105,13.397516994331626,6.293232043139669,21.82699999999022
312778.1717,18.20767428105959,3.2257382080050787,11.733867350603404,4.63944239724088,21.82799999997951
312778.1727,15.564151589967555,1.4259909155580925,9.699760008282993,2.759246136699876,21.8289999999688
312778.1737,12.570506786897925,-0.5267691594523778,7.380588149053775,0.739125786124809,21.82999999995809
312778.1747,9.336576007701494,-2.539256036904377,4.8750115404215855,-1.3240810149281106,21.83099999994738
312778.1757,5.981630785356894,-4.51259733346734,2.2889425229858373,-3.329215219115871,21.831999999994878
312778.1767,2.627034938230405,-6.3485928633772195,-0.27093470962998795,-5.177243237852205,21.832999999984168
312778.1777,-0.6110833109180211,-7.95594341272342,-2.703582507745635,-6.77758500577604,21.833999999973457
312778.1787,-3.6285416639422463,-9.255943547745645,-4.919444923591792,-8.053801285893433,21.834999999962747
312778.1797,-6.338655870681938,-10.187182969868001,-6.845234934221586,-8.94817648437479,21.835999999952037
312778.1807,-8.676204086105576,-10.70889290789375,-8.427307926502849,-9.42483411013924,21.836999999999534
312778.1817,-10.599523777607438,-10.802698422239793,-9.633387672927718,-9.471155841873196,21.837999999988824
312778.1827,-12.090635828985741,-10.472682297007939,-10.452563490161133,-9.097429119032082,21.838999999978114
312778.1837,-13.153472631257477,-9.743817521522962,-10.893635528329227,-8.334807511702085,21.839999999967404
312778.1847,-13.81045956339107,-8.658968775440023,-10.98203404352398,-7.2318176343028115,21.840999999956694
312778.1857,-14.09784597227538,-7.2747852513304325,-10.755663880076385,-5.849771848620031,21.841999999945983
312778.1867,-14.060288731540737,-5.656896174516349,-10.260115392475196,-4.257535644421373,21.84299999999348
312778.1877,-13.745248741840491,-3.8748683919249842,-9.543729307948594,-2.526144122164146,21.84399999998277
312778.1887,-13.197763212073086,-1.997388341118755,-8.653001485637551,-0.7237595005844194,21.84499999997206
312778.1897,-12.45610443107374,-0.08808895996086133,-7.628764741248223,1.0885881904665546,21.84599999996135
312778.1907,-11.548734489239754,1.7976395763643007,-6.503494038575301,2.860126700060036,21.84699999995064
312778.1917,-10.492825269258873,3.6146293378200145,-5.299957636060619,4.55210692499479,21.847999999998137
312778.1927,-9.294447962373813,5.328610894655123,-4.031292619663698,6.138125386978275,21.848999999987427
312778.1937,-7.950362718177926,6.915631437559286,-2.7024330118805198,7.603070320538517,21.849999999976717
312778.1947,-6.451173908006208,8.360390388527044,-1.3126772375540436,8.940897482155048,21.850999999966007
312778.1957,-4.7854760765265905,9.653777521362205,0.14093683064438117,10.151557972767026,21.851999999955297
312778.1967,-2.9445136872717845,10.789975946013628,1.6598649811350434,11.237481674309636,21.852999999944586
312778.1977,-0.926824124526937,11.763529976043733,3.2403546935064518,12.200058436061877,21.853999999992084
312778.1987,1.2576667989320047,12.566772343925926,4.870258893147204,13.036551331242562,21.854999999981374
312778.1997,3.5845745262663824,13.187957315677034,6.526763865582937,13.737823228662798,21.855999999970663
312778.2007,6.013387413370199,13.610361160578773,8.175336198827633,14.287165223746454,21.856999999959953
312778.2017,8.487438439595048,13.812498114457767,9.770068172392964,14.660392752893044,21.857999999949243
312778.2027,10.935592333126078,13.769470271911466,11.255456188328877,14.827235078864696,21.85899999999674
312778.2037,13.27555279330721,13.455337265646302,12.569497108952524,14.753900617324755,21.85999999998603
312778.2047,15.418532637836481,12.84626996080068,13.647847716727522,14.406568903311422,21.86099999997532
312778.2057,17.274892519199835,11.924154442241964,14.428676967287332,13.755453327369922,21.86199999996461
312778.2067,18.760254702407188,10.680248661754202,14.857760930015786,12.779008044550583,21.8629999999539
312778.2077,19.801546850252517,9.118471173795161,14.893334444180686,11.467825008780204,21.864000000001397
312778.2087,20.342431693282762,7.257922226400519,14.510225372055721,9.82778590650558,21.864999999990687
312778.2097,20.347631583007278,5.134300467509313,13.702855999083997,7.882097219223854,21.865999999979977
312778.2107,19.805756853426487,2.7999777822296994,12.486796081887324,5.671938627329087,21.866999999969266
312778.2117,18.730383723378967,0.3226207027131415,10.898683661427857,3.2555855099152557,21.867999999958556
312778.2127,17.159287700536645,-2.2176129099395707,8.994480290728045,0.7060125606181883,21.868999999947846
312778.2137,15.151906447561075,-4.732132487373058,6.846182149649622,-1.8928669006333214,21.869999999995343
312778.2147,12.785265556563202,-7.128932074877893,4.537252577896348,-4.4510370753673305,21.870999999984633
312778.2157,10.148736334910561,-9.31816887756274,2.157160849735178,-6.877894783346564,21.871999999973923
312778.2167,7.338093689612023,-11.21784124548284,-0.2045050306643833,-9.08797663227933,21.872999999963213
312778.2177,4.449395380827003,-12.759083259791073,-2.4638451202970595,-11.006405361033293,21.873999999952503
312778.2187,1.573206753404237,-13.890617777239815,-4.5478769072296,-12.57358346510858,21.875
312778.2197,-1.2103520038226745,-14.581978243140824,-6.398746599724465,-13.748728327204462,21.87599999998929
312778.2207,-3.8353506297504483,-14.825215512098055,-7.9765793690241376,-14.511947949155621,21.87699999997858
312778.2217,-6.252326637590944,-14.634939355747118,-9.260754991911904,-14.864689876488006,21.87799999996787
312778.2227,-8.428985645629389,-14.046692607327762,-10.24954378903418,-14.82854509609074,21.87899999995716
312778.2237,-10.349368850461333,-13.113804837589273,-10.958190771375712,-14.442539128728988,21.87999999994645
312778.2247,-12.011678947300755,-11.90300782553824,-11.415678656594178,-13.759179694719093,21.880999999993946
312778.2257,-13.425079417419992,-10.489203931133023,-11.660519163335445,-12.839640998966495,21.881999999983236
312778.2267,-14.60587074755659,-8.949850411643569,-11.736005441927126,-11.748538281814891,21.882999999972526
312778.2277,-15.573492539466775,-7.359450946644017,-11.685398900468092,-10.548775892601041,21.883999999961816
312778.2287,-16.346798784708362,-5.78462759137289,-11.547517564479492,-9.296935167526055,21.884999999951106
312778.2297,-16.94100579564677,-4.280184000339145,-11.353141590676495,-8.039606804878101,21.885999999998603
312778.2307,-17.365624035126874,-2.8864702879924486,-11.122560220692671,-6.810972561112698,21.886999999987893
312778.2317,-17.62356606456635,-1.628231240081949,-10.864462761488664,-5.631812995249783,21.887999999977183
312778.2327,-17.711485765471487,-0.5149753826809159,-10.576236479796945,-4.50997443956042,21.888999999966472
312778.2337,-17.62126334333497,0.45724325771584023,-10.245590629979413,-3.442183594150196,21.889999999955762
312778.2347,-17.34242110496666,1.302871848233926,-9.853292497308711,-2.4169663952344447,21.890999999945052
312778.2357,-16.86515007183256,2.0430824813469575,-9.376691482582217,-1.4183219878489093,21.89199999999255
312778.2367,-16.18355800396403,2.7015931564214135,-8.793631589695961,-0.4297330044005516,21.89299999998184
312778.2377,-15.298722511328219,3.300535350585233,-8.086318435235968,0.561933466269507,21.89399999997113
312778.2387,-14.221151359439622,3.8568016772804383,-7.244717137898746,1.5630614932741542,21.89499999996042
312778.2397,-12.972313894700893,4.3792483051396776,-6.269110780398233,2.570824422171719,21.89599999994971
312778.2407,-11.585006315902671,4.867031221625697,-5.17153990065317,3.5718934606933996,21.896999999997206
312778.2417,-10.102439082687575,5.309232904637918,-3.9759622954960068,4.542460152833276,21.897999999986496
312778.2427,-8.576074084022899,5.685798962960898,-2.71710718181919,5.449577664237823,21.898999999975786
312778.2437,-7.062377828657933,5.969666656566842,-1.4381347757499006,6.253687326994446,21.899999999965075
312778.2447,-5.618780395283542,6.129842751332063,-0.18733773938160875,6.912072383848033,21.900999999954365
312778.2457,-4.299225173309729,6.135089375638082,0.9857780008825362,7.382882856477959,21.902000000001863
312778.2467,-3.1497512853137595,5.957813303851166,2.0346291166229036,7.629313807736752,21.902999999991152
312778.2477,-2.2045625752813356,5.577732690708388,2.91947846288232,7.623500205554936,21.903999999980442
312778.2487,-1.4830022285226148,4.984917816404872,3.610736537647357,7.349717102150541,21.904999999969732
312778.2497,-0.9877732361840874,4.181866560819085,4.0912924555269745,6.806541434640917,21.905999999959022
312778.2507,-0.7046292910322153,3.1843746131663226,4.3576239410684305,6.007734732025519,21.90699999994831
312778.2517,-0.6036193655977296,2.0210848105763755,4.419560389011128,4.981734115956973,21.90799999999581
312778.2527,-0.6418159810885598,0.7317369143144844,4.298711807031993,3.7697793926897845,21.9089999999851
312778.2537,-0.7673072222880155,-0.6357252892453246,4.025715471907562,2.4228426469282502,21.90999999997439
312778.2547,-0.9241009869958355,-2.028912214139947,3.6365772670437826,0.9976495700771706,21.91099999996368
312778.2557,-1.0574902773549777,-3.395241654768858,3.168483065074825,-0.4478237071444313,21.911999999952968
312778.2567,-1.1193710887967323,-4.686260593410075,2.6555168686536694,-1.8589379938643942,21.913000000000466
312778.2577,-1.0729961392298006,-5.86159638969482,2.1247400307077,-3.188609855535141,21.913999999989755
312778.2587,-0.8966900843133114,-6.892129915921131,1.5930573595984496,-4.400742264663873,21.914999999979045
312778.2597,-0.5861417919817311,-7.762056963649101,1.065223483285913,-5.4725234002295595,21.915999999968335
312778.2607,-0.15501878478656936,-8.46961296388776,0.5332331240956037,-6.395361359900773,21.916999999957625
312778.2617,0.36619382549976376,-9.026369183678232,-0.02279765310313311,-7.174358703176323,21.917999999946915
312778.2627,0.933057515924074,-9.455152999549147,-0.6323023830562767,-7.826378206837906,21.918999999994412
312778.2637,1.4915086368382133,-9.786786257914205,-1.3306796103694094,-8.376895332437037,21.919999999983702
312778.2647,1.9832648772564183,-10.055959917834254,-2.1547782166457266,-8.85595920755107,21.92099999997299
312778.2657,2.3518113277597514,-10.296657488223216,-3.137881891659295,-9.293679554160647,21.92199999996228
312778.2667,2.548400633294488,-10.537594386967065,-4.304685628414073,-9.715712007903697,21.92299999995157
312778.2677,2.5374877603347494,-10.798149236687792,-5.666773713412776,-10.139222623743676,21.92399999999907
312778.2687,2.301061114339853,-11.08522467873796,-7.219075792638024,-10.569772566225376,21.92499999998836
312778.2697,1.8414250812218929,-11.391392575928165,-8.937697595854459,-10.999479284360124,21.92599999997765
312778.2707,1.182126432696419,-11.694558911666094,-10.779402784121075,-11.406688588051297,21.926999999966938
312778.2717,0.36688600724927284,-11.959238407445245,-12.682873111581678,-11.757244445870727,21.927999999956228
312778.2727,-0.5434179465622222,-12.139371655311306,-14.571709574819618,-12.007284152637956,21.928999999945518
312778.2737,-1.475484718998577,-12.182463519081383,-16.358972998813748,-12.107331220337555,21.929999999993015
312778.2747,-2.349649385077315,-12.034685700974668,-17.952914249719424,-12.007322191157472,21.930999999982305
312778.2757,-3.0867389120934865,-11.646482125486685,-19.26342626343999,-11.662100141143263,21.931999999971595
312778.2767,-3.615117442247098,-10.9781536933312,-20.2086738581884,-11.036847501605562,21.932999999960884
312778.2777,-3.8772843224288436,-10.004885600401439,-20.721330484915924,-10.111920461944983,21.933999999950174
312778.2787,-3.83541935328667,-8.720717786741911,-20.753876636044343,-8.886588379962484,21.93499999999767
312778.2797,-3.4753568814608307,-7.14104432881742,-20.282490597163665,-7.381271113342507,21.93599999998696
312778.2807,-2.8086060472586283,-5.3033532678426045,-19.309181820303685,-5.637997122119923,21.93699999997625
312778.2817,-1.8722063951789318,-3.2660731177425157,-17.86196950348869,-3.7189637518364433,21.93799999996554
312778.2827,-0.72640036894957,-1.105561910996421,-15.993079947040842,-1.703253631579102,21.93899999995483
312778.2837,0.5497008070802732,1.0885565926967906,-13.775310107762644,0.31806849215692884,21.94000000000233
312778.2847,1.8641017478942363,3.2193527161429114,-11.296865391553485,2.248101927223614,21.940999999991618
312778.2857,3.1190542832041928,5.189368495236649,-8.655112259871844,3.9910029582841426,21.941999999980908
312778.2867,4.218729790742031,6.907655773692299,-5.949778467461299,5.45905250780748,21.942999999970198
312778.2877,5.07677953896311,8.296487947765728,-3.2761772825985642,6.579302019264137,21.943999999959487
312778.2887,5.62314200067871,9.297181641537529,-0.7190230308081712,7.299230325929302,21.944999999948777
312778.2897,5.80952569490059,9.874538192048263,1.6526551562037801,7.590924837018265,21.945999999996275
312778.2907,5.6131166381090685,10.019532180183255,3.789100500873749,7.453424944946693,21.946999999985565
312778.2917,5.03821946448968,9.750024561348452,5.66165713872999,6.913022751310233,21.947999999974854
312778.2927,4.115725630708098,9.109447414134664,7.262743885431597,6.021491626213132,21.948999999964144
312778.2937,2.900493625556167,8.163580414406615,8.604046859163812,4.852390705049689,21.949999999953434
312778.2947,1.4669070237826916,6.995700099166668,9.71316500867491,3.495757001479782,21.95100000000093
312778.2957,-0.09697000047607517,5.7005172975315554,10.629078605159096,2.051631572954435,21.95199999999022
312778.2967,-1.6961072742875614,4.377413863142918,11.396909821001875,0.6229600805168964,21.95299999997951
312778.2977,-3.23549887232036,3.123538827555535,12.062497691212334,-0.6915470192790871,21.9539999999688
312778.2987,-4.626828165154774,2.0273225256035086,12.667312523578511,-1.8040170677492253,21.95499999995809
312778.2997,-5.7942556940583865,1.162916083986873,13.244187529589041,-2.6429618392966576,21.95599999994738
312778.3007,-6.678876368212765,0.5859684787170057,13.814253220172692,-3.1573533928015243,21.956999999994878
312778.3017,-7.241530292775983,0.33102374683115665,14.385332351669383,-3.3189530858454956,21.957999999984168
312778.3027,-7.463814841622978,0.4106695464253624,14.95190266594543,-3.122777985649294,21.958999999973457
312778.3037,-7.3473183223611365,0.8164095960182153,15.496576188899317,-2.585755547413657,21.959999999962747
312778.3047,-6.911261030742112,1.52108152599297,15.992892930761284,-1.7437748779717348,21.960999999952037
312778.3057,-6.1888719136089625,2.482512287816924,16.409098117134825,-0.6474767216998268,21.961999999999534
312778.3067,-5.222935189243876,3.6480071288538753,16.712477955695604,0.6427774845380929,21.962999999988824
312778.3077,-4.061001581967322,4.959213496845011,16.873778339544987,2.0622629525983407,21.963999999978114
312778.3087,-2.7507684046333223,6.356892192754842,16.871228426210713,3.547074663182013,21.964999999967404
312778.3097,-1.3360917075839092,7.785164266086744,16.693736590496503,5.038677086988621,21.965999999956694
312778.3107,0.14599277292753776,9.194878779998499,16.342914992714196,6.487445151367792,21.966999999945983
312778.3117,1.666985539956701,10.545855038312625,15.833711862517818,7.854938159860216,21.96799999999348
312778.3127,3.2072671405791717,11.807881567834984,15.193575169458999,9.114786463638863,21.96899999998277
312778.3137,4.755113994300426,12.960489701286951,14.460223120994709,10.252215747695805,21.96999999997206
312778.3147,6.304575604111615,13.991648175583673,13.678240705811398,11.262371324511276,21.97099999996135
312778.3157,7.852525032855481,14.89563384450725,12.894842918125432,12.147721296518487,21.97199999995064
312778.3167,9.395282021347434,15.670411707223577,12.155232238385366,12.914901629876733,21.972999999998137
312778.3177,10.925251897132517,16.314897531971965,11.498021741151359,13.57141023887417,21.973999999987427
312778.3187,12.428019281979477,16.82647493781361,10.951191500936554,14.122557411792453,21.974999999976717
312778.3197,13.880284261585043,17.199096707992407,10.528995169777001,14.569037083998802,21.975999999966007
312778.3207,15.248935655194137,17.422222346018795,10.230140812571483,14.905402708182242,21.976999999955297
312778.3217,16.491431083325402,17.480739095445596,10.037444608606625,15.119621720642906,21.977999999944586
312778.3227,17.5575096976343,17.355893218585937,9.919010421066423,15.19375567473161,21.978999999992084
312778.3237,18.392115660653424,17.027135232639942,9.830837061480514,15.105682495410477,21.979999999981374
312778.3247,18.939274118704454,16.474670240009026,9.72061343580558,14.831656781624666,21.980999999970663
312778.3257,19.14655073992516,15.682414558493646,9.532343790443246,14.34940631455291,21.981999999959953
312778.3267,18.969652558536133,14.641002304255789,9.211362745769017,13.641398193172982,21.982999999949243
312778.3277,18.376699785675505,13.350466807929845,8.70926094098493,12.69788315245415,21.98399999999674
312778.3287,17.351718758461825,11.822244149583735,7.988250799572327,11.519344337331665,21.98499999998603
312778.3297,15.896973722632705,10.080207819084427,7.024557315475691,10.118035422298735,21.98599999997532
312778.3307,14.033863314093821,8.16053859564857,5.810515373129085,8.51838656718073,21.98699999996461
312778.3317,11.802245881355994,6.110352741141494,4.3551833684206045,6.756175733367631,21.9879999999539
312778.3327,9.258212491139648,3.985142495227346,2.683430056269468,4.876495122460349,21.989000000001397
312778.3337,6.470482104544611,1.8452122540476308,0.8336029740291182,2.9306742623002155,21.989999999990687
312778.3347,3.5157342598863806,-0.2485917179259751,-1.1459726235643555,0.9724388025217187,21.990999999979977
312778.3357,0.47330621643108506,-2.2394727590572745,-3.201299706264162,-0.9463250407379933,21.991999999969266
312778.3367,-2.580247774973937,-4.079160342784877,-5.277376558942038,-2.779776084950175,21.992999999958556
312778.3377,-5.57621533088735,-5.731827338206695,-7.322746795102958,-4.49185791953282,21.993999999947846
312778.3387,-8.45791270837345,-7.17703994057158,-9.29346783916662,-6.059170037357353,21.994999999995343
312778.3397,-11.183588279005146,-8.411410421618863,-11.156094318757624,-7.472643034276311,21.995999999984633
312778.3407,-13.727752888948432,-9.44873623078756,-12.889374967406924,-8.73780143098784,21.996999999973923
312778.3417,-16.080799704650815,-10.318547175443223,-14.484495038374627,-9.873533550461959,21.997999999963213
312778.3427,-18.246944967804286,-11.063132443983251,-15.943847655196778,-10.909435643785745,21.998999999952503
312778.3437,-20.240689889721605,-11.73326675257357,-17.278471858164018,-11.881942594994484,22.0
312778.3447,-22.08215605347254,-12.382985544645354,-18.50443682715892,-12.82958558715678,22.00099999998929
312778.3457,-23.791766924454855,-13.063860009928156,-19.638566489366347,-13.78781508279189,22.00199999997858
312778.3467,-25.3848240846539,-13.819283457078713,-20.69397465705123,-14.783885133456804,22.00299999996787
312778.3477,-26.866550455613698,-14.679294718737717,-21.67590996286243,-15.832305960033358,22.00399999995716
312778.3487,-28.22814091857666,-15.656429618413869,-22.57838874238518,-16.93133398263726,22.00499999994645
312778.3497,-29.444275597889,-16.743010546824987,-23.382024195317697,-18.060884780619382,22.005999999993946
312778.3507,-30.472420062356015,-17.910163782847494,-24.05334801710512,-19.182132066897424,22.006999999983236
312778.3517,-31.254071756970994,-19.10870506825253,-24.54577684594067,-20.238905727352854,22.007999999972526
312778.3527,-31.717928444253417,-20.271869642859055,-24.80221413761327,-21.16083815008107,22.008999999961816
312778.3537,-31.78476959495056,-21.319698551682787,-24.759114147271543,-21.868045765859293,22.009999999951106
312778.3547,-31.373673098046634,-22.164743752200668,-24.35168457845501,-22.27698726203858,22.010999999998603
312778.3557,-30.40905353751642,-22.718634257674786,-23.519782935780047,-22.307025174530217,22.011999999987893
312778.3567,-28.827917825128765,-22.89896548427409,-22.213980784898776,-21.887144562914045,22.012999999977183
312778.3577,-26.586698158090627,-22.63594163796431,-20.40123820714532,-20.962258414316718,22.013999999966472
312778.3587,-23.667044937210363,-21.878219453891806,-18.0696512800574,-19.498556906311066,22.014999999955762
312778.3597,-20.080041771797433,-20.59746922063244,-15.231806924631298,-17.487434445004386,22.015999999945052
312778.3607,-15.868433972706985,-18.791279535454123,-11.92639553813888,-14.947647588973153,22.01699999999255
312778.3617,-11.106629235209795,-16.48417540487283,-8.21788178635337,-11.925507672783736,22.01799999998184
312778.3627,-5.898419167892772,-13.726681869476606,-4.194203802044212,-8.493080277030906,22.01899999997113
312778.3637,-0.37256540873901955,-10.592532277978455,0.03735505752128225,-4.744534114780621,22.01999999996042
312778.3647,5.323423724436256,-7.174276316915152,4.355816086880043,-0.7909386931934448,22.02099999994971
312778.3657,11.030847553390084,-3.5776736991049733,8.633236652034823,3.2460611454299233,22.021999999997206
312778.3667,16.588110889799374,0.08464672333269614,12.74198865761375,7.241176718788935,22.022999999986496
312778.3677,21.839122430167624,3.699733899757779,16.56200373835611,11.072454655802439,22.023999999975786
312778.3687,26.641153262059966,7.160539242001637,19.987411673569017,14.627755079359368,22.024999999965075
312778.3697,30.871574886263996,10.371338964298525,22.93205706181148,17.810239506573758,22.025999999954365
312778.3707,34.43300704267726,13.251965051201553,25.333483721842306,20.542481816878933,22.027000000001863
312778.3717,37.25655651569645,15.740580067604162,27.15511646352311,22.768951363408412,22.027999999991152
312778.3727,39.30300423172604,17.794876060436987,28.386532335393632,24.456772712537514,22.028999999980442
312778.3737,40.5619823202019,19.39172925318006,29.041882726673204,25.594826437626562,22.029999999969732
312778.3747,41.049357753886504,20.52548530521856,29.15668778688447,26.191404416406606,22.030999999959022
312778.3757,40.803188184842,21.205170805514033,28.78336055867465,26.270756947855954,22.03199999994831
312778.3767,39.87872483029907,21.45101395012312,27.98591749568364,25.868956072605723,22.03299999999581
312778.3777,38.342996961037095,21.290703031888448,26.834385813803593,25.029541839302887,22.0339999999851
312778.3787,36.269517900644004,20.75581169258214,25.399422052008692,23.799412489576074,22.03499999997439
312778.3797,33.73360406524127,19.87877567481192,23.747610838325965,22.225367030544938,22.03599999996368
312778.3807,30.808702382117126,18.69072235753365,21.937823511356942,20.351615476029668,22.036999999952968
312778.3817,27.563988036514154,17.22034088270443,20.01889252885251,18.218448252591045,22.038000000000466
312778.3827,24.063338130998066,15.49384938265988,18.028712366879976,15.862114988777147,22.038999999989755
312778.3837,20.365623894332472,13.535980645930668,15.994725721812243,13.315818938463778,22.039999999979045
312778.3847,16.526111462239218,11.371782796266302,13.935610615243187,10.611601645276744,22.040999999968335
312778.3857,12.598634715187195,9.02893037850633,11.863863780556972,7.7827868492416545,22.041999999957625
312778.3867,8.638116199406099,6.540174374186146,9.788890340619536,4.866584104526421,22.042999999946915
312778.3877,4.702972739474135,3.945534303305065,7.720167510539008,1.9064283613226596,22.043999999994412
312778.3887,0.8569550085846344,1.2938546288740738,5.6700546956091635,-1.0463454202898717,22.044999999983702
312778.3897,-2.829966236225638,-1.3565904907484976,3.6558729375057433,-3.9318258106439212,22.04599999997299
312778.3907,-6.28194680901217,-3.938661548904461,1.7009675638488697,-6.682073831001654,22.04699999996228
312778.3917,-9.418987194541598,-6.378179319319782,-0.165410587354077,-9.22299098254121,22.04799999995157
312778.3927,-12.16000086266966,-8.596964697327452,-1.9094306564011994,-11.477452655084267,22.04899999999907
312778.3937,-14.427049480295512,-10.516906788784564,-3.4950966662917207,-13.369506899171935,22.04999999998836
312778.3947,-16.150414151904208,-12.064749212823001,-4.8875036113605645,-14.829308591596924,22.05099999997765
312778.3957,-17.27405431610166,-13.177188478605256,-6.056580930993322,-15.798359081498864,22.051999999966938
312778.3967,-17.7609311027388,-13.80582061611191,-6.980900524655299,-16.234562275575623,22.052999999956228
312778.3977,-17.59764829293824,-13.921459697459483,-7.651101423249926,-16.11659663443058,22.053999999945518
312778.3987,-16.797894984549355,-13.517386728768752,-8.072505247721102,-15.447140846214952,22.054999999993015
312778.3997,-15.404257721236988,-12.611167148075168,-8.266563976547097,-14.25457621998537,22.055999999982305
312778.4007,-13.488099037991402,-11.244792838531774,-8.270888050893692,-12.59291360637095,22.056999999971595
312778.4017,-11.147362398119686,-9.483049306566413,-8.137738246597337,-10.539845430089395,22.057999999960884
312778.4027,-8.502345204924657,-7.410166821935733,-7.931015849604291,-8.192989855624973,22.058999999950174
312778.4037,-5.689664855362601,-5.124970737859346,-7.721937628991128,-5.6645583747503245,22.05999999999767
312778.4047,-2.854810241664532,-2.7348857855276054,-7.583719837794022,-3.0748244427231577,22.06099999998696
312778.4057,-0.1438066552289954,-0.34925825293004736,-7.5857051790347825,-0.54488505029436,22.06199999997625
312778.4067,2.305387410497997,1.9274721546281026,-7.787437165768333,1.8107218526285143,22.06299999996554
312778.4077,4.371096444082458,4.002199172254145,-8.233210117817661,3.89096043849031,22.06399999995483
312778.4087,5.9551231446038075,5.798654499714162,-8.947597181837962,5.614248816859279,22.06500000000233
312778.4097,6.98836615143313,7.261547287312153,-9.932385025680006,6.922949582075717,22.065999999991618
312778.4107,7.434430524717929,8.35901489388589,-11.165228665268842,7.786053332604359,22.066999999980908
312778.4117,7.290965959347907,9.083209888988701,-12.600193687123374,8.199864657806335,22.067999999970198
312778.4127,6.588655411774784,9.449012724082882,-14.170189425413733,8.186671995198415,22.068999999959487
312778.4137,5.387970400493992,9.491024383461944,-15.79113067858088,7.791555410255885,22.069999999948777
312778.4147,3.7739911458354927,9.259143254368627,-17.367512827335563,7.077643808827398,22.070999999996275
312778.4157,1.8497435555269075,8.813151475058806,-18.798960048707297,6.1202609171673625,22.071999999985565
312778.4167,-0.27138283582533845,8.216816943917342,-19.987220421092548,5.000485970990185,22.072999999974854
312778.4177,-2.4735111919312045,7.5320506444324185,-20.84304307355732,3.7986928018513693,22.073999999964144
312778.4187,-4.645818753823716,6.8136421218158505,-21.29238465531721,2.5886169065517084,22.074999999953434
312778.4197,-6.689165398496179,6.105030776461495,-21.281453984655812,1.4324360526940838,22.07600000000093
312778.4207,-8.521332923354082,5.435463633050217,-20.780208809411043,0.3772426277237317,22.07699999999022
312778.4217,-10.080539804434915,4.8187518560242895,-19.784057129575043,-0.5468540673924807,22.07799999997951
312778.4227,-11.327063260516482,4.253681891029982,-18.31367436507724,-1.3269164003049363,22.0789999999688
312778.4237,-12.242977286221153,3.7259777303606656,-16.413011856333863,-1.965741410304632,22.07999999995809
312778.4247,-12.830185086651797,3.2115636323146113,-14.145726450086523,-2.4790327009792614,22.08099999994738
312778.4257,-13.107071187561766,2.6807556095029494,-11.590391031853361,-2.891540603096564,22.081999999994878
312778.4267,-13.104208993348703,2.1029264870028213,-8.83494004373402,-3.232617320663071,22.082999999984168
312778.4277,-12.85962401493005,1.4511509990842055,-5.970854038868018,-3.531675688917994,22.083999999973457
312778.4287,-12.414126284362377,0.706347540090742,-3.0875892320581113,-3.8140332881201378,22.084999999962747
312778.4297,-11.807187542634901,-0.13950957111387174,-0.2677125004508657,-4.097569330912956,22.085999999952037
312778.4307,-11.073754545210095,-1.0814350197699112,2.416885418984004,-4.390525911769076,22.086999999999534
312778.4317,-10.242268642674725,-2.1009325445150773,4.907446501579587,-4.690657788171722,22.087999999988824
312778.4327,-9.334016523360708,-3.1669997326846238,7.159361198280521,-4.9857887638200085,22.088999999978114
312778.4337,-8.36378272334734,-4.2385349168954765,9.141780878601567,-5.255682605826595,22.089999999967404
312778.4347,-7.34162700986504,-5.267902173254794,10.83600449756543,-5.474997200561323,22.090999999956694
312778.4357,-6.275483990654873,-6.2052937573991835,12.232935375263764,-5.616976145260948,22.091999999945983
312778.4367,-5.174190967710101,-7.003448682956664,13.329989153094235,-5.657453515508405,22.09299999999348
312778.4377,-4.050502288630816,-7.622249363469003,14.127877884923427,-5.578712898017015,22.09399999998277
312778.4387,-2.9236489905083523,-8.032728839492556,14.627693845312502,-5.372754362722089,22.09499999997206
312778.4397,-1.821051248632524,-8.220078012923205,14.828670504661009,-5.043581635223078,22.09599999996135
312778.4407,-0.7788830520729444,-8.185339909595314,14.726912194795625,-4.608220541691706,22.09699999995064
312778.4417,0.15868571433361048,-7.945606713368605,14.315267191520183,-4.096309066673321,22.097999999998137
312778.4427,0.9415977843349319,-7.532682539111878,13.584383284247812,-3.5482462817705556,22.098999999987427
312778.4437,1.517242717099904,-6.990326199360234,12.524844308734615,-3.0120373683180848,22.099999999976717
312778.4447,1.8347485740472407,-6.370328722185367,11.130155049906364,-2.5391100028134588,22.100999999966007
312778.4457,1.8498439402718783,-5.727796292154704,9.400233952964173,-2.1794896385548768,22.101999999955297
312778.4467,1.5298211782536126,-5.11608920673012,7.344999551141473,-1.9767963138445295,22.102999999944586
312778.4477,0.8580956471067692,-4.581903481997786,4.987605394177754,-1.9635557660390695,22.103999999992084
312778.4487,-0.16213027685523845,-4.160970317141424,2.366893327061924,-2.157299439354743,22.104999999981374
312778.4497,-1.5055257189891698,-3.874790802603432,-0.4613045764792651,-2.5578627897208928,22.105999999970663
312778.4507,-3.123931636768356,-3.728724648033678,-3.4242846149209014,-3.14618508355998,22.106999999959953
312778.4517,-4.94747982602762,-3.7116219255986693,-6.434148607257406,-3.8847766834891244,22.107999999949243
312778.4527,-6.887544105163384,-3.7970385350072404,-9.39102828589524,-4.719864717567193,22.10899999999674
312778.4537,-8.841368429284433,-3.945923764995191,-12.187692645774371,-5.585069948319579,22.10999999998603
312778.4547,-10.698058776477266,-4.11052679824548,-14.715232308377121,-6.406321849473586,22.11099999997532
312778.4557,-12.34549388115846,-4.239152050418014,-16.869398706550722,-7.1075994751582074,22.11199999996461
312778.4567,-13.677617139639006,-4.281312188468989,-18.557096792334335,-7.6170042594685965,22.1129999999539
312778.4577,-14.601527461401771,-4.1927903420156705,-19.70249627920639,-7.8726353517593735,22.114000000001397
312778.4587,-15.043795067089517,-3.940132913829253,-20.25224209911391,-7.827751986032452,22.114999999990687
312778.4597,-14.955488764703604,-3.5041503940676724,-20.179308996509207,-7.454769444992638,22.115999999979977
312778.4607,-14.315508572811233,-2.882100064582925,-19.48515251835337,-6.7477395112356096,22.116999999969266
312778.4617,-13.131961714602664,-2.0883518800533647,-18.19994942069026,-5.72310293337589,22.117999999958556
312778.4627,-11.441487463722645,-1.153484575532749,-16.380881747532595,-4.418657312544364,22.118999999947846
312778.4637,-9.306611350498052,-0.12190886873946681,-14.108585549149053,-2.890844050570322,22.119999999995343
312778.4647,-6.81137541627237,0.9517461457536772,-11.48204179373307,-1.2106073369995074,22.120999999984633
312778.4657,-4.055633022777142,2.007132217443843,-8.612318794713035,0.5417975606613312,22.121999999973923
312778.4667,-1.1485010869989187,2.983135729267439,-5.615670067757108,2.2825818641388915,22.122999999963213
312778.4677,1.7984798894573892,3.822817982271904,-2.6065401337169942,3.9302790539818484,22.123999999952503
