TimeStamp,ECR,FCR,ECU,FCU,time_index
312772.3437,-24.112476214311155,6.464393685714011,-47.109575267216364,-0.5697886682992249,16.0
312772.3447,-22.688294907679584,3.4906201662209893,-48.45742607127891,-2.2900920172798185,16.00099999998929
312772.3457,-21.31797355156459,-0.05103077826175103,-49.448292255960595,-4.521995095063879,16.00199999997858
312772.3467,-20.166039056751462,-4.13106013498678,-50.17510574410664,-7.2850063450218565,16.00299999996787
312772.3477,-19.375096913655984,-8.693832953415603,-50.724996934673904,-10.57194235328452,16.00399999995716
312772.3487,-19.05401521473459,-13.655520578418498,-51.17143313766322,-14.344813094484197,16.00499999994645
312772.3497,-19.2688034542685,-18.903849554069456,-51.56793844649632,-18.532704842403692,16.005999999993946
312772.3507,-20.03692221865811,-24.299912236197788,-51.94387524411049,-23.031988271406156,16.006999999983236
312772.3517,-21.325461122688374,-29.68212067871647,-52.30257791490012,-27.70899000501287,16.007999999972526
312772.3527,-23.053291781338956,-34.87219682607256,-52.621917646915634,-32.40506016845416,16.008999999961816
312772.3537,-25.096970785162945,-39.6829064180946,-52.85716301257421,-36.943765090465874,16.009999999951106
312772.3547,-27.299864391641815,-43.92707910297178,-52.94580396033836,-41.13975168442507,16.010999999998603
312772.3557,-29.4837181660267,-47.427328902870705,-52.813844756513866,-44.80868472665791,16.011999999987893
312772.3567,-31.461721284144904,-50.025809677891516,-52.38295855275905,-47.7775631724142,16.012999999977183
312772.3577,-33.05202907489114,-51.59331713380208,-51.57784197729272,-49.89468496827254,16.013999999966472
312772.3587,-34.09071242843018,-52.03708432789547,-50.33311605190531,-51.03855421477875,16.014999999955762
312772.3597,-34.44319410882449,-51.30670809906053,-48.59918739286526,-51.125107046194245,16.015999999945052
312772.3607,-34.01339721734983,-49.39778082117472,-46.34660294160805,-50.112765016611824,16.01699999999255
312772.3617,-32.750051316102194,-46.35297261841454,-43.568589473778864,-48.00499454292105,16.01799999998184
312772.3627,-30.649854233145852,-42.2604981090476,-40.28164949522527,-44.850242410521766,16.01899999997113
312772.3637,-27.75744783962639,-37.25009201030596,-36.52426973346003,-40.73931332969598,16.01999999996042
312772.3647,-24.16241036313588,-31.486793063326676,-32.353969230867534,-35.80043900498407,16.02099999994971
312772.3657,-19.993675288159015,-25.162981170694273,-27.84305487775063,-30.192443841633878,16.021999999997206
312772.3667,-15.41194158720983,-18.489217058034495,-23.07355038886878,-24.09652806502512,16.022999999986496
312772.3677,-10.600731981265893,-11.684490027019809,-18.131812193173584,-17.707256614791635,16.023999999975786
312772.3687,-5.756781901710709,-4.9664849859532545,-13.103339807378648,-11.22335837849564,16.024999999965075
312772.3697,-1.0804052443194838,1.4575628415164426,-8.068231834157348,-4.83890669585625,16.025999999954365
312772.3707,3.233606705841865,7.3989417944483,-3.0976396628373557,1.2646253426958594,16.027000000001863
312772.3717,7.004125445306403,12.694099033322807,1.7485587290689166,6.925052638553228,16.027999999991152
312772.3727,10.070587056446874,17.209605950216403,6.422787975603284,12.004659524696448,16.028999999980442
312772.3737,12.298531581352918,20.84536438305267,10.889575957554507,16.39376598737738,16.029999999969732
312772.3747,13.58379474279373,23.53609873278257,15.124323953294901,20.01270396961016,16.030999999959022
312772.3757,13.855476081032815,25.251294221911518,19.11134487807679,22.812344623870437,16.03199999994831
312772.3767,13.077876591340894,25.99382805534925,22.841529449807062,24.773404439607752,16.03299999999581
312772.3777,11.251622334493648,25.79759221947876,26.310016461470685,25.90481033674846,16.0339999999851
312772.3787,8.414168787338154,24.724422003645035,29.51421398340993,26.24141872230885,16.03499999997439
312772.3797,4.639820194426364,22.860624902256422,32.45244745647845,25.841362920311653,16.03599999996368
312772.3807,0.03931014022750352,20.313355816997756,35.12340698778655,24.78325289131048,16.036999999952968
312772.3817,-5.241111132895014,17.207014806311484,37.52644206102689,23.16337944953447,16.038000000000466
312772.3827,-11.02123377194733,13.679763330826496,39.662621990208365,21.092993029984335,16.038999999989755
312772.3837,-17.089316897335944,9.880175077028163,41.5363602214036,18.695646058326084,16.039999999979045
312772.3847,-23.205657078611967,5.963968580147268,43.15730456733098,16.104519265583328,16.040999999968335
312772.3857,-29.10756106533336,2.090719940514973,44.542135675038466,13.45960529169951,16.041999999957625
312772.3867,-34.515933019743684,-1.5795687357423744,45.71590060758515,10.904604315221663,16.042999999946915
312772.3877,-39.14358340033075,-4.890162873377328,46.71254060241839,8.583399426988102,16.043999999994412
312772.3887,-42.70522187195819,-7.691633144147477,47.574349717573824,6.636023384075743,16.044999999983702
312772.3897,-44.92892301507034,-9.846259225963026,48.35021679528525,5.194098780346764,16.04599999997299
312772.3907,-45.56866831899261,-11.232743348748775,49.092645000066454,4.375822728248069,16.04699999996228
312772.3917,-44.417390683886225,-11.751090849434277,49.85369582473565,4.280664470067264,16.04799999995157
312772.3927,-41.31979864969853,-11.327430758253287,50.68015089547229,4.984038047457544,16.04899999999907
312772.3937,-36.1841554057519,-9.918478498397056,51.6083082959368,6.5322901615348075,16.04999999998836
312772.3947,-28.99214722172445,-7.515295090601608,52.65891567035858,8.938394671532095,16.05099999997765
312772.3957,-19.80600681327154,-4.145980759949976,53.832779000376235,12.17876119216086,16.051999999966938
312772.3967,-8.772162295608611,0.12303946311496829,55.10756765721482,16.191540742871823,16.052999999956228
312772.3977,3.8791422996616607,5.187423263065726,56.436262836783825,20.876745257869327,16.053999999945518
312772.3987,17.838574417201915,10.907204360261776,57.747573325577456,26.098393235341323,16.054999999993015
312772.3997,32.72683089047775,17.111042941321454,58.948480463512816,31.688758317315404,16.055999999982305
312772.4007,48.10789120347058,23.602363676022772,59.92888795691806,37.45464211619501,16.056999999971595
312772.4017,63.505856161575686,30.167163417577324,60.56815913126977,43.185430629719626,16.057999999960884
312772.4027,78.42455457495954,36.583128021099114,60.74314231911211,48.66253983670052,16.058999999950174
312772.4037,92.36888289371909,42.629574155291756,60.33713137635216,53.6697250805307,16.05999999999767
312772.4047,104.86669351687937,48.09763974986386,59.24909728525746,58.00363357179953,16.06099999998696
312772.4057,115.48997991114446,52.80009568709037,57.40246912876771,61.483929864744084,16.06199999997625
312772.4067,123.87412729409095,56.58014802565162,54.75274447463016,63.962326716892385,16.06299999996554
312772.4077,129.73410587188405,59.31864688627258,51.29327140015027,65.32991005151644,16.06399999995483
312772.4087,132.8766717985092,60.93921316323094,47.05866295789173,65.52225378161258,16.06500000000233
312772.4097,133.20789506298934,61.410931123698575,42.12547106540598,64.52197042898408,16.065999999991618
312772.4107,130.7356341507868,60.74842349005408,36.60994784420626,62.358525221661765,16.066999999980908
312772.4117,125.566901762961,59.00931247819957,30.6629425966531,59.105340110131024,16.067999999970198
312772.4127,117.90038968580649,56.2892602712125,24.46220440613638,54.874413577144836,16.068999999959487
312772.4137,108.01472005790852,52.714959735724904,18.202565923135207,49.80886555122015,16.069999999948777
312772.4147,96.25324310728774,48.43559585262956,12.084656481944577,44.073968617856416,16.070999999996275
312772.4157,83.00639032940904,43.613407525022375,6.302917971519634,37.847334017866956,16.071999999985565
312772.4167,68.69270486876117,38.41403868446431,1.0337642363533248,31.30897429565149,16.072999999974854
312772.4177,53.73970165723644,32.99737170810226,-3.5752717942031054,24.63195915815231,16.073999999964144
312772.4187,38.565659352735565,27.509484576759213,-7.4146203929530135,17.974317431132377,16.074999999953434
312772.4197,23.56332135475054,22.076270240403616,-10.41932555859053,11.47272134056549,16.07600000000093
312772.4207,9.086296749622775,16.799111043936303,-12.57277526845444,5.2383297381842215,16.07699999999022
312772.4217,-4.561279121878331,11.75282521206322,-13.907233181418478,-0.6450218526393546,16.07799999997951
312772.4227,-17.13152098998574,6.985911294559385,-14.501124905753013,-6.120297995228947,16.0789999999688
312772.4237,-28.435963913317398,2.5229264042990724,-14.473266542768547,-11.154617308254245,16.07999999995809
312772.4247,-38.345329298264716,-1.6313388304812906,-13.974442958886412,-15.734869095107955,16.08099999994738
312772.4257,-46.78629979042662,-5.486366837148703,-13.176931415177682,-19.862116344806683,16.081999999994878
312772.4267,-53.73587972951417,-9.05967703049773,-12.262708716421258,-23.545398543349773,16.082999999984168
312772.4277,-59.21402411825827,-12.370468974623238,-11.411166538912761,-26.79558150665804,16.083999999973457
312772.4287,-63.27526350657234,-15.433757584171975,-10.787184106720337,-29.61987680463385,16.084999999962747
312772.4297,-66.00003564085264,-18.25555030444268,-10.530368820181446,-32.0175730053673,16.085999999952037
312772.4307,-67.48636301309044,-20.829505531645246,-10.746177628137355,-33.977392574580875,16.086999999999534
312772.4317,-67.84239878340652,-23.13536328296915,-11.49948331392709,-35.47672372366553,16.087999999988824
312772.4327,-67.18021554004606,-25.139266904496097,-12.810962805881116,-36.482790929287106,16.088999999978114
312772.4337,-65.61104769776914,-26.795914201048674,-14.656474432434749,-36.95563824170043,16.089999999967404
312772.4347,-63.24203534193417,-28.052304341516432,-16.969374699774136,-36.852623201374364,16.090999999956694
312772.4357,-60.17437041524438,-28.852699031774183,-19.645519897011148,-36.133972311204346,16.091999999945983
312772.4367,-56.50262835854544,-29.144306292649016,-22.550519608137105,-34.768844964511004,16.09299999999348
312772.4377,-52.314989085408826,-28.88313269556971,-25.528671366512153,-32.7413009296044,16.09399999998277
312772.4387,-47.694015432061796,-28.039440490278327,-28.41291774413646,-30.055571480758736,16.09499999997206
312772.4397,-42.71766502222351,-26.60228998597451,-31.035134003831175,-26.74009525357658,16.09599999996135
312772.4407,-37.46025808727981,-24.582739938981728,-33.23607592891681,-22.849890832815714,16.09699999995064
312772.4417,-31.99320032163191,-22.015410000856452,-34.87438857675273,-18.466988205838103,16.097999999998137
312772.4427,-26.38535443579737,-18.95826622461678,-35.83418822459911,-13.698816140140499,16.098999999987427
312772.4437,-20.703053198911753,-15.490657581986465,-36.030869239017555,-8.674625630251134,16.099999999976717
312772.4447,-15.009836929256045,-11.709791997986049,-35.41494072281464,-3.5402035480389906,16.100999999966007
312772.4457,-9.366067642572668,-7.7259790191906275,-33.97384997972127,1.5487206836806684,16.101999999955297
312772.4467,-3.8286113663534422,-3.6570697775978402,-31.731887666282677,6.4338627840517235,16.102999999944586
312772.4477,1.5492156389209324,0.3774160221779218,-28.748382031463905,10.961991865082078,16.103999999992084
312772.4487,6.717272486494552,4.261976597903327,-25.114469388732758,14.992177739818901,16.104999999981374
312772.4497,11.627690157019627,7.890167915610865,-20.948771437506227,18.402141324875743,16.105999999970663
312772.4507,16.23342521807364,11.168620051377935,-16.392317854481234,21.09326557753108,16.106999999959953
312772.4517,20.486357334531032,14.019771251385166,-11.603029039244323,22.993955814134832,16.107999999949243
312772.4527,24.335117433029602,16.383200698446196,-6.750026328025974,24.061194322581326,16.10899999999674
312772.4537,27.722920465524695,18.215588041276913,-2.007974638373824,24.280299416687512,16.10999999998603
312772.4547,30.585738372763416,19.48946683526156,2.4484045996491894,23.6630573716643,16.11099999997532
312772.4557,32.85117532703675,20.19105607599717,6.449574626775977,22.24453185905535,16.11199999996461
312772.4567,34.438392462178655,20.31753732584837,9.836152338380385,20.078956802558263,16.1129999999539
312772.4577,35.25937123031311,19.874186468999444,12.463609270144962,17.235175858303823,16.114000000001397
312772.4587,35.22170603479972,18.871765155019176,14.206717590032337,13.792100313247467,16.114999999990687
312772.4597,34.232985097091785,17.3245284383266,14.963741298956892,9.83461730925714,16.115999999979977
312772.4607,32.206664657441515,15.249117438191474,14.660341450575615,5.450296977323657,16.116999999969266
312772.4617,29.069179428702668,12.664488404480894,13.253119706587272,0.7271296362442204,16.117999999958556
312772.4627,24.76787708669322,9.592894718349667,10.732674238149547,-4.2476146513742075,16.118999999947846
312772.4637,19.2792319499501,6.0618001585850525,7.125994130564118,-9.387457412001366,16.119999999995343
312772.4647,12.616696979044098,2.106474647432171,2.4979813781210947,-14.605904079885878,16.120999999984633
312772.4657,4.837505215580395,-2.227078976684761,-3.0481292390367347,-19.815061109242926,16.121999999973923
312772.4667,-3.952260627856131,-6.879285812196944,-9.371676800608777,-24.924060161972953,16.122999999963213
312772.4677,-13.594945551910168,-11.774690170256152,-16.2969989485886,-29.83770636700126,16.123999999952503
312772.4687,-23.881439078072983,-16.820597748776432,-23.61750511388093,-34.45575452317248,16.125
312772.4697,-34.554451818801596,-21.90702152072121,-31.101441910212024,-38.67315696365346,16.12599999998929
312772.4707,-45.31506224794595,-26.9081767540694,-38.49928720242394,-42.381525266511666,16.12699999997858
312772.4717,-55.832411760422566,-31.68563301088626,-45.552589989950526,-45.47191504343928,16.12799999996787
312772.4727,-65.75618914301376,-36.09307587959611,-52.00395169836589,-47.83889195983231,16.12899999995716
312772.4737,-74.73132284286805,-39.982473107199304,-57.60773184036137,-49.385683236356286,16.12999999994645
312772.4747,-82.41410919911208,-43.21129373541274,-62.14096835845145,-50.030077925631375,16.130999999993946
312772.4757,-88.48886324420688,-45.650308869293475,-65.41394019946281,-49.71062589590586,16.131999999983236
312772.4767,-92.68409839902795,-47.19142057465598,-67.27977448753558,-48.39261173640989,16.132999999972526
312772.4777,-94.78723035214287,-47.754929440284,-67.64251768921136,-46.0732539740595,16.133999999961816
312772.4787,-94.65686124696282,-47.2956656745446,-66.46315042320725,-42.785605693599074,16.134999999951106
312772.4797,-92.2318299963944,-45.807472779335846,-63.763126284333495,-38.60070856566965,16.135999999998603
312772.4807,-87.53640467434258,-43.325641892268195,-59.625149845541024,-33.627672290320014,16.136999999987893
312772.4817,-80.68123027489261,-39.92703981384882,-54.19106842827044,-28.01150524694888,16.137999999977183
312772.4827,-71.85991267521435,-35.727842345591235,-47.65692460085068,-21.928696199813615,16.138999999966472
312772.4837,-61.34139789194522,-30.87896256630521,-40.26538876326164,-15.580725811499242,16.139999999955762
312772.4847,-49.45857419450075,-25.559435946213103,-32.29595057046031,-9.185854535650437,16.140999999945052
312772.4857,-36.59376343633787,-19.96817611494624,-24.053382281253565,-2.9696752138907874,16.14199999999255
312772.4867,-23.161959352193385,-14.314633803248565,-15.855086322995021,2.8449782905503507,16.14299999998184
312772.4877,-9.592800412551338,-8.808967011873568,-8.017996178857622,8.048120063214087,16.14399999997113
312772.4887,3.6876762122185984,-3.6523566560062624,-0.845710305541369,12.452050250383033,16.14499999996042
312772.4897,16.27446865561633,0.9719230196972971,5.383496888022091,15.89954485001519,16.14599999994971
312772.4907,27.79928932840131,4.906143321200908,10.427221190747282,18.270299190678898,16.146999999997206
312772.4917,37.943697923902874,8.024048047985087,14.087579580998987,19.485266007125087,16.147999999986496
312772.4927,46.44910037975969,10.234792551584349,16.21765247018162,19.508694713044257,16.148999999975786
312772.4937,53.12326205107601,11.484781381444286,16.725555374107323,18.34785591014456,16.149999999965075
312772.4947,57.84323338340297,11.757455676863875,15.576130062291442,16.050608337488505,16.150999999954365
312772.4957,60.5548297120184,11.071233565288612,12.790384649475811,12.701118907902913,16.152000000001863
312772.4967,61.269024268663145,9.475932933929931,8.442928089875872,8.414166821513973,16.152999999991152
312772.4977,60.0557887650237,7.048095377438455,2.657728830265118,3.328539971690252,16.153999999980442
312772.4987,57.03603703977919,3.88567595516904,-4.397424855661949,-2.3999397508430214,16.154999999969732
312772.4997,52.3723874040043,0.10256305320255417,-12.517375065691608,-8.605247010199271,16.155999999959022
312772.5007,46.25945731121523,-4.176651868264616,-21.46659159194548,-15.11739140255453,16.15699999994831
312772.5017,38.91434411537751,-8.821317264968668,-30.986405712527393,-21.767720450559292,16.15799999999581
312772.5027,30.567837142544665,-13.6985502478426,-40.80224203416558,-28.393074728562254,16.1589999999851
312772.5037,21.45676212990384,-18.676149959274664,-50.63069121074314,-34.83872527552361,16.15999999997439
312772.5047,11.817694866537943,-23.62462200532468,-60.18634570470631,-40.960163174968,16.16099999996368
312772.5057,1.8821132473987021,-28.41845576740764,-69.18838804193493,-46.62393373556083,16.161999999952968
312772.5067,-8.127097907032464,-32.93688733903387,-77.36696788741561,-51.70780082771203,16.163000000000466
312772.5077,-17.99800277249139,-37.06443758327151,-84.4694250533994,-56.10058152766921,16.163999999989755
312772.5087,-27.53113450361657,-40.691531347905524,-90.26640779341163,-59.70200224595722,16.164999999979045
312772.5097,-36.54052745810201,-43.71547845894168,-94.55790046994765,-62.42289446073192,16.165999999968335
312772.5107,-44.85460756402144,-46.042032494721894,-97.17911634773033,-64.18597510723977,16.166999999957625
312772.5117,-52.31723997640547,-47.58764655148139,-98.00613729002133,-64.92735183901605,16.167999999946915
312772.5127,-58.789149129825056,-48.282426884129215,-96.96110225476545,-64.59876838619913,16.168999999994412
312772.5137,-64.1498159354387,-48.07365864675279,-94.01667179834087,-63.170473915583166,16.169999999983702
312772.5147,-68.29983379668383,-46.92965741023025,-89.19943765472574,-60.6344773004194,16.17099999997299
312772.5157,-71.16358416293836,-44.84359990308345,-82.59191528928643,-57.00784653945035,16.17199999996228
312772.5167,-72.69198802974867,-41.83691997569163,-74.33276143706154,-52.33564714063077,16.17299999995157
312772.5177,-72.86501481552813,-37.96183050717742,-64.61490316956038,-46.69308968311799,16.17399999999907
312772.5187,-71.69359389665097,-33.30255407448238,-53.68135116979728,-40.18648029101131,16.17499999998836
312772.5197,-69.22058203828202,-27.97491506062157,-41.818594393643835,-32.95263788749149,16.17599999997765
312772.5207,-65.52049245540107,-22.124058838280842,-29.347628479633745,-25.15655348199498,16.176999999966938
312772.5217,-60.69778377286927,-15.920210367189597,-16.612844472356432,-16.98720958868746,16.177999999956228
312772.5227,-54.88363069144462,-9.55255176170674,-3.9691828994877953,-8.651638876527322,16.178999999945518
312772.5237,-48.2312400485523,-3.2214702906895885,8.231875528589132,-0.36746477292416746,16.179999999993015
312772.5247,-40.909921207993925,2.8704119863699895,19.656774038062387,7.645683237200594,16.180999999982305
312772.5257,-33.09825259574097,8.52788431725519,30.003996967550528,15.175365714759394,16.181999999971595
312772.5267,-24.97679192553599,13.572837123855212,39.01700105947068,22.025547285084535,16.182999999960884
312772.5277,-16.720843964637005,17.853326372306494,46.49514810267632,28.02520591402898,16.183999999950174
312772.5287,-8.493818187810403,21.25136296983344,52.301917449639916,33.03574004247462,16.18499999999767
312772.5297,-0.44167578465015955,23.68885419995435,56.36982910673893,36.956654603801624,16.18599999998696
312772.5307,7.311117096513457,25.131251568104016,58.701711179713996,39.72913208200078,16.18699999997625
312772.5317,14.663838443747386,25.588626959084998,59.36818453642577,41.33725558204952,16.18799999996554
312772.5327,21.539827415974614,25.11409217072611,58.50149411122288,41.80683285684418,16.18899999995483
312772.5337,27.884908818717385,23.799678724422627,56.28606987883649,41.20195677423006,16.19000000000233
312772.5347,33.66413868870396,21.769987598444093,52.94643063797986,39.61961176873479,16.190999999991618
312772.5357,38.857242187822585,19.17408528734761,48.73323154336378,37.18278155653194,16.191999999980908
312772.5367,43.45324038841184,16.176248896618976,43.908386303911996,34.0326176654165,16.192999999970198
312772.5377,47.44484314077056,12.946238122136705,38.73025622151842,30.32028197457917,16.193999999959487
312772.5387,50.82321256052141,9.649789931784792,33.43988536313212,26.19907512914342,16.194999999948777
312772.5397,53.57367223754437,6.439991774248577,28.249174651631936,21.817407275417317,16.195999999996275
312772.5407,55.672852866347014,3.450095650551663,23.331733950708642,17.313064063248408,16.196999999985565
312772.5417,57.08763265400317,0.788197655842804,18.816942172545925,12.80907982250064,16.197999999974854
312772.5427,57.77606219321686,-1.465961210213923,14.78749747713077,8.411365284264956,16.198999999964144
312772.5437,57.690273660222,-3.262001258347444,11.28047247564507,4.208065357765417,16.199999999953434
312772.5447,56.78118053944985,-4.577828085628538,8.291624446290324,0.27046001387621926,16.20100000000093
312772.5457,55.004594477054944,-5.416749383131544,5.782469335813889,-3.3449161036124115,16.20199999999022
312772.5467,52.3282370866112,-5.803191461939873,3.689430305808916,-6.593359119671856,16.20299999997951
312772.5477,48.7390206059528,-5.777510682684493,1.9342327318651489,-9.438762499758585,16.2039999999688
312772.5487,44.24992216981749,-5.390433201741459,0.4346487240915317,-11.85054176361406,16.20499999995809
312772.5497,38.90578697124435,-4.697643079819399,-0.885299893688905,-13.80114490908794,16.20599999994738
312772.5507,32.78746501775977,-3.7549774075080617,-2.0864925778322827,-15.26448239337012,16.206999999994878
312772.5517,26.013808333213348,-2.614585895343669,-3.2078845009523556,-16.21548309479946,16.207999999984168
312772.5527,18.741219242557783,-1.32228325811818,-4.262180698144758,-16.630835476172983,16.208999999973457
312772.5537,11.16063100957458,0.08382001607790637,-5.234261094316202,-16.49082200197188,16.209999999962747
312772.5547,3.492002550992957,1.5734641446512327,-6.082371326851287,-15.782015769401323,16.210999999952037
312772.5557,-4.023398346094969,3.1233447161474612,-6.741867903780328,-14.500495906483616,16.211999999999534
312772.5567,-11.132480353139396,4.715453667996751,-7.1311090190279804,-12.65516425682416,16.212999999988824
312772.5577,-17.581008962240357,6.334994942603865,-7.158929961768202,-10.270717812225962,16.213999999978114
312772.5587,-23.124825712255095,7.968231827535779,-6.733045218158251,-7.389852067272107,16.214999999967404
312772.5597,-27.540920706532187,9.600599872270655,-5.7686830303456595,-4.074337726052583,16.215999999956694
312772.5607,-30.63769714776753,11.215358632030235,-4.196781411572906,-0.4047200267262453,16.216999999945983
312772.5617,-32.26384032786751,12.79296535988832,-1.9711510468729592,3.5214745837660075,16.21799999999348
312772.5627,-32.31531819680401,14.311245096843606,0.9258706893541007,7.592989403490303,16.21899999998277
312772.5637,-30.740184621795333,15.74631707701204,4.479603129690813,11.689361213495255,16.21999999997206
312772.5647,-27.54101600436938,17.07413008019919,8.641211476082736,15.686397863932571,16.22099999996135
312772.5657,-22.774972572452146,18.27237153389958,13.327912427033922,19.46218616670639,16.22199999995064
312772.5667,-16.551623540970233,19.322456864457724,18.42506579506896,22.90314234034764,16.222999999998137
312772.5677,-9.028798455195556,20.21128373610792,23.789908137768315,25.90960042149652,16.223999999987427
312772.5687,-0.4068163874262526,20.932453424501244,29.256606098283925,28.400466971517275,16.224999999976717
312772.5697,9.078504981908003,21.4867174347983,34.64226728577452,30.31655052979008,16.225999999966007
312772.5707,19.163648020390937,21.88149619502789,39.75354409643342,31.622294343484025,16.226999999955297
312772.5717,29.56561561135138,22.129429120938717,44.39349587843632,32.30578960051131,16.227999999944586
312772.5727,39.990243736985015,22.24603958621125,48.368429034782544,32.37710932437367,16.228999999992084
312772.5737,50.14035248794827,22.24672067359757,51.49450261751468,31.86516417910603,16.229999999981374
312772.5747,59.723565796674606,22.143354039933637,53.60395739645676,30.81342446047547,16.230999999970663
312772.5757,68.45970996006861,21.940951948958055,54.550888499955384,29.274962766796715,16.231999999959953
312772.5767,76.08776544831863,21.634751189595402,54.21652659050331,27.307337483884282,16.232999999949243
312772.5777,82.37238692000209,21.208180601317824,52.51401419757691,24.967850763564343,16.23399999999674
312772.5787,87.11001765405561,20.632069235207275,49.3926600679934,22.309673717757256,16.23499999998603
312772.5797,90.13460585968173,19.865362720884004,44.84162703228291,19.379239170161,16.23599999997532
312772.5807,91.32288500462671,18.85747898466612,38.89296355940965,16.21516688806365,16.23699999996461
312772.5817,90.59911586774864,17.552273125496235,31.623834609167847,12.84882070873614,16.2379999999539
312772.5827,87.93911503078012,15.893410225923565,23.157754282617468,9.306417670681936,16.239000000001397
312772.5837,83.37332535151445,13.83078109973643,13.66458238138352,5.612434194307695,16.239999999990687
312772.5847,76.98863127685203,11.327456442169366,3.359029685529946,1.7939014955158346,16.240999999979977
312772.5857,68.92859704684561,8.366574848508579,-7.502569350740738,-2.114932175669007,16.241999999969266
312772.5867,59.39181756490178,4.957511699955789,-18.62740797938821,-6.068158698454993,16.242999999958556
312772.5877,48.62812473240417,1.1406863722628833,-29.69338775868945,-10.004578293576053,16.243999999947846
312772.5887,36.93248651942095,-3.0095634835734884,-40.358314370971456,-13.845415527417094,16.244999999995343
312772.5897,24.63656727517164,-7.384483607681727,-50.27095063221321,-17.493808654222022,16.245999999984633
312772.5907,12.098076536733274,-11.843048069950004,-59.08361121556219,-20.836339998668482,16.246999999973923
312772.5917,-0.3117931178083734,-16.216805912763903,-66.46582669318619,-23.746684947302825,16.247999999963213
312772.5927,-12.22236634941911,-20.317263621813208,-72.11846330687762,-26.091252395113514,16.248999999952503
312772.5937,-23.27829599467762,-23.945417512867664,-75.78757437415415,-27.736489529620783,16.25
312772.5947,-33.154436192036215,-26.90285412504962,-77.27719268873219,-28.557347759383802,16.25099999998929
312772.5957,-41.56995575993696,-29.003682752997648,-76.46026086833953,-28.446271476333578,16.25199999997858
312772.5967,-48.30085415401704,-30.086466869256174,-73.28694429711638,-27.321990544236556,16.25299999996787
312772.5977,-53.190089773753016,-30.02529007597934,-67.78968003107798,-25.13737929469259,16.25399999995716
312772.5987,-56.15464096711028,-28.73913128926833,-60.08448031103136,-21.88569194899563,16.25499999994645
312772.5997,-57.18898806261055,-26.198830821014226,-50.368221411237705,-17.6045932777161,16.255999999993946
312772.6007,-56.36471905156955,-22.43109558734058,-38.91189305214303,-12.377564748264069,16.256999999983236
312772.6017,-53.82620655130319,-17.519204259372543,-26.05004258391256,-6.332466340105313,16.257999999972526
312772.6027,-49.78256059715847,-11.600314135283318,-12.166901606951935,0.36274493201565683,16.258999999961816
312772.6037,-44.496310258839145,-4.859520736024936,2.320089674138475,7.506916358923803,16.259999999951106
312772.6047,-38.26948692273444,2.4789421575238317,16.97846204346995,14.874792826533971,16.260999999998603
312772.6057,-31.42795527023241,10.162769652672347,31.3795795628089,22.227705197043747,16.261999999987893
312772.6067,-24.304950188946812,17.924171702924287,45.117111170812095,29.32513778367665,16.262999999977183
312772.6077,-17.224819809703124,25.49313433897401,57.824061742157184,35.936399181265266,16.263999999966472
312772.6087,-10.48794320093147,32.610485071705575,69.18741052081134,41.851624525890436,16.264999999955762
312772.6097,-4.357688807941437,39.03993221824538,78.95956921767211,46.89140304709859,16.265999999945052
312772.6107,0.9498847473513665,44.57835209398895,86.96608999765058,50.91444552795119,16.26699999999255
312772.6117,5.273096528962125,49.06375514985832,93.10930783778602,53.82287030678434,16.26799999998184
312772.6127,8.508233928390437,52.38055753942937,97.36787249342423,55.56487854409525,16.26899999997113
312772.6137,10.60967375840908,54.46200071161419,99.79239191302341,56.13479239480519,16.26999999996042
312772.6147,11.586784941223396,55.28977959859917,100.4976516422031,55.57062576760653,16.27099999994971
312772.6157,11.498077943326342,54.891141361101454,99.65207624172368,53.94952993557391,16.271999999997206
312772.6167,10.443234075921442,53.33388501788796,97.46524538158961,51.38159135517138,16.272999999986496
312772.6177,8.553757264741362,50.719814568911,94.17436000194098,48.002546353494985,16.273999999975786
312772.6187,5.983034620548837,47.17726582998714,90.03056876648766,43.966011116688904,16.274999999965075
312772.6197,2.896568588982268,42.85333667411687,85.28601320914045,39.435804904307545,16.275999999954365
312772.6207,-0.5369430305541443,37.906403612346125,80.18233772608792,34.57887385157749,16.277000000001863
312772.6217,-4.153142512275656,32.49941163136612,74.94124858881854,29.559210863833098,16.277999999991152
312772.6227,-7.797804696707326,26.794290307322832,69.75750875060169,24.53302639924448,16.278999999980442
312772.6237,-11.330727467337185,20.947692087825327,64.79453918151785,19.645270319004478,16.279999999969732
312772.6247,-14.627762077459346,15.108084799130976,60.18258075345045,15.027452467678275,16.280999999959022
312772.6257,-17.581208619251242,9.41407668970685,56.01917098988191,10.796574758959473,16.28199999994831
312772.6267,-20.098950671955745,3.993724100206889,52.3715232577212,7.054883806893473,16.28299999999581
312772.6277,-22.10280373601255,-1.035518293359345,49.28027512364007,3.890090726244975,16.2839999999851
312772.6287,-23.52659592833278,-5.566588363396019,46.764006408600274,1.3756893993968589,16.28499999997439
312772.6297,-24.31448382523841,-9.502725959003007,44.823919869370826,-0.4289629633200459,16.28599999996368
312772.6307,-24.4199345237293,-12.757823985508642,43.44812715589893,-1.4790631042726452,16.286999999952968
312772.6317,-23.805685760005893,-15.257448934903653,42.61508344717648,-1.7454264637979058,16.288000000000466
312772.6327,-22.444842693210937,-16.940633778574085,42.295855222292225,-1.2162168397681228,16.288999999989755
312772.6337,-20.323099319511943,-17.76240624062076,42.45507278211637,0.10078017349877783,16.289999999979045
312772.6347,-17.441902459423986,-17.696876741703246,43.05059602008177,2.1755900012918694,16.290999999968335
312772.6357,-13.822224518062535,-16.740588760743705,44.032091439134085,4.953542170939077,16.291999999957625
312772.6367,-9.50849332366384,-14.915744156348167,45.338864197789185,8.35324396772362,16.292999999946915
312772.6377,-4.5721553487823225,-12.272867895893693,46.897396929564465,12.265474664118454,16.293999999994412
312772.6387,0.8856700016395904,-8.892476927062042,48.619106572960185,16.553409283762683,16.294999999983702
312772.6397,6.732950217315293,-4.885367726332792,50.398835267269824,21.05450021227619,16.29599999997299
312772.6407,12.807328727283526,-0.39123228876887445,52.114540351753654,25.5842209909336,16.29699999996228
312772.6417,18.91882284355351,4.424555845517118,53.62854572209312,29.94172017072371,16.29799999995157
312772.6427,24.854741152454157,9.375988125832148,54.79057127772942,33.91725851710412,16.29899999999907
312772.6437,30.386742653393924,14.26313800662129,55.44258219416076,37.301126617837355,16.29999999998836
312772.6447,35.27976888416429,18.88022886681582,55.42531161203954,39.89357907954208,16.30099999997765
312772.6457,39.302403062738186,23.02459833469697,54.5861269850807,41.51519194370216,16.301999999966938
312772.6467,42.23806258208554,26.506005426691104,52.78774962430821,42.01696504953967,16.302999999956228
312772.6477,43.89632640781246,29.155673485668242,49.917214970022194,41.28946028113153,16.303999999945518
312772.6487,44.12364705682765,30.83445968341541,45.89439049111503,39.270294624659215,16.304999999993015
312772.6497,42.812703641401676,31.439591572030068,40.67935688659237,35.94939312128669,16.305999999982305
312772.6507,39.909718918660474,30.909508756607746,34.278009017208944,31.371545262546242,16.306999999971595
312772.6517,35.419185399703345,29.226484760609722,26.74534255094126,25.63598850369616,16.307999999960884
312772.6527,29.405614621863783,26.416868554718725,18.18605201672827,18.892949900845302,16.308999999950174
312772.6537,21.992126846130223,22.5489625934013,8.752262497897014,11.33729439537961,16.30999999999767
312772.6547,13.355919771037943,17.72872904794335,-1.3615662271754438,3.199637919201865,16.31099999998696
312772.6557,3.720876583953947,12.093673075604228,-11.926306390739118,-5.26453222413753,16.31199999997625
312772.6567,-6.65222233037837,5.805377959990958,-22.68794281208584,-13.78704373928076,16.31299999996554
312772.6577,-17.477250383320907,-0.9587487614483974,-33.37884521170077,-22.099755737677707,16.31399999995483
312772.6587,-28.45529447184404,-8.01392322378636,-43.729794525757235,-29.94699781620153,16.31500000000233
312772.6597,-39.28740825787531,-15.176047148196513,-53.48196953508282,-37.096956353646654,16.315999999991618
312772.6607,-49.686747449473884,-22.26886698554865,-62.39810868473186,-43.351323831916645,16.316999999980908
312772.6617,-59.38934345071974,-29.12981855348433,-70.27213420780679,-48.55266946479409,16.317999999970198
312772.6627,-68.16289832463947,-35.61428170579913,-76.93665512357309,-52.589170540714065,16.318999999959487
312772.6637,-75.81315818084674,-41.59812388986685,-82.26794084976417,-55.39654785761134,16.319999999948777
312772.6647,-82.18762851764323,-46.97856910138679,-86.18816252709439,-56.95725785183743,16.320999999996275
312772.6657,-87.1766154152676,-51.67357495623087,-88.66491655217379,-57.29719072598195,16.321999999985565
312772.6667,-90.71179118990527,-55.62002194150538,-89.70825512392803,-56.48029175045206,16.322999999974854
312772.6677,-92.7626730968588,-58.771104607034715,-89.36563345851154,-54.60164859683428,16.323999999964144
312772.6687,-93.33155216489962,-61.09335741531421,-87.7153267895416,-51.77966186191193,16.324999999953434
312772.6697,-92.44750343612466,-62.5637454086536,-84.85896032245242,-48.14793460596594,16.32600000000093
312772.6707,-90.16014113596245,-63.16720353368328,-80.91382495376821,-43.84748073330066,16.32699999999022
312772.6717,-86.53375088824615,-62.894924419174096,-76.00561947585605,-39.01976736081754,16.32799999997951
312772.6727,-81.64234039915554,-61.74358226319696,-70.2621706517349,-33.80098320759211,16.3289999999688
312772.6737,-75.56601011412639,-59.7155524496091,-63.808545841679965,-28.317776914691027,16.32999999995809
312772.6747,-68.38887094593811,-56.8200560911578,-56.763803126508506,-22.684551260638973,16.33099999994738
312772.6757,-60.19854525716474,-53.07503934709208,-49.2394385013902,-17.002246915256677,16.331999999994878
312772.6767,-51.08709928381804,-48.50950117593304,-41.339407461321244,-11.35841687268117,16.332999999984168
312772.6777,-41.153089053348246,-43.16591972001653,-33.1614373921196,-5.828291661976415,16.333999999973457
312772.6787,-30.50427415003025,-37.1024029239237,-24.79922347110191,-0.4764739022293799,16.334999999962747
312772.6797,-19.260476958594932,-30.394205453107187,-16.34502612596353,4.641117435635504,16.335999999952037
312772.6807,-7.5560465388934945,-23.134309575172704,-7.892169147660629,9.475408219787004,16.336999999999534
312772.6817,4.458572689364584,-15.432856580384511,0.4630249243212733,13.982728699788149,16.337999999988824
312772.6827,16.616571619035774,-7.415328435278252,8.620236687355387,18.123972815067894,16.338999999978114
312772.6837,28.73607090169204,0.7804948438179816,16.475333951115957,21.864449269043412,16.339999999967404
312772.6847,40.62307485788361,9.008650970513923,23.921827301747484,25.17440187522104,16.340999999956694
312772.6857,52.07600099809794,17.119920593532026,30.8535223234325,28.03007021712745,16.341999999945983
312772.6867,62.89153022610023,24.967210312014608,37.16813934468867,30.41507525261033,16.34299999999348
312772.6877,72.8713785297076,32.41098799160912,42.771544329374684,32.32185783762497,16.34399999998277
312772.6887,81.82948887457778,39.32435087717339,47.582148574766194,33.752877602285174,16.34499999997206
312772.6897,89.59909276696031,45.59733476492947,51.534999870517275,34.72129749730515,16.34599999996135
312772.6907,96.03909926888586,51.140139573544225,54.585107687875905,35.25093363033489,16.34699999995064
312772.6917,101.03933337263072,55.88504644975238,56.709617615915676,35.3753345690539,16.347999999998137
312772.6927,104.52425753222862,59.786923958909384,57.908567499773596,35.1359594305557,16.348999999987427
312772.6937,106.4549564600235,62.822353359753684,58.204106384226165,34.57953766455428,16.349999999976717
312772.6947,106.82932897765042,64.98753170139587,57.638220701747635,33.75480219939031,16.350999999966007
312772.6957,105.68059306863546,66.2952230815004,56.26917181019027,32.70887863664359,16.351999999955297
312772.6967,103.07435320830118,66.77111121704729,54.16698707559786,31.48367535199612,16.352999999944586
312772.6977,99.10458716430105,66.44995190245616,51.408447771812504,30.112644675306424,16.353999999992084
312772.6987,93.88897187999093,65.371927351078,48.07206987004659,28.618269788428474,16.354999999981374
312772.6997,87.56397957157968,63.5795657029644,44.23357245230439,27.01057610079468,16.355999999970663
312772.7007,80.28013675885428,61.11551248185635,39.962273127114734,25.286874624194684,16.356999999959953
312772.7017,72.19775748874824,58.02133483649808,35.3187464988526,23.432827217897618,16.357999999949243
312772.7027,63.483349335780964,54.33741542522705,30.353941695921584,21.424791482004665,16.35899999999674
312772.7037,54.30676214256658,50.10386407166961,25.109793402157806,19.233270264187475,16.35999999998603
312772.7047,44.839021708975814,45.3622555537509,19.621195255161844,16.82717124284913,16.36099999997532
312772.7057,35.25068007002664,40.15790381790463,13.919052777595752,14.178488717500306,16.36199999996461
312772.7067,25.71043451218606,34.54231695303006,8.034011591111236,11.266962909286748,16.3629999999539
312772.7077,16.383728917857255,28.575450447740767,2.000378677985527,8.084258467930905,16.364000000001397
312772.7087,7.431058105944565,22.327391522161978,-4.140271588774268,4.637235872372245,16.364999999990687
312772.7097,-0.9942523669926179,15.879163212017874,-10.33628606190407,0.9499647561939447,16.365999999979977
312772.7107,-8.74892833376979,9.322427695797858,-16.524314603865715,-2.935759794390899,16.366999999969266
312772.7117,-15.703310984409459,2.757984762411194,-22.629159042664583,-6.961498713899182,16.367999999958556
312772.7127,-21.745492150144447,-3.706908697308184,-28.565208193343526,-11.054797811835659,16.368999999947846
312772.7137,-26.785783044594925,-9.962242194294165,-34.239408386366826,-15.133164307057216,16.369999999995343
312772.7147,-30.761170320676445,-15.899705500523758,-39.55555288828865,-19.109058634098872,16.370999999984633
312772.7157,-33.63933813270666,-21.41752926306353,-44.41952828299171,-22.895466348247364,16.371999999973923
312772.7167,-35.42180346118767,-26.425293233075923,-48.74504642089816,-26.41155269549377,16.372999999963213
312772.7177,-36.145730277362084,-30.848269058171866,-52.45932825948354,-29.587887367928435,16.373999999952503
312772.7187,-35.88405692146978,-34.63089435286909,-55.50819718440544,-32.37076128939983,16.375
312772.7197,-34.74368565239829,-37.73904588062948,-57.86008503168342,-34.72519830530154,16.37599999998929
312772.7207,-32.86163402082614,-40.160885657003725,-59.50854926865801,-36.636385104501024,16.37699999997858
312772.7217,-30.399220795913216,-41.90618456810525,-60.47303486981068,-38.10939134419086,16.37799999996787
312772.7227,-27.534538199836813,-43.004171051885855,-60.79777565004336,-39.16721463757417,16.37899999995716
312772.7237,-24.453629636438475,-43.500093496459684,-60.54890103498938,-39.84734609858951,16.37999999994645
312772.7247,-21.34093101766499,-43.45081023510621,-59.809978517507766,-40.197195772734055,16.380999999993946
312772.7257,-18.369629549477455,-42.91981767310906,-58.676363378252226,-40.26882926955856,16.381999999983236
312772.7267,-15.692635519594026,-41.972185074952954,-57.24883217124119,-40.11353591045028,16.382999999972526
312772.7277,-13.43484414890644,-40.669877391282036,-55.62703534152016,-39.776767431064464,16.383999999961816
312772.7287,-11.68728534328539,-39.06791303016968,-53.90331217967473,-39.29395227019867,16.384999999951106
312772.7297,-10.50362429770994,-37.21172407672451,-52.157368211242684,-38.687606403204825,16.385999999998603
312772.7307,-9.899295765830319,-35.135968976324904,-50.45222607820968,-37.966035141337436,16.386999999987893
312772.7317,-9.853344303555295,-32.864902821830846,-48.831735331007586,-37.12376317923842,16.387999999977183
312772.7327,-10.31282003327875,-30.414251735147563,-47.319776983299505,-36.14365744284185,16.388999999966472
312772.7337,-11.19936419814211,-27.794380672598137,-45.921139919868935,-35.000535701106735,16.389999999955762
312772.7347,-12.417430583250766,-25.014403784542377,-44.62389365580041,-33.665900289292395,16.390999999945052
312772.7357,-13.86344541888952,-22.086777407503995,-43.40295007430195,-32.113315932608316,16.39199999999255
312772.7367,-15.435123658167093,-19.03184935487002,-42.22440801313458,-30.323875778755266,16.39299999998184
312772.7377,-17.04014251471816,-15.881822030191815,-41.05021802532489,-28.291178280907477,16.39399999997113
312772.7387,-18.6034268317997,-12.683623963834208,-39.84269528196315,-26.02527235372445,16.39499999996042
312772.7397,-20.07242177295223,-9.500272556223369,-38.56844679033143,-23.55511666875807,16.39599999994971
312772.7407,-21.419906735420884,-6.410443027160335,-37.20136058373598,-20.929233262077037,16.396999999997206
312772.7417,-22.644125020639876,-3.506123371155529,-35.72442070482215,-18.214403491411936,16.397999999986496
312772.7427,-23.766247153899627,-0.8884176882293902,-34.13025050508463,-15.49244014078171,16.398999999975786
312772.7437,-24.825429851220438,1.338256233001349,-32.420433441408484,-12.855255584474014,16.399999999965075
312772.7447,-25.87195507009026,3.0731620412161793,-30.603799558222903,-10.398614631391471,16.400999999954365
312772.7457,-26.959113637493775,4.226884907221056,-28.693982135972266,-8.215095700877812,16.402000000001863
312772.7467,-28.13461863205208,4.728979941969463,-26.70662963564401,-6.3868721120044585,16.402999999991152
312772.7477,-29.432383428157927,4.534958642202059,-24.65669373732244,-4.9789576237450754,16.403999999980442
312772.7487,-30.865473091039867,3.631968970907974,-22.556200345988344,-4.0335332929353775,16.404999999969732
312772.7497,-32.42093774045857,2.0426091397361263,-20.412847698935987,-3.5658881778425537,16.405999999959022
312772.7507,-34.05707157082472,-0.17354828769934394,-18.229670411810016,-3.5623718131779647,16.40699999994831
312772.7517,-35.70342642747352,-2.9209680296050267,-16.0058716393981,-3.9805838809896983,16.40799999999581
312772.7527,-37.26366372541856,-6.07174259909758,-13.738772512895364,-4.7518318683452305,16.4089999999851
312772.7537,-38.62107522865441,-9.471593990544937,-11.42667587393651,-5.785688605298609,16.40999999997439
312772.7547,-39.64636448321106,-12.947918579067004,-9.072307606293052,-6.976296683906747,16.41099999996368
312772.7557,-40.20707763257597,-16.319335305261166,-6.686399469647805,-8.209912811197928,16.411999999952968
312772.7567,-40.177922572198725,-19.406068766753314,-4.290924703915172,-9.373076171014862,16.413000000000466
312772.7577,-39.45113154506688,-22.040425278879795,-1.9214993261946984,-10.360730678960161,16.413999999989755
312772.7587,-37.94601094347571,-24.07660778007619,0.37148030000588883,-11.08363634218057,16.414999999979045
312772.7597,-35.61688340387125,-25.399165655312228,2.5232837451154677,-11.474469035352463,16.415999999968335
312772.7607,-32.458755099524005,-25.929483607087896,4.457045858280003,-11.492124775578196,16.416999999957625
312772.7617,-28.51022369032559,-25.62986999424604,6.087710551794056,-11.123903178543541,16.417999999946915
312772.7627,-23.853363489574598,-24.504995763070216,7.327523424438184,-10.385430651513245,16.418999999994412
312772.7637,-18.61056493409871,-22.60064346538863,8.092700584647275,-9.318380109830578,16.419999999983702
312772.7647,-12.938545042024728,-19.99993374213465,8.310752327228167,-7.986232860125192,16.42099999997299
312772.7657,-7.0199643653457136,-16.817386124471874,7.92783579013231,-6.468492829015676,16.42199999996228
312772.7667,-1.0532663022522843,-13.191325978023714,6.915462092331172,-4.8538888945438865,16.42299999995157
312772.7677,4.7585175760183756,-9.27525706910497,5.275897172476875,-3.2331766895782743,16.42399999999907
312772.7687,10.2191867177111,-5.228871160673081,3.0456721493507235,-1.6921705052031033,16.42499999998836
312772.7697,15.150206021344859,-1.2093590109348558,0.2967530899129378,-0.3055976486022739,16.42599999997765
312772.7707,19.400210789013958,2.6363766436878424,-2.8648992743889226,0.8677240506636757,16.426999999966938
312772.7717,22.852559418800517,6.178118658995886,-6.30343742650679,1.7880208420819228,16.427999999956228
312772.7727,25.430478638049376,9.307006666498008,-9.859735297352122,2.435812045347551,16.428999999945518
312772.7737,27.099544002166724,11.938317596168737,-13.36011176399202,2.811257721160802,16.429999999993015
312772.7747,27.867449137828867,14.012368990769428,-16.626592847586725,2.9317688532442236,16.430999999982305
312772.7757,27.781222690135245,15.493724135718741,-19.487988284382165,2.82820382460542,16.431999999971595
312772.7767,26.922235065928415,16.36901582463596,-21.790967770620593,2.540100200799743,16.432999999960884
312772.7777,25.399483316216752,16.643803134681228,-23.41029796703704,2.1104696927338966,16.433999999950174
312772.7787,23.341741120716662,16.338924818178892,-24.257446331885458,1.5807096516223709,16.43499999999767
312772.7797,20.889205724346784,15.486810901345425,-24.286869038408753,0.9861548692676474,16.43599999998696
312772.7807,18.18526376989904,14.128163258152316,-23.499468829734607,0.35271261440903334,16.43699999997625
312772.7817,15.368937162722194,12.309323745872863,-21.94292084832691,-0.30509941752906306,16.43799999996554
312772.7827,12.568466667805216,10.08052651586471,-19.708802629406122,-0.9845452660453791,16.43899999995483
312772.7837,9.896356581409448,7.495093722914175,-16.92670873399513,-1.6934924466068337,16.44000000000233
312772.7847,7.44605243084158,4.60949664933918,-13.755760642707381,-2.447826103566084,16.440999999991618
312772.7857,5.290269930064472,1.4840823916721428,-10.37411961762849,-3.267762477941596,16.441999999980908
312772.7867,3.480851455434589,-1.8158271386376068,-6.967258353137347,-4.173479378581191,16.442999999970198
312772.7877,2.0499083428098204,-5.218812284388676,-3.715834818127396,-5.180548429850978,16.443999999959487
312772.7887,1.011922684421152,-8.64656853438964,-0.7840324699640836,-6.295671368361285,16.444999999948777
312772.7897,0.3664367374542606,-12.013781848669469,1.690815548159236,-7.513189702815607,16.445999999996275
312772.7907,0.10095326970042245,-15.22891937808723,3.6066094203834025,-8.812757749735944,16.446999999985565
312772.7917,0.19370389459497894,-18.19608264244743,4.902324930430457,-10.158452007236761,16.447999999974854
312772.7927,0.6160087956713768,-20.81794370339498,5.560965686051573,-11.499447171522116,16.448999999964144
312772.7937,1.334041376392096,-22.99965145603766,5.609495430306782,-12.772235273174076,16.449999999953434
312772.7947,2.3099144726615894,-24.65346931892102,5.115842626486089,-13.904214688712747,16.45100000000093
312772.7957,3.50210914724827,-25.70380099749322,4.183276387983552,-14.818344766417212,16.45199999999022
312772.7967,4.865361403462347,-26.092189118833623,2.9426286892828895,-15.438461984466073,16.45299999997951
312772.7977,6.350196563610035,-25.781840506430022,1.54297001500812,-15.694794109335282,16.4539999999688
312772.7987,7.902348199622811,-24.761245600003843,0.14142575500072746,-15.529194742055662,16.45499999995809
312772.7997,9.462314228855973,-23.046517332340024,-1.1071549318338032,-14.899652323659573,16.45599999994738
312772.8007,10.96528651499644,-20.68217141656399,-2.0599961793244694,-13.78370095487284,16.456999999994878
312772.8017,12.341644993663362,-17.740196235941998,-2.595055701169794,-12.180467058376397,16.457999999984168
312772.8027,13.51813903714762,-14.317404080988052,-2.6180637379649006,-10.111214635226181,16.458999999973457
312772.8037,14.419795897440718,-10.531202285782912,-2.0676011256793734,-7.618389390382383,16.459999999962747
312772.8047,14.972508383323559,-6.514058488622354,-0.9180349923648701,-4.76329455119034,16.460999999952037
312772.8057,15.106171413562935,-2.4070455380399,0.8197124226517776,-1.6226458821574783,16.461999999999534
312772.8067,14.758168810362616,1.647072269424432,3.099443371527554,1.7156605273638008,16.462999999988824
312772.8077,13.876964816362175,5.510716083953374,5.84277592266581,5.15718421046612,16.463999999978114
312772.8087,12.425533843316174,9.057848375707746,8.943724270816409,8.605586439442861,16.464999999967404
312772.8097,10.384368326202392,12.179378632139018,12.274395177822882,11.96692225247016,16.465999999956694
312772.8107,7.753836570378547,14.78728240594375,15.691413252614336,15.153278343971143,16.466999999945983
312772.8117,4.555715629779041,16.817217987965314,19.04270510717583,18.085547944741236,16.46799999999348
312772.8127,0.8337918339944992,18.229561512694108,22.174314604152524,20.695241395357815,16.46899999998277
312772.8137,-3.346504452242799,19.00891995229969,24.93697954262617,22.92534306157714,16.46999999997206
312772.8147,-7.89939129289139,19.1623085685699,27.192264544548554,24.730329297382593,16.47099999996135
312772.8157,-12.720854100347688,18.716282742192792,28.81810643358052,26.07554713937555,16.47199999995064
312772.8167,-17.69144392795833,17.713384122317894,29.713679508893403,26.936210362664664,16.472999999998137
312772.8177,-22.67958155178992,16.20829179363874,29.803523795041922,27.296292667095074,16.473999999987427
312772.8187,-27.545188310814204,14.264058883994133,29.040897601475542,27.147585094819913,16.474999999976717
312772.8197,-32.14347877992158,11.948766266809846,27.41031765043304,26.489138280384726,16.475999999966007
312772.8207,-36.328780050896526,9.332844226872917,24.929239474312297,25.32723551798574,16.476999999955297
312772.8217,-39.95828187114006,6.4872098099956705,21.648813634325265,23.675948718389034,16.477999999944586
312772.8227,-42.89566427479751,3.4822538118412227,17.653636570015035,21.558227080730124,16.478999999992084
312772.8237,-45.0145876698115,0.38759952914113904,13.060405615148836,19.007369633134584,16.479999999981374
312772.8247,-46.20205847844721,-2.7275424806790576,8.01539201892912,16.068649281450433,16.480999999970663
312772.8257,-46.361696854737694,-5.793673056293781,2.6906679872883417,12.800797662345008,16.481999999959953
312772.8267,-45.416929399623314,-8.740247932572222,-2.7209343297656368,9.277034313935635,16.482999999949243
312772.8277,-43.31410930901481,-11.49516386960855,-8.012093212713998,5.585334435343367,16.48399999999674
312772.8287,-40.02553159067091,-13.984755743100225,-12.968382398612283,1.8276769560269224,16.48499999998603
312772.8297,-35.55226652404278,-16.134511218497334,-17.376570754582406,-1.881904934553821,16.48599999997532
312772.8307,-29.92668655973821,-17.870622484268672,-21.033549743134113,-5.420542443436087,16.48699999996461
312772.8317,-23.21451724999533,-19.12239124369488,-23.755522027991535,-8.66096867011365,16.4879999999539
312772.8327,-15.516208373896745,-19.825394556941813,-25.38702038606011,-11.476998572769046,16.489000000001397
312772.8337,-6.96740310197723,-19.925216362352987,-25.80928508331397,-13.749757352193411,16.489999999990687
312772.8347,2.2617147747755877,-19.381463045028802,-24.947515803388846,-15.374265613321993,16.490999999979977
312772.8357,11.968390464353954,-18.17172002224442,-22.77653447670688,-16.265922176672237,16.491999999969266
312772.8367,21.92073146795984,-16.29507627529136,-19.324448664876467,-16.366395324910652,16.492999999958556
312772.8377,31.86268235221126,-13.774848406500627,-14.673989549571168,-15.648444508858116,16.493999999947846
312772.8387,41.520532934761775,-10.660175291176778,-8.961309650502566,-14.119247312393545,16.494999999995343
312772.8397,50.61085480985463,-7.026225771345983,-2.372156714204561,-11.8218972884469,16.495999999984633
312772.8407,58.84965980232827,-2.9728593594591346,4.864516175670973,-8.834860258242118,16.496999999973923
312772.8417,65.96247564052844,1.3783044142483472,12.485297205780643,-5.269320190224209,16.497999999963213
312772.8427,71.69494625795504,5.88832814080626,20.203070943374993,-1.2644993039146326,16.498999999952503
312772.8437,75.82349354984616,10.406707844986657,27.719307502880437,3.0188119038554135,16.5
312772.8447,78.16553006415123,14.7781208326786,34.7373083591337,7.406142824280556,16.50099999998929
312772.8457,78.58869262728561,18.84976868767048,40.97575883170925,11.71816715683622,16.50199999997858
312772.8467,77.0185783172334,22.47885469469886,46.18190055040562,15.779906967405532,16.50299999996787
312772.8477,73.44450768677709,25.539710576787524,50.143639732330705,19.42972687153088,16.50399999995716
312772.8487,67.9229149010108,27.930100737620293,52.69994985977276,22.52754075267746,16.50499999994645
312772.8497,60.578067614695996,29.576282836342493,53.74900878494011,24.96170951730708,16.505999999993946
312772.8507,51.59994607942503,30.436487973057535,53.253626253246004,26.654204313314665,16.506999999983236
312772.8517,41.239254387574135,30.50259555300903,51.2436617513461,27.56373768109065,16.507999999972526
312772.8527,29.799688650639126,29.799908074131512,47.81529579177137,27.68671478684387,16.508999999961816
312772.8537,17.627737945043293,28.385068945867754,43.127190040948925,27.05601583729817,16.509999999951106
312772.8547,5.100434273552087,26.34230046980553,37.393742020107226,25.737775807189863,16.510999999998603
312772.8557,-7.38841191164849,23.778257974663067,30.875797323778247,23.82646589007409,16.511999999987893
312772.8567,-19.44286238663082,20.815889731029717,23.86931602890324,21.43869127749455,16.512999999977183
312772.8577,-30.67970348870738,17.587752808168318,16.692591394953155,18.706193184000085,16.513999999966472
312772.8587,-40.74279909782853,14.229257567486101,9.672681558598724,15.768574004693427,16.514999999955762
312772.8597,-49.316268354603295,10.872296548828473,3.131735048265559,12.766251491456991,16.515999999945052
312772.8607,-56.135877588222954,7.639659231886902,-2.626131842294845,9.834093215881932,16.51699999999255
312772.8617,-60.998137383064055,4.6405480950694455,-7.326810574255049,7.096092455234496,16.51799999998184
312772.8627,-63.76672634801446,1.9674019896812793,-10.73653029850966,4.661330267434773,16.51899999997113
312772.8637,-64.3760139302108,-0.30588937826131946,-12.6701658174338,2.6213374725785568,16.51999999996042
312772.8647,-62.831615074273614,-2.124419528970337,-12.997284103413163,1.0488372686468213,16.52099999994971
312772.8657,-59.20806864113902,-3.451500710575064,-11.645830280976513,-0.0022730394185691166,16.521999999997206
312772.8667,-53.64387857680935,-4.2669462774658475,-8.603486662955222,-0.4959428267327326,16.522999999986496
312772.8677,-46.334282374681486,-4.564709295537572,-3.916853549526709,-0.41230204439458856,16.523999999975786
312772.8687,-37.522207868564394,-4.350216777107059,2.311309602148699,0.25434910454511594,16.524999999965075
312772.8697,-27.487941793821797,-3.637733463031654,9.926484092242395,1.4975587730220097,16.525999999954365
312772.8707,-16.538059650046012,-2.44804990553264,18.728105910190433,3.3004579307630197,16.527000000001863
312772.8717,-4.994156862825972,-0.806721928475092,28.476267677852753,5.636992749486136,16.527999999991152
312772.8727,6.818120557855036,1.2569997511113427,38.89910846987713,8.472533604614501,16.528999999980442
312772.8737,18.579316076753187,3.7105100785774883,49.7006350387001,11.763847073722005,16.529999999969732
312772.8747,29.985331295408074,6.51752001900018,60.56877105145731,15.458523999008722,16.530999999959022
312772.8757,40.75527968357895,9.637205330295998,71.1834847488226,19.494050530072943,16.53199999994831
312772.8767,50.63788274546795,13.023051840424472,81.22489195351244,23.796779684200345,16.53299999999581
312772.8777,59.41636111208268,16.621658201893815,90.38126415505364,28.281100468445306,16.5339999999851
312772.8787,66.91185548772152,20.37176913494402,98.3568862895908,32.84910541075252,16.53499999997439
312772.8797,72.98547693502526,24.203792312310195,104.87970428095937,37.3910246027057,16.53599999996368
312772.8807,77.53912958147544,28.040002516073635,109.70867964029736,41.786628039033005,16.536999999952968
312772.8817,80.51527069794454,31.795562784940874,112.64073126734108,45.907704634748605,16.538000000000466
312772.8827,81.89577474641376,35.380401751975946,113.51709907228741,49.62161515662934,16.538999999989755
312772.8837,81.70005296825767,38.70188876865068,112.22891770408587,52.79579870229479,16.539999999979045
312772.8847,79.98255352748639,41.66815403503231,108.7217498312011,55.30300039827096,16.540999999968335
312772.8857,76.82973525224813,44.191819888758964,102.99880520702114,57.02689339448795,16.541999999957625
312772.8867,72.35657699978358,46.19385047970125,95.12257119152376,57.86770119602069,16.542999999946915
312772.8877,66.70266045780278,47.60719695096611,85.21460753922184,57.747394524222614,16.543999999994412
312772.8887,60.02785140815747,48.379917775952144,73.45331543715031,56.614044527037024,16.544999999983702
312772.8897,52.5076059099563,48.47748958306583,60.06957711697308,54.44496173785067,16.54599999997299
312772.8907,44.32794408618584,47.88408973995004,45.34027360423065,51.24833426823833,16.54699999996228
312772.8917,35.68016345250998,46.6027220900449,29.579816794105934,47.063192215241166,16.54799999995157
312772.8927,26.755402060125483,44.65416283445876,13.129967826432893,41.95765804977775,16.54899999999907
312772.8937,17.73920346188474,42.07481414846426,-3.651655404287101,36.02558262736689,16.54999999998836
312772.8947,8.806273959026433,38.91365749673002,-20.40386559168854,29.381800302568845,16.55099999997765
312772.8957,0.11565090985167112,35.22858595874635,-36.77438882904122,22.156351667767037,16.551999999966938
312772.8967,-8.193486958160992,31.08245592860482,-52.43190003207844,14.488107531457148,16.552999999956228
312772.8977,-16.00514467050624,26.539226569632653,-67.07697136360282,6.5182745080099975,16.553999999945518
312772.8987,-23.228779952027914,21.660546908023598,-80.45134661362768,-1.61573376163867,16.554999999993015
312772.8997,-29.80037721723019,16.50310564221762,-92.345054211863,-9.785615829744795,16.555999999982305
312772.9007,-35.682259066723425,11.116981546009141,-102.60101153006218,-17.876328376219146,16.556999999971595
312772.9017,-40.861651488135614,5.545130050934416,-111.11694227573847,-25.788807878909076,16.557999999960884
312772.9027,-45.34810744385139,-0.1759758062959499,-117.84461285167643,-33.44115153625599,16.558999999950174
312772.9037,-49.169978045987506,-6.014652692764244,-122.78657661163777,-40.76828423013687,16.55999999999767
312772.9047,-52.37019237048076,-11.941477134632873,-125.99078095589817,-47.72027649695778,16.56099999998696
312772.9057,-55.00165844618597,-17.92622469114978,-127.5435267131774,-54.25959819155396,16.56199999997625
312772.9067,-57.122623248537884,-23.93464586414198,-127.56136079370067,-60.35768225167819,16.56299999996554
312772.9077,-58.792325359180985,-29.925471230601037,-126.18252434463547,-65.99122418309116,16.56399999995483
312772.9087,-60.067240001152854,-35.84802320036517,-123.55856706060568,-71.13865094399388,16.56500000000233
312772.9097,-60.99815513476153,-41.640757796007655,-119.84667632481228,-75.77715751215655,16.565999999991618
312772.9107,-61.62823470922499,-47.23097183985368,-115.20316453681944,-79.88063463050653,16.566999999980908
312772.9117,-61.992128782719995,-52.5357973422124,-109.77842023384684,-83.41870504412955,16.567999999970198
312772.9127,-62.11608932252314,-57.46447683333018,-103.71347207651604,-86.35695906522234,16.568999999959487
312772.9137,-62.01895492925618,-61.921783563664576,-97.13815446415737,-88.65834659228221,16.569999999948777
312772.9147,-61.71378693929349,-65.81233190085224,-90.17071440925412,-90.28555544150309,16.570999999996275
312772.9157,-61.2098814346679,-69.04542784016346,-82.91857479790698,-91.2040979171378,16.571999999985565
312772.9167,-60.514852541744716,-71.5400470409949,-75.47988005827129,-91.3857497640451,16.572999999974854
312772.9177,-59.636485155408906,-73.22950470337986,-67.94540369059362,-90.81194566057323,16.573999999964144
312772.9187,-58.584089887868636,-74.06540052784075,-60.400396032959435,-89.4767369776109,16.574999999953434
312772.9197,-57.369156452432286,-74.02048144920084,-52.92599365600963,-87.38896017979602,16.57600000000093
312772.9207,-56.00518780013835,-73.09015931645457,-45.59989341078764,-84.5733433878724,16.57699999999022
312772.9217,-54.50669773077227,-71.29254129713914,-38.49610542057346,-81.07038606434364,16.57799999997951
312772.9227,-52.88745943126054,-68.66696605595266,-31.683728647436965,-76.93497159635523,16.5789999999688
312772.9237,-51.15819085974893,-65.2711757932045,-25.22482703730807,-72.23380217632901,16.57999999995809
312772.9247,-49.32394489355919,-61.17737992338778,-19.171610350537502,-67.04186689861106,16.58099999994738
312772.9257,-47.38152889025442,-56.46756846017858,-13.563229261834078,-61.43825536850964,16.581999999994878
312772.9267,-45.31730324830009,-51.228502159245146,-8.422568850791354,-55.50170037153096,16.582999999984168
312772.9277,-43.10569812383768,-45.546835366381316,-3.753460817172813,-49.30626726350506,16.583999999973457
312772.9287,-40.70874143367491,-39.50481328093885,0.4612712120139573,-42.91760130978905,16.584999999962747
312772.9297,-38.07681283896304,-33.17692896636797,4.260567116592669,-36.39009769995939,16.585999999952037
312772.9307,-35.150733909041975,-26.627831877835433,7.704407032641932,-29.76527666361246,16.586999999999534
312772.9317,-31.86518307127957,-19.91165741804716,10.87144820367966,-23.07153564131132,16.587999999988824
312772.9327,-28.153296037373142,-13.072807336669896,13.855000577294819,-16.325322074302594,16.588999999978114
312772.9337,-23.952189789741148,-6.148066675847634,16.757469531028484,-9.533635983201407,16.589999999967404
312772.9347,-19.20904235098696,0.8301919717769927,19.68354098472101,-2.697643591852996,16.590999999956694
312772.9357,-13.887281652198537,7.8300789724388755,22.73251543878779,4.182926270869452,16.591999999945983
312772.9367,-7.972392899522193,14.815974747279284,25.99030147955414,11.105012132397176,16.59299999999348
312772.9377,-1.4768500246942229,21.744513848133952,29.52164630116086,18.05752988986067,16.59399999998277
312772.9387,5.556285221284274,28.561239522599603,33.363203880287685,25.017220392894426,16.59499999997206
312772.9397,13.051475150261405,35.19834987986566,37.51801707226761,31.945454518724556,16.59599999996135
312772.9407,20.900795376872786,41.573863106456315,41.95191829886533,38.78633970770524,16.59699999995064
312772.9417,28.96612963106605,47.59240246781278,46.59223872141225,45.4663641760636,16.597999999998137
312772.9427,37.083445081519955,53.14765350638476,51.32906548512207,51.8956849524876,16.598999999987427
312772.9437,45.06896696240014,58.12638950677439,56.01911149215012,57.97102503087315,16.599999999976717
312772.9447,52.72692490300633,62.413811406235205,60.492075195259204,63.58000583095648,16.600999999966007
312772.9457,59.85841866408554,65.8998188257163,64.55918336160532,68.60661620127766,16.601999999955297
312772.9467,66.27085825741734,68.48573186510554,68.02344205462094,72.93741948420727,16.602999999944586
312772.9477,71.78738041954162,70.09092782116763,70.69098363321072,76.46803447657784,16.603999999992084
312772.9487,76.25563472803292,70.6588482705334,72.38280166643422,79.1094001292457,16.604999999981374
312772.9497,79.55536936672367,70.16187092302007,72.94611951886819,80.79334957404996,16.605999999970663
312772.9507,81.6043261249821,68.60462384981955,72.26464636757711,81.47707479346685,16.606999999959953
312772.9517,82.36207068948632,66.02543970298916,70.26703670963838,81.14615360487113,16.607999999949243
312772.9527,81.831528719359,62.495793698029736,66.93298183682546,79.8159272022184,16.60899999999674
312772.9537,80.0581593727403,58.11772853426739,62.296516108255375,77.53114862524873,16.60999999998603
312772.9547,77.12686326007068,53.01942815515983,56.446305606552535,74.36395833532035,16.61099999997532
312772.9557,73.15687822677864,47.34924661742263,49.52288797722461,70.4103706035117,16.61199999996461
312772.9567,68.29505157050791,41.268616111442434,41.7130347245044,65.78556272245393,16.6129999999539
312772.9577,62.70798062442129,34.94433963184105,33.24159574811432,60.61833921928491,16.614000000001397
312772.9587,56.5735770437372,28.540812529386685,24.361346430013935,55.0451891483659,16.614999999990687
312772.9597,50.07262889099285,22.212710591717446,15.341478396399381,49.20436333722916,16.615999999979977
312772.9607,43.38090776156724,16.09863177780219,6.455447680876035,43.23037075441902,16.616999999969266
312772.9617,36.66229864867186,10.316089424924098,-2.0310862325054284,37.249232858635274,16.617999999958556
312772.9627,30.063324620096967,4.958135079302391,-9.871530495070568,31.374748601269044,16.618999999947846
312772.9637,23.709306412512078,0.09174997987803722,-16.84822095608803,25.705919546173504,16.619999999995343
312772.9647,17.70225079631471,-4.242001940668585,-22.78038337176499,20.325574457435195,16.620999999984633
312772.9657,12.120414320277371,-8.02620707309208,-27.5298555246555,15.300126102390683,16.621999999973923
312772.9667,7.019354134053076,-11.264991257411204,-31.004403287111085,10.680299672270388,16.622999999963213
312772.9677,2.4341671028240124,-13.979429536180685,-33.15863683333989,6.502600337342081,16.623999999952503
312772.9687,-1.6174579422801323,-16.202899775622047,-33.99269369619768,2.7912429522836764,16.625
312772.9697,-5.1317859361735945,-17.976322196061936,-33.5489901876388,-0.43974704873578063,16.62599999998929
312772.9707,-8.115583726113096,-19.34370524147218,-31.90744172634041,-3.1845358685011567,16.62699999997858
312772.9717,-10.583027809852405,-20.348359431604198,-29.17960955316099,-5.44381655990068,16.62799999996787
312772.9727,-12.553247230708145,-21.03005150284145,-25.50224427608003,-7.22364049367222,16.62899999995716
312772.9737,-14.048670926452855,-21.423260598537013,-21.030668245528535,-8.534827138382848,16.62999999994645
312772.9747,-15.09423007466902,-21.55657765713244,-15.932375514357554,-9.39294739783591,16.630999999993946
312772.9757,-15.71734806829364,-21.453170320212102,-10.38113981866305,-9.81879271730149,16.631999999983236
312772.9767,-15.948546744565125,-21.132130067340427,-4.5518192957864345,-9.839171805641485,16.632999999972526
312772.9777,-15.82241873734807,-20.610435788139124,1.3840562335964848,-9.487826636105815,16.633999999961816
312772.9787,-15.378670758774517,-19.905216085289734,7.261922233191735,-8.806234766432969,16.634999999951106
312772.9797,-14.662935833420661,-19.035975589782044,12.927120499115684,-7.844068667157655,16.635999999998603
312772.9807,-13.727084268282777,-18.026469267115296,18.237271127821774,-6.65911441064255,16.636999999987893
312772.9817,-12.628829362066027,-16.90596034230423,23.064220430734114,-5.3165085316454315,16.637999999977183
312772.9827,-11.430516578464589,-15.709676050968072,27.29570009454167,-3.8872272279532774,16.638999999966472
312772.9837,-10.197093191784127,-14.47837226517341,30.83679959332942,-2.4458483205592234,16.639999999955762
312772.9847,-8.99336657107381,-13.257022708122532,33.61130412835675,-1.0676942092895283,16.640999999945052
312772.9857,-7.88076028630136,-12.092749810018146,35.5628931363273,0.17445626269204106,16.64199999999255
312772.9867,-6.913856214502115,-11.032201539323022,36.65613924522007,1.213836652762646,16.64299999998184
312772.9877,-6.137058373129672,-10.118642565721453,36.877203476763114,1.9930542823281274,16.64399999997113
312772.9887,-5.581724398992076,-9.389062156590823,36.23409680978778,2.4670477842911036,16.64499999996042
312772.9897,-5.264081672732506,-8.871601764737635,34.75637563900141,2.605367930902659,16.64599999994971
312772.9907,-5.184179657685801,-8.583572415516347,32.494160709552325,2.3935623796850676,16.646999999997206
312772.9917,-5.326034729462267,-8.530269446391145,29.516413912295373,1.833523806162796,16.647999999986496
312772.9927,-5.659008590423329,-8.704706841131628,25.908469847804547,0.9427572497691178,16.648999999975786
312772.9937,-6.140338496950063,-9.088294809689799,21.76889169863643,-0.24737357596303164,16.649999999965075
312772.9947,-6.718620101732202,-9.652383383866361,17.205794434812038,-1.694260898317831,16.650999999954365
312772.9957,-7.337944371603543,-10.360502938559451,12.332842963601921,-3.347282627256391,16.652000000001863
312772.9967,-7.942319607235612,-11.17106008729684,7.265179499229264,-5.15134024517687,16.652999999991152
312772.9977,-8.479975927405148,-12.040202614808646,2.1155560455246896,-7.050368600759777,16.653999999980442
312772.9987,-8.907156760802804,-12.92455521486997,-3.0090598204784196,-8.99048807625968,16.654999999969732
312772.9997,-9.191049756830177,-13.783550324775879,-8.010175512048871,-10.922512429796264,16.655999999959022
312773.0007,-9.311593690189591,-14.581132899564432,-12.799595102431425,-12.803600643022847,16.65699999994831
312773.0017,-9.262010179470447,-15.286698458684462,-17.300292973571683,-14.597940664193333,16.65799999999581
312773.0027,-9.048038137228376,-15.875221008739693,-21.446358408279174,-16.276466377353486,16.6589999999851
312773.0037,-8.685981679367718,-16.326630269767467,-25.182129378427085,-17.81572393869256,16.65999999997439
312773.0047,-8.199805008465452,-16.62459395373149,-28.4607229425029,-19.196106791746917,16.66099999996368
312773.0057,-7.617607606479314,-16.754939140272455,-31.242238121828343,-20.39975815171463,16.661999999952968
312773.0067,-6.967879119112391,-16.70399740219758,-33.491946271099486,-21.408485822024172,16.663000000000466
312773.0077,-6.275958071433654,-16.45717458622251,-35.178788190326046,-22.202040650700408,16.663999999989755
312773.0087,-5.561098652919507,-15.998025210640737,-36.274464654146,-22.757074805845527,16.664999999979045
312773.0097,-4.834486478352044,-15.308054690791497,-36.75333981744982,-23.047022011456562,16.665999999968335
312773.0107,-4.09844328132022,-14.367385607097397,-36.59328118503051,-23.043036029209727,16.666999999957625
312773.0117,-3.3469318297261688,-13.156316188666779,-35.777444988529446,-22.715996847695145,16.667999999946915
312773.0127,-2.567329013621115,-11.65768197894645,-34.29689382899372,-22.039459749819166,16.668999999994412
312773.0137,-1.743291934679684,-9.859818561346552,-32.15381746518352,-20.993295407014166,16.669999999983702
312773.0147,-0.8584141265213274,-7.759827472940492,-29.3650306116293,-19.567663780079307,16.67099999997299
312773.0157,0.09972932872363344,-5.3667806972109116,-25.965354898506565,-17.766893348393623,16.67199999996228
312773.0167,1.1356069212190503,-2.7044701909805213,-22.010464191614847,-15.612809177542596,16.67299999995157
312773.0177,2.2422955322268416,0.18667736905158572,-17.57878785751039,-13.14707332678853,16.67399999999907
312773.0187,3.399014911542322,3.2488437151080096,-12.772125418945471,-10.432168870522633,16.67499999998836
312773.0197,4.569975374438048,6.407447720942053,-7.714723957303117,-7.550769089196177,16.67599999997765
312773.0207,5.704756874554943,9.573262076695833,-2.5506979870088506,-4.603376316880764,16.676999999966938
312773.0217,6.740285320440636,12.645976883792173,2.5601815873000215,-1.7042770235893638,16.677999999956228
312773.0227,7.604307980719713,15.519022078206712,7.448151516566049,1.0239748251482375,16.678999999945518
312773.0237,8.22011072348985,18.08532482773546,11.940254469721532,3.457181753433743,16.679999999993015
312773.0247,8.512082132994133,20.243567829126643,15.867836396391297,5.476746084281729,16.680999999982305
312773.0257,8.411627847353424,21.90444175925481,19.074228047138952,6.976962666818358,16.681999999971595
312773.0267,7.86288399970777,22.996358556749897,21.42206100349522,7.871760233149507,16.682999999960884
312773.0277,6.827678107740272,23.470115924191543,22.799683392350552,8.100315198486701,16.683999999950174
312773.0287,5.28924054832097,23.302076823865793,23.12620453372307,7.631041021897382,16.68499999999767
312773.0297,3.2542757813040777,22.495545335420022,22.354806104359618,6.463584206314451,16.68599999998696
312773.0307,0.7531504773453864,21.08017220133017,20.4741006748936,4.628623821849489,16.68699999997625
312773.0317,-2.1618679615574377,19.109396318662608,17.507483843901397,2.1854604473669808,16.68799999996554
312773.0327,-5.42020102973854,16.656106614914027,13.510598386881563,-0.7824245112415045,16.68899999995483
312773.0337,-8.938074043146429,13.806875532516115,8.567191563231386,-4.173475155358276,16.69000000000233
312773.0347,-12.624696680086299,10.655254727969684,2.783784154602261,-7.875315525583981,16.690999999991618
312773.0357,-16.38893318641319,7.294721688168454,-3.716331886541207,-11.772525428722812,16.691999999980908
312773.0367,-20.145823032051194,3.811912373597215,-10.799201561181842,-15.754257430889185,16.692999999970198
312773.0377,-23.82231017115668,0.28076383704960145,-18.325861861731465,-19.721023112363614,16.693999999959487
312773.0387,-27.361599023002974,-3.2418786544173295,-26.157047795941644,-23.59004743328033,16.694999999948777
312773.0397,-30.7256738740296,-6.718758450258238,-34.15656774061599,-27.298717983383863,16.695999999996275
312773.0407,-33.89568592483136,-10.132543503856537,-42.19312200359573,-30.80583024728674,16.696999999985565
312773.0417,-36.87011408865917,-13.483933097730102,-50.140520736339845,-34.09053547576153,16.697999999974854
312773.0427,-39.66082367810034,-16.787675609857484,-57.87644859800953,-37.14911572142015,16.698999999964144
312773.0437,-42.287361081966466,-20.066839771403902,-65.28010451017747,-39.98992090038153,16.699999999953434
312773.0447,-44.77001206910478,-23.34585859145181,-72.22919640546077,-42.626985492375354,16.70100000000093
312773.0457,-47.12229783165614,-26.64299940691809,-78.59687616408125,-45.07297996804539,16.70199999999022
312773.0467,-49.343671170469,-29.962991788750475,-84.24924596471955,-47.33223039106246,16.70299999997951
312773.0477,-51.413195178157245,-33.29055853459889,-89.04404643118173,-49.394550299923516,16.7039999999688
312773.0487,-53.28493426040701,-36.58554067516877,-92.83104797134999,-51.23056951380802,16.70499999995809
312773.0497,-54.88566476483644,-39.780188443118135,-95.45451508611004,-52.7891190258143,16.70599999994738
312773.0507,-56.1153287498758,-42.77901563494691,-96.75791121983062,-53.99704999655809,16.706999999994878
312773.0517,-56.85042424413506,-45.4613991702238,-96.59077663288349,-54.76164379644164,16.707999999984168
312773.0527,-56.95026807450228,-47.68686742573445,-94.8174656700682,-54.97552885174248,16.708999999973457
312773.0537,-56.265805320461475,-49.30278104682636,-91.32719673142846,-54.52378076724858,16.709999999962747
312773.0547,-54.65039604572952,-50.1538899199032,-86.04467216022722,-53.29266709467217,16.710999999952037
312773.0557,-51.97180743668509,-50.0930699072824,-78.94038755669224,-51.179327601765934,16.711999999999534
312773.0567,-48.12449694739572,-48.99241956674143,-70.03968732141011,-48.101571569716505,16.712999999988824
312773.0577,-43.041203626315536,-46.75384225521762,-59.429645471327376,-44.00693665713752,16.713999999978114
312773.0587,-36.70287819106079,-43.3182585160714,-47.26295995390268,-38.880193772706534,16.714999999967404
312773.0597,-29.146078101695284,-38.67268654204311,-33.75823837767988,-32.748596612975426,16.715999999956694
312773.0607,-20.46712494514616,-32.85458718229004,-19.19630879278044,-25.684353466150803,16.716999999945983
312773.0617,-10.822554133104683,-25.95308079112401,-3.9124895920979177,-17.80402680026265,16.71799999999348
312773.0627,-0.4256618742673674,-18.1068877916418,11.71492835604026,-9.264822557679803,16.71899999998277
312773.0637,10.460751571256745,-9.499101684299085,27.2794249890726,-0.2579926826676421,16.71999999997206
312773.0647,21.535055048852954,-0.3491498676594582,42.36338581628169,9.00018263379165,16.72099999996135
312773.0657,32.470230397369214,9.097487357192174,56.55658493220218,18.279164304408837,16.72199999995064
312773.0667,42.929234233417105,18.58106417424729,69.47484492701753,27.345863385545368,16.722999999998137
312773.0677,52.58128537748887,27.840026046147116,80.7776669248572,35.976406284044366,16.723999999987427
312773.0687,61.118024334893335,36.623268426862495,90.18368435346252,43.967078432284204,16.724999999976717
312773.0697,68.26851143649093,44.70137148077917,97.48294480266395,51.14365059056075,16.725999999966007
312773.0707,73.81212840174581,51.876093065450185,102.54525226385577,57.36844142504232,16.726999999955297
312773.0717,77.58861421286629,57.98756570908194,105.32408757509776,62.54467265844368,16.727999999944586
312773.0727,79.50468495249108,62.91884619226739,105.85594397111946,66.61790983858758,16.728999999992084
312773.0737,79.53693950775697,66.59768970988362,104.25524092254423,69.5746308329577,16.729999999981374
312773.0747,77.73101758077846,68.99564431536506,100.70528660738431,71.43820308307727,16.730999999970663
312773.0757,74.19723188326762,70.1247659431992,95.44602320926633,72.26275836897602,16.731999999959953
312773.0767,69.10312295581673,70.03242263082484,88.75948965311719,72.12561250742418,16.732999999949243
312773.0777,62.6635661653555,68.79477529113603,80.95405881318598,71.11897395921791,16.73399999999674
312773.0787,55.12918398614012,66.50958307242198,72.3485427275017,69.34171248708235,16.73499999998603
312773.0797,46.773875860004175,63.28898102330936,63.257209151900405,66.89191587046597,16.73599999997532
312773.0807,37.88227164748073,59.252819099104165,53.97662225133484,63.86085465190348,16.73699999996461
312773.0817,28.737847382358883,54.52304237033195,44.775022293244625,60.328813117640394,16.7379999999539
312773.0827,19.612323171769674,49.21944488313276,35.884712289640326,56.3630450460058,16.739000000001397
312773.0837,10.75680606146568,43.45695941298483,27.497645961312614,52.01789425508782,16.739999999990687
312773.0847,2.39496157042623,37.3444694828186,19.764135503602244,47.33690318747087,16.740999999979977
312773.0857,-5.281686454606232,30.98496569282978,12.794343635040857,42.35653782754668,16.741999999969266
312773.0867,-12.116400360275668,24.47673130228705,6.662014255512847,37.11100206580198,16.742999999958556
312773.0877,-17.988036299962445,17.915144791569666,1.409747423608438,31.63751324920775,16.743999999947846
312773.0887,-22.81034204647499,11.394638346038635,-2.944950902316541,25.981371993833744,16.744999999995343
312773.0897,-26.53013581495865,5.010354475252217,-6.4036109981003095,20.200186358178712,16.745999999984633
312773.0907,-29.124773617993235,-1.1409032274388997,-8.981421537880435,14.366699981690502,16.746999999973923
312773.0917,-30.599284870275156,-6.960731357757626,-10.703075709679968,8.569816740780752,16.747999999963213
312773.0927,-30.983490468880042,-12.35037507296581,-11.600191294962528,2.9135968620481285,16.748999999952503
312773.0937,-30.32932473542372,-17.21318815505045,-11.71043190689705,-2.4857963614562246,16.75
312773.0947,-28.708475101844456,-21.458175204605762,-11.078228262836284,-7.5050136411877375,16.75099999998929
312773.0957,-26.21034491024244,-25.00434451307876,-9.75678826097591,-12.019925864186819,16.75199999997858
312773.0967,-22.940248373362724,-27.785485146684426,-7.810914381670489,-15.912990856401539,16.75299999996787
312773.0977,-19.017673969493156,-29.754905527707198,-5.320033930945606,-19.080948082105074,16.75399999995716
312773.0987,-14.574411695867306,-30.889641333859387,-2.3808032800416585,-21.442163768107335,16.75499999994645
312773.0997,-9.752335214513089,-31.193661233287624,0.8913242019627259,-22.942967329333634,16.755999999993946
312773.1007,-4.700662247290196,-30.69966826064883,4.362078622530705,-23.562399552639913,16.756999999983236
312773.1017,0.42741842385561013,-29.46920615938403,7.880257061144853,-23.314925960388443,16.757999999972526
312773.1027,5.478775208449137,-27.590923243000976,11.281664319969162,-22.250842347954656,16.758999999961816
312773.1037,10.304935389294574,-25.177007600666293,14.395042565678496,-20.454297183182952,16.759999999951106
312773.1047,14.767073571052451,-22.357971318890936,17.049699496813854,-18.03905877843799,16.760999999998603
312773.1057,18.741107398445326,-19.27611204298366,19.084345879955343,-15.142344995077233,16.761999999987893
312773.1067,22.122552377628832,-16.078103133153697,20.35649785121466,-11.91719231514345,16.762999999977183
312773.1077,24.83075289815675,-12.907247014955217,20.75170294898966,-8.523955166186026,16.763999999966472
312773.1087,26.81211199795752,-9.895962031447143,20.191821155885158,-5.1215856419405235,16.764999999955762
312773.1097,28.041989996052408,-7.15905771686745,18.641636212841814,-1.8593438135844922,16.765999999945052
312773.1107,28.52502918053718,-4.788288388764828,16.113184107942228,1.1304690245459563,16.76699999999255
312773.1117,28.293781179333244,-2.848566518361982,12.667354497508823,3.738270774264457,16.76799999998184
312773.1127,27.405654552489125,-1.376075845713219,8.412531165411885,5.881117672263957,16.76899999997113
312773.1137,25.93834888085849,-0.378363122886666,3.5002700728959417,7.504620014678413,16.76999999996042
312773.1147,23.9840831771467,0.1636780666041878,-1.8817530520485102,8.582872314550455,16.77099999994971
312773.1157,21.6430459934494,0.29217224803735053,-7.519080151980903,9.116585395613171,16.771999999997206
312773.1167,19.016579087899675,0.0673454877319489,-13.181472914824727,9.1297512066251,16.772999999986496
312773.1177,16.200646064065396,-0.43821101806508866,-18.634837350029297,8.665275022174237,16.773999999975786
312773.1187,13.2801264201664,-1.145588364800939,-23.65326966225991,7.780065444719776,16.774999999965075
312773.1197,10.324413315231661,-1.9754104350692996,-28.030429361522277,6.54007660451726,16.775999999954365
312773.1207,7.384684581245021,-2.8530270350149816,-31.589516353259892,5.015750909078064,16.777000000001863
312773.1217,4.493070354528776,-3.712677366465932,-34.19125503657741,3.2782214514278163,16.777999999991152
312773.1227,1.6637703378933446,-4.500370458353213,-35.7394573527476,1.3965118560638032,16.778999999980442
312773.1237,-1.1040050627429654,-5.17536631664977,-36.183932118017445,-0.5641679303742195,16.779999999969732
312773.1247,-3.8215657806459986,-5.710282857428819,-35.52071201250092,-2.5430729658512514,16.780999999959022
312773.1257,-6.505186902219447,-6.089985127789091,-33.789764474529065,-4.483693211541547,16.78199999994831
312773.1267,-9.170015539226481,-6.309522269299447,-31.070522312477113,-6.332914985976984,16.78299999999581
312773.1277,-11.824045391644278,-6.371454147409626,-27.47570098617265,-8.039911123947356,16.7839999999851
312773.1287,-14.462766737204767,-6.282947121350573,-23.14395321535375,-9.555117512249753,16.78499999997439
312773.1297,-17.065045723176592,-6.053014713570561,-18.231943550990206,-10.829629074186224,16.78599999996368
312773.1307,-19.590681517961595,-5.69023580462928,-12.906406392915285,-11.8152819409605,16.786999999952968
312773.1317,-21.979942398535808,-5.201206170859091,-7.336685863677691,-12.465588315295037,16.788000000000466
312773.1327,-24.155205402136538,-4.589877663516018,-1.6881541050686146,-12.737567816117242,16.788999999989755
312773.1337,-26.024634626666497,-3.857824332065846,3.883221948845138,-12.594387683252242,16.789999999979045
312773.1347,-27.48764770638867,-3.0053586747758394,9.235032619585812,-12.008598857283964,16.790999999968335
312773.1357,-28.441755155436326,-2.0333162049305273,14.241297623675065,-10.965649813524387,16.791999999957625
312773.1367,-28.790228034041053,-0.9452435915913188,18.79417692616521,-9.467287294317925,16.792999999946915
312773.1377,-28.44996740348665,0.25032666509717527,22.804728655410567,-7.534421660582211,16.793999999994412
312773.1387,-27.358921657106695,1.537848381921721,26.202976812849514,-5.20904917318387,16.794999999983702
312773.1397,-25.482427431603462,2.893292749703779,28.93756689392199,-2.5548840746614427,16.79599999997299
312773.1407,-22.81793359793225,4.283493815078963,30.975264643091936,0.3435449823720551,16.79699999996228
312773.1417,-19.397698048011375,5.666477995529355,32.30049701722821,3.383446068054374,16.79799999995157
312773.1427,-15.28921168015723,6.992841018079505,32.9150537659099,6.447921923646772,16.79899999999907
312773.1437,-10.59328814552457,8.208120311923514,32.83797431220452,9.411537245622675,16.79999999998836
312773.1447,-5.43994495622613,9.2559985513493,32.105550682164704,12.146952799384298,16.80099999997765
312773.1457,0.017625123678258952,10.082076653946196,30.77129581945705,14.532165483203308,16.801999999966938
312773.1467,5.610548906420738,10.6378825254105,28.905668847052194,16.457814304583906,16.802999999956228
312773.1477,11.162686558377345,10.884743078919502,26.595322879847217,17.833981152761677,16.803999999945518
312773.1487,16.499362111126754,10.797146030812598,23.9416511349297,18.595936470848105,16.804999999993015
312773.1497,21.455805685452706,10.365255305540016,21.05845323276579,18.708352536983234,16.805999999982305
312773.1507,25.88475017091032,9.5963162376936,18.068621292271583,18.167625048043817,16.806999999971595
312773.1517,29.662717243130295,8.514787165691185,15.099846455802572,17.002096512557436,16.807999999960884
312773.1527,32.69465402550237,7.161152551543697,12.279459764490102,15.270148528789097,16.808999999950174
312773.1537,34.91672948291225,5.589497566173933,9.728634192694102,13.056308134176977,16.80999999999767
312773.1547,36.29725431778215,3.864042538574131,7.556274310931148,10.465679308462553,16.81099999998696
312773.1557,36.83583516872925,2.0549357159420816,5.852994831553727,7.617148762516675,16.81199999997625
312773.1567,36.56100004630848,0.2336741484582408,4.685629944315116,4.635912389464346,16.81299999996554
312773.1577,35.526626503884664,-1.531442218166988,4.092715945625171,1.645916191957211,16.81399999995483
312773.1587,33.807559914651875,-3.1794227680348315,4.081348214750499,-1.2372010341970363,16.81500000000233
312773.1597,31.49482346035465,-4.6599085157877544,4.625732254709257,-3.912135415107223,16.815999999991618
312773.1607,28.69079544615998,-5.935427815943128,5.667633439361796,-6.2964944341220574,16.816999999980908
312773.1617,25.504668854740718,-6.982415855073774,7.118790872868666,-8.32964267423069,16.817999999970198
312773.1627,22.048421583725766,-7.790952118722033,8.86520952321258,-9.973701799965092,16.818999999959487
312773.1637,18.43342492504793,-8.363298189765562,10.77309513871566,-11.212760131709192,16.819999999948777
312773.1647,14.7677150450717,-8.71143781620752,12.696062180622445,-12.050507247297997,16.820999999996275
312773.1657,11.15385980206302,-8.853920038809093,14.483138771993655,-12.506643570482835,16.821999999985565
312773.1667,7.6872819408887185,-8.812374144403755,15.987024796414689,-12.612511320840278,16.822999999974854
312773.1677,4.454857574125281,-8.60809518071237,17.072036725936687,-12.406442821305982,16.823999999964144
312773.1687,1.533600348135974,-8.259087362422303,17.621198342007812,-11.929320993593752,16.824999999953434
312773.1697,-1.0107328275649867,-7.777900684572146,17.542008563877868,-11.220795976791143,16.82600000000093
312773.1707,-3.125222912135446,-7.170508327381177,16.770529987358064,-10.316507162461752,16.82699999999022
312773.1717,-4.771586759423541,-6.4363575734227325,15.27358435376736,-9.246531846873326,16.82799999997951
312773.1727,-5.9281314462311645,-5.569596449221815,13.049000814219218,-8.035133735488596,16.8289999999688
312773.1737,-6.591713696295837,-4.561345429261909,10.124024475003116,-6.701732199119796,16.82999999995809
312773.1747,-6.779475236801019,-3.4027620670982675,6.552140879827103,-5.262872350769245,16.83099999994738
312773.1757,-6.530071217321822,-2.088549210037772,2.408692583200195,-3.7348613408035125,16.831999999994878
312773.1767,-5.90408851986947,-0.6204951442766234,-2.2142547146692912,-2.13665970541618,16.832999999984168
312773.1777,-4.983369467903425,0.9893861241119543,-7.213304412962802,-0.49258617400735155,16.833999999973457
312773.1787,-3.869015320756308,2.716521132422668,-12.478902450465775,1.165586690272627,16.834999999962747
312773.1797,-2.6779395745750363,4.522587579667679,-17.899876691787394,2.79750213139704,16.835999999952037
312773.1807,-1.537965585596515,6.355700522242595,-23.367028729240555,4.354303000059741,16.836999999999534
312773.1817,-0.5816047517481199,8.1520711046089,-28.775594716761447,5.780041734330821,16.837999999988824
312773.1827,0.06120379030294445,9.839085941791279,-34.026536247134814,7.0143763544098325,16.838999999978114
312773.1837,0.27097862601060324,11.339606719634318,-39.02676546127412,7.996360785343353,16.839999999967404
312773.1847,-0.053311799819042445,12.577156455305074,-43.6885354228397,8.669003056164987,16.840999999956694
312773.1857,-0.9867340179665952,13.481555023588356,-47.92832408125037,8.984161415534219,16.841999999945983
312773.1867,-2.5719508994502127,13.99450314482776,-51.66559784559947,8.907287571089757,16.84299999999348
312773.1877,-4.814421070841995,14.074598291207849,-54.82185298134434,8.42151524302774,16.84399999998277
312773.1887,-7.679706446327493,13.701300453128836,-57.320298423458645,7.530633125594106,16.84499999997206
312773.1897,-11.09321892769641,12.877447961316827,-59.0864655682144,6.260570992035089,16.84599999996135
312773.1907,-14.942561516859096,11.630046308884536,-60.04991689786037,4.659157880134968,16.84699999995064
312773.1917,-19.082421237972817,10.009204752138785,-60.14708726203928,2.7940696726899064,16.847999999998137
312773.1927,-23.34176875759394,8.085261957689589,-59.325143212201645,0.7490545689107356,16.848999999987427
312773.1937,-27.532930776811387,5.9443070783991345,-57.546602167814044,-1.3813079075696773,16.849999999976717
312773.1947,-31.46194368839089,3.6824503557896144,-54.794329438710925,-3.4979122276267103,16.850999999966007
312773.1957,-34.9394856198959,1.3993132427804214,-51.07644067277314,-5.5039832907965796,16.851999999955297
312773.1967,-37.79162971064947,-0.8087192459798481,-46.43059061120346,-7.311906508046255,16.852999999944586
312773.1977,-39.869669969846434,-2.8549188865889494,-40.92713251684409,-8.849443531588163,16.853999999992084
312773.1987,-41.05834217469788,-4.6677724754082925,-34.670687902354956,-10.06479050018343,16.854999999981374
312773.1997,-41.281889962415036,-6.195223080134604,-27.799769773446027,-10.93003222100823,16.855999999970663
312773.2007,-40.50759920589659,-7.4072614324382515,-20.484246242839653,-11.442685157737452,16.856999999959953
312773.2017,-38.74662637063286,-8.29668677409531,-12.920602687899205,-11.625191432676788,16.857999999949243
312773.2027,-36.052160535195014,-8.878024191715948,-5.325144287335504,-11.52240931335324,16.85899999999674
312773.2037,-32.51516486224613,-9.184752594950412,2.074540054986964,-11.197325467541447,16.85999999998603
312773.2047,-28.25812315209286,-9.265148001994595,9.049373431013917,-10.72537354021213,16.86099999997532
312773.2057,-23.427354935067907,-9.177166366686075,15.37924557075114,-10.187867172163797,16.86199999996461
312773.2067,-18.184546691981385,-8.98286754682103,20.863451933195094,-9.665131688326122,16.8629999999539
312773.2077,-12.698170725827696,-8.742910049669563,25.330424480290066,-9.229940122869406,16.864000000001397
312773.2087,-7.13542617479892,-8.511622600556901,28.646100880154,-8.941824053341614,16.864999999990687
312773.2097,-1.655243660343379,-8.333086115171325,30.720373186139927,-8.842741366183681,16.865999999979977
312773.2107,3.597243632730607,-8.2385458546896,31.511197994730214,-8.954450167508195,16.866999999969266
312773.2117,8.49452953451499,-8.245330005424522,31.026125195281487,-9.277773476064729,16.867999999958556
312773.2127,12.928815956283403,-8.357292186490183,29.321195992285865,-9.79375902894866,16.868999999947846
312773.2137,16.812475389161975,-8.566637492220494,26.497355516454796,-10.466559934559417,16.869999999995343
312773.2147,20.07718145887916,-8.856850578383137,22.69470364063525,-11.247702259901724,16.870999999984633
312773.2157,22.672112997036074,-9.206334275570228,18.085053854665297,-12.081280289905898,16.871999999973923
312773.2167,24.56170658133027,-9.59229940243304,12.863371715280595,-12.909541100981977,16.872999999963213
312773.2177,25.72344616387564,-9.994427728223116,7.238713382906434,-13.678294641578193,16.873999999952503
312773.2187,26.146135414114582,-10.397862286153417,1.4252781852643102,-14.341615817183586,16.875
312773.2197,25.829003639491887,-10.795159157612146,-4.3658704704073745,-14.865387761044119,16.87599999998929
312773.2207,24.781859749616267,-11.186954242407465,-9.933966557187741,-15.229362017209398,16.87699999997858
312773.2217,23.026345105084232,-11.581245143379379,-15.09427456944874,-15.427568954639852,16.87799999996787
312773.2227,20.59816253145248,-11.99134702479519,-19.68224092758523,-15.467084525937818,16.87899999995716
312773.2237,17.54999379116672,-12.43273572929459,-23.556069909242947,-15.365330174694778,16.87999999994645
312773.2247,13.954679328828027,-12.919125465134593,-26.597876444264315,-15.146234222460137,16.880999999993946
312773.2257,9.908137755902228,-13.458227866375665,-28.713686453528652,-14.8357003066771,16.881999999983236
312773.2267,5.531460077182755,-14.047693430541567,-29.832635168717463,-14.456899703979369,16.882999999972526
312773.2277,0.9716317889936086,-14.671738976609376,-29.90574846845613,-14.02592255830197,16.883999999961816
312773.2287,-3.599584376523871,-15.298914694348332,-28.90467996257035,-13.548286332116946,16.884999999951106
312773.2297,-7.988936181903805,-15.881365698526455,-26.820720481532515,-13.01671187427408,16.885999999998603
312773.2307,-11.987289335482219,-16.355804777938957,-23.66430435266614,-12.410447119384592,16.886999999987893
312773.2317,-15.37749172048003,-16.646248296957314,-19.465119522257833,-11.696258610676626,16.887999999977183
312773.2327,-17.94420786427694,-16.66839180697497,-14.272799773344016,-10.831037732600157,16.888999999966472
312773.2337,-19.485222808832695,-16.3353329511089,-8.158051575937561,-9.765799088017763,16.889999999955762
312773.2347,-19.82353016925214,-15.564203390046377,-1.2139596386182578,-8.45069985727248,16.890999999945052
312773.2357,-18.819383381657875,-14.283163408213094,6.442863678627452,-6.840596217729875,16.89199999999255
312773.2367,-16.381416848403095,-12.438153790025705,14.671660017419104,-4.900587474991624,16.89299999998184
312773.2377,-12.475944540321903,-9.99879613813704,23.307808635410073,-2.61098732701553,16.89399999997113
312773.2387,-7.1336209501039285,-6.962886457810147,32.16433392717601,0.028793791273634472,16.89499999996042
312773.2397,-0.4527996190229933,-3.3590335586571736,41.03486871249499,2.997874965875496,16.89599999994971
312773.2407,7.40086243013742,0.7528554527782724,49.6981819480557,6.253320155751866,16.896999999997206
312773.2417,16.19874632647701,5.283358955254191,57.924234663559574,9.731454390222819,16.897999999986496
312773.2427,25.657465610358845,10.117514656259653,65.48157524405649,13.351010531848473,16.898999999975786
312773.2437,35.45053228015466,15.120712459200695,72.14573953448553,17.01785869011397,16.899999999965075
312773.2447,45.22284887825844,20.146065103979733,77.70819710129051,20.63091454511018,16.900999999954365
312773.2457,54.60716140891811,25.042682782156184,81.98529505961852,24.088704270901435,16.902000000001863
312773.2467,63.24145315533362,29.66419575602763,84.82660490278329,27.295994401610443,16.902999999991152
312773.2477,70.78618322627207,33.876845337747405,86.12208158901299,30.169882146088202,16.903999999980442
312773.2487,76.94028279097797,37.56650110988419,85.80749910324005,32.64478717850758,16.904999999969732
312773.2497,81.45491576853094,40.64405794601063,83.86772952244488,34.67588598770703,16.905999999959022
312773.2507,84.14418101962407,43.04881165361219,80.33757557981234,36.24067527784125,16.90699999994831
312773.2517,84.89216490496548,44.74959359725633,75.30003841564087,37.33852799312288,16.90799999999581
312773.2527,83.65602618317398,45.74364564749006,68.88208845448744,37.98829740796528,16.9089999999851
312773.2537,80.46508601040081,46.053418513111566,61.248192506245466,38.224212931979885,16.90999999997439
312773.2547,75.41617951946179,45.721660110857705,52.59201850233335,38.09047760642969,16.91099999996368
312773.2557,68.6657784947072,44.805308963043,43.126876287550985,37.63510549840861,16.911999999952968
312773.2567,60.41959670316366,43.36880688686026,33.07554669635202,36.903614698955124,16.913000000000466
312773.2577,50.9205252383431,41.47748630394264,22.66019345307607,35.93321058306615,16.913999999989755
312773.2587,40.435805851100774,39.191666733679625,12.093039276119267,34.74805215101047,16.914999999979045
312773.2597,29.244333725102326,36.56201467210351,1.5684196397412895,33.35609520216804,16.915999999968335
312773.2607,17.62489251078044,33.626588959476074,-8.743289701478371,31.747858831764496,16.916999999957625
312773.2617,5.845974988948704,30.409822624714685,-18.69953252314291,29.89727995400803,16.917999999946915
312773.2627,-5.842351069708874,26.92349841904298,-28.187064401974332,27.764621252290464,16.918999999994412
312773.2637,-17.214290562683107,23.169577235375332,-37.12111799423605,25.301199884584936,16.919999999983702
312773.2647,-28.07186230918969,19.144555077854505,-45.44247212677358,22.45552613467654,16.92099999997299
312773.2657,-38.24631758967397,14.84487244239786,-53.11282432152719,19.18029988044485,16.92199999996228
312773.2667,-47.597787203330554,10.272794031614797,-60.108999167969465,15.439621700404684,16.92299999995157
312773.2677,-56.01362563321193,5.4421263726010585,-66.41661016473658,11.21574339695402,16.92399999999907
312773.2687,-63.40597942240403,0.38315055632017914,-72.02382281101141,6.514712876411516,16.92499999998836
312773.2697,-69.709104023121,-4.8537842530934086,-76.91583923418032,1.3703580550303724,16.92599999997765
312773.2707,-74.87689290178454,-10.196440367017866,-81.07064206985373,-4.153804449578561,16.926999999966938
312773.2717,-78.88097399234105,-15.550916835328673,-84.45640527820274,-9.9649706158167,16.927999999956228
312773.2727,-81.709585752056,-20.80400633934349,-87.03081411486608,-15.943793764674158,16.928999999945518
312773.2737,-83.36728529339562,-25.827574590241642,-88.74235095249824,-21.949301568558983,16.929999999993015
312773.2747,-83.87538290069507,-30.484667613991594,-89.5334153757689,-27.825624918465753,16.930999999982305
312773.2757,-83.27285870135177,-34.63689313602626,-89.34497353068744,-33.41002172162914,16.931999999971595
312773.2767,-81.61741397375548,-38.152503636957974,-88.12228923495643,-38.54156902427632,16.932999999960884
312773.2777,-78.9862531854622,-40.91454088930777,-85.8211909254843,-43.06984375095294,16.933999999950174
312773.2787,-75.47618984421399,-42.828390518147124,-82.41428282246135,-46.86292022494589,16.93499999999767
312773.2797,-71.20272025916502,-43.828140775826995,-77.89651915415189,-49.81408016182445,16.93599999998696
312773.2807,-66.29780910555684,-43.881237540682,-72.28962475877796,-51.846751113411024,16.93699999997625
312773.2817,-60.90626867790666,-42.991068147574836,-65.64495640555758,-52.917350595980785,16.93799999996554
312773.2827,-55.1807750889778,-41.197276924543424,-58.04454485114245,-53.015899845724334,16.93899999995483
312773.2837,-49.27573193122469,-38.57379968899054,-49.60022292670784,-52.16446557459587,16.94000000000233
312773.2847,-43.34034672366712,-35.22478642443452,-40.450913269348376,-50.413672032424046,16.940999999991618
312773.2857,-37.511410546081436,-31.27874496090273,-30.758304314690406,-47.83768217337626,16.941999999980908
312773.2867,-31.90635220080938,-26.881369788527397,-20.70127036755807,-44.528161725683525,16.942999999970198
312773.2877,-26.617164978957046,-22.187608470948508,-10.469479747533661,-40.58780362679305,16.943999999959487
312773.2887,-21.705771971257228,-17.35355697717833,-0.25667724165024813,-36.12399785151375,16.944999999948777
312773.2897,-17.201306064179544,-12.528762757781271,9.745878695537767,-31.243183825426076,16.945999999996275
312773.2907,-13.099640295263796,-7.849453407488225,19.355394567121433,-26.0463253722208,16.946999999985565
312773.2917,-9.36532523391054,-3.433106473572959,28.402595831700324,-20.62581211213461,16.947999999974854
312773.2927,-5.93588861412219,0.6253568492118893,36.73563190653736,-15.063930561687242,16.948999999964144
312773.2937,-2.728247144645162,4.255621497140081,44.22273774621593,-9.432879154964631,16.949999999953434
312773.2947,0.35320946409153525,7.412292082987153,50.75368708822246,-3.796140816067165,16.95100000000093
312773.2957,3.4074585385071177,10.073632009815114,56.24018775338203,1.7891097256248527,16.95199999999022
312773.2967,6.527312308359631,12.239007321551892,60.6154585256814,7.268985845551143,16.95299999997951
312773.2977,9.790265096989435,13.925397706200409,63.833281272741914,12.589730714426466,16.9539999999688
312773.2987,13.250453892458939,15.163379871977245,65.86683627316847,17.69489674715276,16.95499999995809
312773.2997,16.932384404081592,15.992988770912833,66.70760287300386,22.523289584767156,16.95599999994738
312773.3007,20.82693500464377,16.459822099430745,66.36454583331843,27.00800914950823,16.956999999994878
312773.3017,24.889965789269283,16.61167947719921,64.86371837898486,31.076791140791336,16.957999999984168
312773.3027,29.04364601517358,16.495929368266758,62.248307509019,34.653701813296806,16.958999999973457
312773.3037,33.180389870214555,16.15768613757328,58.579038945928424,37.66208270815631,16.959999999962747
312773.3047,37.16907817734764,15.63876960366726,53.93476188239967,40.028496442458376,16.960999999952037
312773.3057,40.86306147408139,14.97732260595981,48.412959860098745,41.687304828606734,16.961999999999534
312773.3067,44.10930408682117,14.20788920328672,42.12989338928953,42.58542894678444,16.962999999988824
312773.3077,46.75795092923669,13.361714927402307,35.22007811389344,42.68680582700745,16.963999999978114
312773.3087,48.67158468916159,12.46702496404053,27.834840706481074,41.97607178011794,16.964999999967404
312773.3097,49.733490564493955,11.549065912269949,20.13976980514107,40.46106662845968,16.965999999956694
312773.3107,49.85435250328692,10.629757395889873,12.31098347214637,38.17385960461845,16.966999999945983
312773.3117,48.97695752044058,9.726883169655451,4.530256813837802,35.17013570045066,16.96799999999348
312773.3127,47.07866770397615,8.85284673245903,-3.0208195390223556,31.526936814364408,16.96899999998277
312773.3137,44.171615304935244,8.0131116960367,-10.167361071287647,27.33890954293255,16.96999999997206
312773.3147,40.30076665204276,7.204530137285341,-16.748005242675006,22.713355198115067,16.97099999996135
312773.3157,35.54016862500603,6.413822138516134,-22.621570666181686,17.76449339959593,16.97199999995064
312773.3167,29.987822914567484,5.616498510517786,-27.67308279030617,12.607427055573268,16.972999999998137
312773.3177,23.75971808978022,4.776511559797198,-31.818705796325705,7.35232628934992,16.973999999987427
312773.3187,16.983582046765534,3.8468749022381212,-35.00917872317926,2.0993290480045794,16.974999999976717
312773.3197,9.792897119778209,2.771415947632294,-37.23144941402987,-3.0654113327055303,16.975999999966007
312773.3207,2.3216511313973327,1.4877206617150087,-38.50832493652956,-8.072209991121909,16.976999999955297
312773.3217,-5.299811745000924,-0.06879058926511,-38.89610130917788,-12.868683756728414,16.977999999944586
312773.3227,-12.94761463756531,-1.9598430285375599,-38.4802866844572,-17.4189088879038,16.978999999992084
312773.3237,-20.505773677288722,-4.238648131516537,-37.369677984770796,-21.701038601149854,16.979999999981374
312773.3247,-27.866306758746166,-6.944007559880588,-35.68917914244066,-25.70366351627356,16.980999999970663
312773.3257,-34.92824571141276,-10.094649755003147,-33.571848712192846,-29.421319727907143,16.981999999959953
312773.3267,-41.59588460169343,-13.684296189613983,-31.15072710063096,-32.84963289648654,16.982999999949243
312773.3277,-47.77667211499349,-17.67793793989491,-28.551013356409925,-35.98062435885459,16.98399999999674
312773.3287,-53.37918743482972,-22.009742166024804,-25.883136233324972,-38.798692864026286,16.98499999998603
312773.3297,-58.311624242897764,-26.582905658790885,-23.23719565800769,-41.277723874190116,16.98599999997532
312773.3307,-62.48114824597373,-31.27163618714023,-20.67914407003802,-43.3796728093172,16.98699999996461
312773.3317,-65.7943959799992,-35.925282743522295,-18.248940925381522,-45.05482872309972,16.9879999999539
312773.3327,-68.15925611657555,-40.37446620829076,-15.960759143116313,-46.24380357743631,16.989000000001397
312773.3337,-69.4879313430253,-44.43889704035887,-13.805162256235544,-46.88112456578,16.989999999990687
312773.3347,-69.70113286284766,-47.93642093296742,-11.753018833757434,-46.900148569442884,16.990999999979977
312773.3357,-68.73312465863492,-50.692720158554195,-9.760789015143128,-46.2388837728875,16.991999999969266
312773.3367,-66.53722380093,-52.55102814609201,-7.7767175526318955,-44.846206447718835,16.992999999958556
312773.3377,-63.09128695547172,-53.38119462789438,-5.747406623125582,-42.687910228968484,16.993999999947846
312773.3387,-58.40267930853721,-53.0874710825756,-3.6242244152676935,-39.752025807308684,16.994999999995343
312773.3397,-52.51223398868188,-51.61446921389288,-1.3690328724187235,-36.05290100297089,16.995999999984633
312773.3407,-45.49676711490102,-48.9508724238496,1.0412130800871908,-31.633630022479146,16.996999999973923
312773.3417,-37.46981112267029,-45.13064135911125,3.611338505805739,-26.566557329339417,16.997999999963213
312773.3427,-28.5803586017849,-40.231636357819305,6.326507649821026,-20.95174350373436,16.998999999952503
312773.3437,-19.00955920518649,-34.371766937303654,9.152539402243791,-14.913452952736272,17.0
312773.3447,-8.965470070363649,-27.70295583461804,12.037903120621458,-8.59489069801586,17.00099999998929
312773.3457,1.3238882058575612,-20.4033579640596,14.917183192573516,-2.151562625259804,17.00199999997858
312773.3467,11.61878590669264,-12.668390624737555,17.715686387070082,4.2562525838864405,17.00299999996787
312773.3477,21.67686353238443,-4.701201299682247,20.354782165247926,10.471361040387567,17.00399999995716
312773.3487,31.262489083390953,3.296781584446948,22.757519013927897,16.347260523385376,17.00499999994645
312773.3497,40.15582887361036,11.134602085091203,24.854052587464622,21.754945429883183,17.005999999993946
312773.3507,48.16109533896134,18.63930167694995,26.5864535914396,26.588434746138606,17.006999999983236
312773.3517,55.113505217220776,25.661802879912706,27.912531121430924,30.768663691118974,17.007999999972526
312773.3527,60.88458643244076,32.08088708327917,28.808403754964257,34.24552379502062,17.008999999961816
312773.3537,65.38560194936072,37.80516528636553,29.26966683406747,36.99799509604766,17.009999999951106
312773.3547,68.56900157253918,42.77310402044793,29.31112921570628,39.0324730808481,17.010999999998603
312773.3557,70.42795500076818,46.95131827645256,28.965214825057885,40.379537381383706,17.011999999987893
312773.3567,70.99414858242966,50.331466080652355,28.27923256295228,41.089526076030054,17.012999999977183
312773.3577,70.33413290992587,52.926165383235045,27.31180289676143,41.22735852989865,17.013999999966472
312773.3587,68.54458010483394,54.76439670460622,26.128783591004,40.86708461460987,17.014999999955762
312773.3597,65.74684340528718,55.88685225506259,24.799056388546287,40.08662679988644,17.015999999945052
312773.3607,62.081206550583204,56.34164610490034,23.390520412216265,38.963126481569475,17.01699999999255
312773.3617,57.7011696539173,56.18071667192472,21.9665895487086,37.56921375745904,17.01799999998184
312773.3627,52.76804867358453,55.45714205747438,20.583416269369057,35.970401030940195,17.01899999997113
312773.3637,47.446077067122594,54.22346287567285,19.287971988471764,34.22366820024009,17.01999999996042
312773.3647,41.898102361887894,52.53097975078301,18.117014568343123,32.37717489043221,17.02099999994971
312773.3657,36.28187927370571,50.42987708580657,17.09687791110182,30.47091709285697,17.021999999997206
312773.3667,30.74688579060903,47.96993304781029,16.24393706777377,28.538053917477303,17.022999999986496
312773.3677,25.43153822419569,45.20151728204515,15.565543558258842,26.606574225998973,17.023999999975786
312773.3687,20.460661262600198,42.176558293666325,15.061195586832483,24.700958070782093,17.024999999965075
312773.3697,15.943081240490637,38.94918309457043,14.72370921497875,22.84351500151306,17.025999999954365
312773.3707,11.969252708928584,35.57578956861708,14.540188382349996,21.05514671124949,17.027000000001863
312773.3717,8.608893565617228,32.114399945495386,14.492649516944914,19.35537726146951,17.027999999991152
312773.3727,5.908682925976987,28.62325135966647,14.558232895856227,17.761608968762932,17.028999999980442
312773.3737,3.890156929131286,25.158694083083695,14.70901824749018,16.287682509691,17.029999999969732
312773.3747,2.548008437246959,21.772576212568946,14.911545521399235,14.941931754468312,17.030999999959022
312773.3757,1.8490455700481012,18.509382561015173,15.126212558668005,13.725013964694135,17.03199999994831
312773.3767,1.7320819496114714,15.403454491340622,15.306770140183588,12.627853291633125,17.03299999999581
312773.3777,2.109012629513425,12.476638934350524,15.400154553263183,11.630052553520123,17.0339999999851
312773.3787,2.8672724876168485,9.736695438556646,15.346884668341746,10.699102043121762,17.03499999997439
312773.3797,3.8737815844512244,7.1767309229652625,15.08220464075843,9.79064642888517,17.03599999996368
312773.3807,4.98036230762183,4.775838402655541,14.53807875514935,8.849968155845996,17.036999999952968
312773.3817,6.030477440976301,2.5009977807735644,13.646049201990698,7.8147186433878915,17.038000000000466
312773.3827,6.867000543697705,0.31016619551505437,12.340861122460304,6.618790448308896,17.038999999989755
312773.3837,7.340605128916796,-1.8436437003833062,10.564654171360864,5.197089317763037,17.039999999979045
312773.3847,7.318261361463069,-4.007612770663791,8.27142854322675,3.490849460608629,17.040999999968335
312773.3857,6.691270349244117,-6.2240925575221855,5.431427178397313,1.4530514381876851,17.041999999957625
312773.3867,5.382254952407783,-8.525759182640407,2.0350435446390267,-0.9465403160276308,17.042999999946915
312773.3877,3.3505661555334596,-10.931396708643865,-1.9041287316262205,-3.717198547791463,17.043999999994412
312773.3887,0.5956541551530807,-13.442721735773382,-6.347440949859655,-6.844338220375863,17.044999999983702
312773.3897,-2.8419128747826057,-16.04257827063497,-11.230781574336206,-10.28823430627471,17.04599999997299
312773.3907,-6.881932564394276,-18.694714959984328,-16.465754373996937,-13.984549240131877,17.04699999996228
312773.3917,-11.40851918355712,-21.345216749322883,-21.942448666567472,-17.846712184551762,17.04799999995157
312773.3927,-16.276297553892096,-23.92551340692099,-27.533669370338714,-21.770029333420784,17.04899999999907
312773.3937,-21.31844143735312,-26.356742659189536,-33.10036382379227,-25.637249043450314,17.04999999998836
312773.3947,-26.356012582528454,-28.555119962697525,-38.497872445805626,-29.325172682347702,17.05099999997765
312773.3957,-31.207953776931753,-30.43787237606779,-43.58255241234391,-32.711804634007954,17.051999999966938
312773.3967,-35.70103803278527,-31.929239713000726,-48.21828566499205,-35.68348244484635,17.052999999956228
312773.3977,-39.67908106517176,-32.96603734132634,-52.28238890853721,-38.141425858870555,17.053999999945518
312773.3987,-43.0107851771115,-33.50231242561619,-55.67049369871672,-40.007191899335105,17.054999999993015
312773.3997,-45.59569433632459,-33.51270545156092,-58.300054939248184,-41.22661782094387,17.055999999982305
312773.4007,-47.36789304963425,-32.99424386566195,-60.11226798636355,-41.77196592031764,17.056999999971595
312773.4017,-48.29726259774985,-31.966433738998415,-61.072316987521766,-41.64214159212569,17.057999999960884
312773.4027,-48.38830199448156,-30.469665502110878,-61.16802699114534,-40.861024073053784,17.058999999950174
312773.4037,-47.67671144843663,-28.56209709429264,-60.40713592956567,-39.474112510496056,17.05999999999767
312773.4047,-46.224107334630546,-26.315308835965844,-58.8135264559171,-37.543833330405434,17.06099999998696
312773.4057,-44.111375671334216,-23.80912713031966,-56.42285013637206,-35.14396526673706,17.06199999997625
312773.4067,-41.4312646686038,-21.12607960489605,-53.27802869692304,-32.35370586434829,17.06299999996554
312773.4077,-38.28085867449283,-18.34596690057672,-49.425123446308255,-29.251921799907077,17.06399999995483
312773.4087,-34.754562775663835,-15.541014374944845,-44.91002322106311,-25.912093553290347,17.06500000000233
312773.4097,-30.938161025644696,-12.772002981436007,-39.776316023197055,-22.398386052456143,17.065999999991618
312773.4107,-26.904397912668326,-10.085678840537627,-34.06458681173286,-18.76315853037249,17.066999999980908
312773.4117,-22.71038242230578,-7.513615122758323,-27.813234109386066,-15.046080270459623,17.067999999970198
312773.4127,-18.396940308000904,-5.072559783644429,-21.060734413537315,-11.27485810818429,17.068999999959487
312773.4137,-13.989858480598784,-2.766161678135354,-13.849120788088825,-7.4674217760662565,17.069999999948777
312773.4147,-9.502792077398507,-0.5878389434094619,-6.228295853137016,-3.6352696233867166,17.070999999996275
312773.4157,-4.941455425229334,1.4755505939627958,1.7393158129546566,0.21243639967568564,17.071999999985565
312773.4167,-0.3086063296716793,3.439647049718345,9.974342818211207,4.06451044448903,17.072999999974854
312773.4177,4.390730923907248,5.318573171639897,18.376856537505258,7.903626106432598,17.073999999964144
312773.4187,9.144369015050104,7.121390559897225,26.824125530728622,11.702927028457918,17.074999999953434
312773.4197,13.92890894252085,8.849395398537172,35.17019300450545,15.423775033707267,17.07600000000093
312773.4207,18.70696727856032,10.494528887952129,43.247593613877896,19.01493162289005,17.07699999999022
312773.4217,23.425973355261487,12.039057712537199,50.871345277278884,22.41332410636725,17.07799999997951
312773.4227,28.018669259402884,13.45654491942963,57.84514756040871,25.54638688053393,17.0789999999688
312773.4237,32.40527316569272,14.713995072719708,63.96950876392914,28.335807026985016,17.07999999995809
312773.4247,36.49710015216566,15.774933299640361,69.05132867098784,30.702357333207445,17.08099999994738
312773.4257,40.2012907862306,16.60307857068769,72.91430201894393,32.57138349801472,17.081999999994878
312773.4267,43.42619074641513,17.16620756277672,75.40939579247325,33.8784374336542,17.082999999984168
312773.4277,46.08686510946593,17.43978356869239,76.42460385548094,34.57452301571731,17.083999999973457
312773.4287,48.11022439960374,17.40994772687562,75.89320211282384,34.630447415446255,17.084999999962747
312773.4297,49.43928634102133,17.075535371623815,73.79981668467835,34.03984821013063,17.085999999952037
312773.4307,50.03619227930051,16.44888212286602,70.18377009297664,32.82058674904742,17.086999999999534
312773.4317,49.883730313343605,15.555312179502588,65.13937349602173,31.01435033481835,17.087999999988824
312773.4327,48.98527429834114,14.431342049120879,58.8130686780217,28.6844749535587,17.088999999978114
312773.4337,47.36321260823515,13.121772030069636,51.3975704452025,25.912169973377257,17.089999999967404
312773.4347,45.05609572394173,11.675960546881397,43.123395577566285,22.79147961244729,17.090999999956694
312773.4357,42.11486122555405,10.143669833922694,34.24836674027463,19.423437674617933,17.091999999945983
312773.4367,38.59858519300419,8.570925266117865,25.045830119552157,15.909949668793487,17.09299999999348
312773.4377,34.570251002116805,6.996338622666207,15.792410406433495,12.347961825959135,17.09399999998277
312773.4387,30.09301568582636,5.448306151067526,6.75613891360567,8.82444666334181,17.09499999997206
312773.4397,25.22739148232544,3.943408712171723,-1.8142700112166514,5.412652025151686,17.09599999996135
312773.4407,20.029652273299227,2.4862212939059343,-9.698345556541856,2.169932618116746,17.09699999995064
312773.4417,14.551632311396897,1.0705943131840325,-16.710520334142277,-0.8626778271835186,17.097999999998137
312773.4427,8.84192243481594,-0.3176864379877269,-22.704267516366325,-3.659173890432972,17.098999999987427
312773.4437,2.9483034043288265,-1.6971051499274836,-27.573686307611936,-6.205763513816997,17.099999999976717
312773.4447,-3.078895978278753,-3.0858614080530486,-31.252725690903183,-8.496889209080086,17.100999999966007
312773.4457,-9.182950998068597,-4.497027662274025,-33.71242642847206,-10.530569944430383,17.101999999955297
312773.4467,-15.296918884403023,-5.9339438950387695,-34.956705250870776,-12.30362705176773,17.102999999944586
312773.4477,-21.340387170650136,-7.386377156138674,-35.01729062730612,-13.807380298281078,17.103999999992084
312773.4487,-27.21731138621821,-8.82792376925308,-33.94843999062345,-15.024363643122202,17.104999999981374
312773.4497,-32.81538094999878,-10.215032976452868,-31.822023757876277,-15.926516481610347,17.105999999970663
312773.4507,-38.00722457029311,-11.487890572623098,-28.723458251028767,-16.475163326429723,17.106999999959953
312773.4517,-42.65360234704442,-12.5732318264391,-24.748819647701904,-16.62291581356412,17.107999999949243
312773.4527,-46.60854582119033,-13.388969899638047,-20.003290786583943,-16.317432384926427,17.10899999999674
312773.4537,-49.726216423318284,-13.85034597365223,-14.600901233288202,-15.506771979052987,17.10999999998603
312773.4547,-51.86907485592654,-13.87714740873948,-8.665338602772026,-14.145897990759682,17.11099999997532
312773.4557,-52.91680567063656,-13.401416030654639,-2.331454764747318,-12.203745631248637,17.11199999996461
312773.4567,-52.7753369157489,-12.374992581959408,4.253019727819202,-9.670174397920054,17.1129999999539
312773.4577,-51.385244600117325,-10.776223742938988,10.926094393480557,-6.56209770061856,17.114000000001397
312773.4587,-48.728841368274594,-8.615198061982412,17.511005636468703,-2.928118086578774,17.114999999990687
312773.4597,-44.8353183693037,-5.936974309480206,23.817039213845494,1.14890297800212,17.115999999979977
312773.4607,-39.78343361780509,-2.822412560177036,29.642034589767622,5.55175522136679,17.116999999969266
312773.4617,-33.701409098886835,0.6135975140665668,34.77675405089542,10.131484784500314,17.117999999958556
312773.4627,-26.76389842703614,4.22651080544866,39.01111027262371,14.712685406412694,17.118999999947846
312773.4637,-19.18610034768073,7.84889325185084,42.142049593367084,19.101236992600303,17.119999999995343
312773.4647,-11.215302961301788,11.299174882732311,43.98270364754089,23.094039016905846,17.120999999984633
312773.4657,-3.1203319290180924,14.391819075268494,44.372266909597634,26.490106929669512,17.121999999973923
312773.4667,4.820472211470821,16.948218156034056,43.185946728188554,29.102271203051906,17.122999999963213
312773.4677,12.332019072589505,18.807561095352938,40.34427583585191,30.768652249314187,17.123999999952503
312773.4687,19.15519987099866,19.83691493124445,35.8210801854482,31.363085960920102,17.125
312773.4697,25.05882075840913,19.93981760567957,29.64945690801964,30.803743684397038,17.12599999998929
312773.4707,29.85004123070824,19.062790780710664,21.92523258806602,29.05932068519798,17.12699999997858
312773.4717,33.38273792045921,17.19933695943988,12.807530729804622,26.152346877021753,17.12799999996787
312773.4727,35.563369542258144,14.391172202653893,2.516265540418238,22.15938687038458,17.12899999995716
312773.4737,36.35409870487194,10.726647814368025,-8.673418932370199,17.20812465873389,17.12999999994645
