TimeStamp,ECR,FCR,ECU,FCU,time_index
312757.3437,-17.115380738645925,-12.886023835885196,-22.125641619970406,-10.357379130086535,1.0
312757.3447,-16.075063340975994,-12.023654302342944,-22.563112988717847,-9.78400071676435,1.0009999999892898
312757.3457,-14.593937761991834,-10.855330613370171,-22.49819422366358,-8.955622450130296,1.0019999999785796
312757.3467,-12.770554087640036,-9.458324331535534,-21.98418658963405,-7.945399425425513,1.0029999999678694
312757.3477,-10.707953007716394,-7.9113342173596255,-21.08181222048125,-6.825531694087041,1.0039999999571592
312757.3487,-8.506639761725907,-6.2886883234895015,-19.85373926400297,-5.661705922664604,1.004999999946449
312757.3497,-6.258374305072185,-4.655381486034121,-18.359695000842866,-4.508501422730936,1.0059999999939464
312757.3507,-4.041255105082888,-3.0633511197449024,-16.652589986180903,-3.406143117582481,1.0069999999832362
312757.3517,-1.9164414883776473,-1.5492683991217402,-14.775962053782045,-2.378850846084766,1.007999999972526
312757.3527,0.07330198888834011,-0.1339718789263287,-12.762907156004887,-1.4348789249799432,1.0089999999618158
312757.3537,1.9032305221991872,1.1764890426804155,-10.636508626961268,-0.5681770984069513,1.0099999999511056
312757.3547,3.5645762930071405,2.3883872569387394,-8.41162291022737,0.23855042898772708,1.010999999998603
312757.3557,5.061152819483926,3.5167473723376363,-6.097743160653937,1.0097424308585008,1.0119999999878928
312757.3567,6.405039464823851,4.581091136249925,-3.7025557175031736,1.7722846727167783,1.0129999999771826
312757.3577,7.611852709699445,5.600975926205766,-1.235738490645715,2.5507214340752102,1.0139999999664724
312757.3587,8.696133332860159,6.591812992548001,1.2874690208160666,3.3628769580945828,1.0149999999557622
312757.3597,9.66734874080789,7.561413511369462,3.8433655195399647,4.216341577413863,1.015999999945052
312757.3607,10.526931035936228,8.507627905663044,6.397925199440449,5.106185414519504,1.0169999999925494
312757.3617,11.266652412815306,9.41732582882083,8.906229229297574,6.014135779805236,1.0179999999818392
312757.3627,11.868492381159449,10.266822600402453,11.313311213688225,6.909305303436827,1.018999999971129
312757.3637,12.305991021650671,11.023706883776972,13.556387413410617,7.750401161893071,1.0199999999604188
312757.3647,12.546925037986334,11.649878970267997,15.568296379137726,8.489196882496737,1.0209999999497086
312757.3657,12.557004408185442,12.105483516452022,17.28184400495988,9.07492167129987,1.021999999997206
312757.3667,12.304180645655615,12.35332726651394,18.634651657483648,9.459130293016353,1.0229999999864958
312757.3677,11.763093461380024,12.36332025176296,19.57404674333806,9.600568069413125,1.0239999999757856
312757.3687,10.919167093181116,12.11647317320007,20.061522599676984,9.46954509361752,1.0249999999650754
312757.3697,9.771901989572667,11.608024560116524,20.07632912379679,9.051381104421663,1.0259999999543652
312757.3707,8.336988187542996,10.849354698353869,19.61783362877609,8.348572771716215,1.0270000000018626
312757.3717,6.646985304441749,9.868460921355863,18.706405241126145,7.381459373941028,1.0279999999911524
312757.3727,4.750458523122896,8.708909012386599,17.382714432293586,6.187308680857118,1.0289999999804422
312757.3737,2.7096156891388583,7.427324353446064,15.705488284104412,4.81789790454694,1.029999999969732
312757.3747,0.5966419682617885,6.089629428206772,13.747907076494021,3.3358098120885074,1.0309999999590218
312757.3757,-1.5109397906804554,4.7663573074088665,11.59295443151845,1.809787292573621,1.0319999999483116
312757.3767,-3.535456016664787,3.5274617665011405,9.32812908363628,0.309578842205087,1.032999999995809
312757.3777,-5.404333706595433,2.4370948232039877,7.03998200328021,-1.0992460350259865,1.0339999999850988
312757.3787,-7.0549254606395495,1.5488268870914748,4.80895274135444,-2.3600330002328263,1.0349999999743886
312757.3797,-8.43845928675,0.9017430393413345,2.704942712270586,-3.428899357794312,1.0359999999636784
312757.3807,-9.522750819728799,0.5177653958281089,0.7839845550801803,-4.277368693849476,1.0369999999529682
312757.3817,-10.293438518310861,0.4004343497576628,-0.9137461874676953,-4.893563541183379,1.0380000000004657
312757.3827,-10.753649241617492,0.5352423248067295,-2.3644665245850445,-5.2818786230014725,1.0389999999897555
312757.3837,-10.92215756784752,0.8914662135635668,-3.5599027607270872,-5.461206375147572,1.0399999999790452
312757.3847,-10.83025157409776,1.4253034193089695,-4.505161740245336,-5.461927248967992,1.040999999968335
312757.3857,-10.517645465728613,2.083995190872036,-5.2156491985797775,-5.321995827984734,1.0419999999576248
312757.3867,-10.027872510983146,2.8105315428263276,-5.713415549888552,-5.082538378980428,1.0429999999469146
312757.3877,-9.403640751678802,3.5484831014148757,-6.023356743245232,-4.783419836665092,1.043999999994412
312757.3887,-8.682633892899169,4.246501295427298,-6.169700065626075,-4.459234342876805,1.0449999999837019
312757.3897,-7.894190522815237,4.862069535654441,-6.173161913316214,-4.13612388736485,1.0459999999729916
312757.3907,-7.057201224572277,5.364170044041743,-6.049081138183786,-3.8297394324856073,1.0469999999622814
312757.3917,-6.17943453261667,5.734645428936818,-5.806716279295354,-3.5445372831518593,1.0479999999515712
312757.3927,-5.25835192054509,5.9681693980314705,-5.449759754546967,-3.2744626396889904,1.0489999999990687
312757.3937,-4.283314222553824,6.070883566912039,-4.977980919362421,-3.0049264014429475,1.0499999999883585
312757.3947,-3.23893299099449,6.057892886886638,-4.38977747291926,-2.7158450318587253,1.0509999999776483
312757.3957,-2.1091953733602002,5.949927237929091,-3.685304875358561,-2.3854003647580466,1.051999999966938
312757.3967,-0.881902937351275,5.769559733126628,-2.8697779046431178,-1.9940980420001133,1.0529999999562278
312757.3977,0.44707731890816604,5.537414977755296,-1.956505527683261,-1.52866781526887,1.0539999999455176
312757.3987,1.8702430738785638,5.268798648455461,-0.9692339612790392,-0.9853599940984419,1.054999999993015
312757.3997,3.3660024001260127,4.9711334689667765,0.05656743547943501,-0.3722490572352217,1.0559999999823049
312757.4007,4.89766571892903,4.642500543009829,1.0737422043714184,0.2897474841808349,1.0569999999715947
312757.4017,6.414075478553,4.271467623365689,2.024937539361677,0.9672988434395383,1.0579999999608845
312757.4027,7.851903971949231,3.838248952451336,2.8455318462243326,1.6165566840754224,1.0589999999501742
312757.4037,9.13948232158415,3.3170985056850233,3.4678266783564875,2.1863835517555885,1.0599999999976717
312757.4047,10.20186632440143,2.679704162384595,3.826187708444065,2.6226409525526746,1.0609999999869615
312757.4057,10.966713101559835,1.8992381212789502,3.8627027501861004,2.8731489957968868,1.0619999999762513
312757.4067,11.370449511485209,0.9546402701011617,3.5328468052448074,2.8928509169223706,1.062999999965541
312757.4077,11.364168583922213,-0.16532553248394083,2.8106134786201595,2.6486817901816804,1.0639999999548309
312757.4087,10.918698741975538,-1.4586930199592298,1.6925932167059865,2.123655223264307,1.0650000000023283
312757.4097,10.028352123527164,-2.9079886985158057,0.20055104712847865,1.3197439909505089,1.065999999991618
312757.4107,8.712967608429235,-4.479300579625333,-1.617825780198207,0.25923495953954756,1.0669999999809079
312757.4117,7.018011293748343,-6.122892624646313,-3.6901867805514663,-1.0156243257839335,1.0679999999701977
312757.4127,5.012668532352943,-7.775389493421716,-5.922785720163982,-2.4447132225394705,1.0689999999594875
312757.4137,2.7860412520391873,-9.363403034748151,-8.20557832250497,-3.9537238756265753,1.0699999999487773
312757.4147,0.44173521502347785,-10.808328118445862,-10.418803202605368,-5.459158410745173,1.0709999999962747
312757.4157,-1.9087319926561774,-12.031915036161976,-12.440557871731098,-6.874224459536635,1.0719999999855645
312757.4167,-4.153164004785583,-12.962140804730819,-14.154781786338807,-8.115127470142765,1.0729999999748543
312757.4177,-6.185962997941833,-13.53886098386967,-15.459009866573666,-9.107215860531959,1.073999999964144
312757.4187,-7.914850588655773,-13.718731567815787,-16.271267969346827,-9.790443233326286,1.0749999999534339
312757.4197,-9.26648268025637,-13.47894696311319,-16.535546462872784,-10.123670152069861,1.0760000000009313
312757.4207,-10.190509987920985,-12.819440172864432,-16.225403959025265,-10.087431135844849,1.0769999999902211
312757.4217,-10.661778053666902,-11.763325972394505,-15.345410179765222,-9.684930993628736,1.077999999979511
312757.4227,-10.680529956167911,-10.355524583760733,-13.930320686384977,-8.941195402222753,1.0789999999688007
312757.4237,-10.270655604750731,-8.659667423831088,-12.04206999740386,-7.9004685589337775,1.0799999999580905
312757.4247,-9.476206397814591,-6.7535423924378915,-9.76485565540875,-6.622109910005314,1.0809999999473803
312757.4257,-8.35654660955723,-4.723469049093608,-7.1987469455625535,-5.175377265990348,1.0819999999948777
312757.4267,-6.980628788422666,-2.6580911853160307,-4.452373404780107,-3.6335822214160567,1.0829999999841675
312757.4277,-5.420948886957298,-0.6421263782939085,-1.635318908990344,-2.0681563544323365,1.0839999999734573
312757.4287,-3.7477515570921685,1.2493859715792845,1.1491393051202938,-0.5431682568532084,1.084999999962747
312757.4297,-2.0240159821732493,2.955845161827551,3.810351744677123,0.889218009261998,1.0859999999520369
312757.4307,-0.30166200953765476,4.434459788206898,6.275180802990159,2.1919480608736976,1.0869999999995343
312757.4317,1.3807156931212148,5.661961418490413,8.491092574614523,3.344683494799604,1.0879999999888241
312757.4327,2.9984380981458507,6.634550306685481,10.427272935754768,4.343703455572703,1.088999999978114
312757.4337,4.539682386549669,7.366127725999244,12.073770276359618,5.200161084092562,1.0899999999674037
312757.4347,6.002966431605174,7.885028953348461,13.438849316145193,5.936912923693753,1.0909999999566935
312757.4357,7.393518232151026,8.229609027238252,14.544901645898879,6.58427553158686,1.0919999999459833
312757.4367,8.718983006661748,8.443136971486458,15.423384037682789,7.175164351062606,1.0929999999934807
312757.4377,9.984985820506514,8.56851340460685,16.109333725763218,7.740125718385145,1.0939999999827705
312757.4387,11.191079878389466,8.643335793526143,16.636033939780127,8.302778459383601,1.0949999999720603
312757.4397,12.327568789346845,8.6957943331477,17.03037136592637,8.87613650638053,1.0959999999613501
312757.4407,13.373599344259045,8.741793700690227,17.30934366234262,9.460192878817237,1.09699999995064
312757.4417,14.296788698207314,8.783570390076315,17.478048358346587,10.041017226775706,1.0979999999981374
312757.4427,15.054489420904387,8.809924264775253,17.529327206976102,10.59146652463217,1.0989999999874271
312757.4437,15.596623522340852,8.798021114695905,17.44506794844599,11.0734463667322,1.099999999976717
312757.4447,15.86984933837798,8.71656611956731,17.1989953936848,11.441504502985307,1.1009999999660067
312757.4457,15.822679672687107,8.53001145318454,16.760632327946446,11.647403964167458,1.1019999999552965
312757.4467,15.411060357050227,8.20335806818104,16.09999260016307,11.645223452603483,1.1029999999445863
312757.4477,14.603856434423129,7.707051968134003,15.192495195346714,11.396477316697966,1.1039999999920838
312757.4487,13.38768493835353,7.021464757422114,14.023565958971618,10.874741766621906,1.1049999999813735
312757.4497,11.77057998387046,6.140487926925076,12.592424771820422,10.069318560870881,1.1059999999706633
312757.4507,9.784073512229206,5.0738562769083595,10.914636977616823,8.987557848162371,1.1069999999599531
312757.4517,7.483414514049363,3.847939695995487,9.023130518329358,7.65558937409132,1.107999999949243
312757.4527,4.945817782456596,2.5048921312581616,6.96753229337925,6.11736344523646,1.1089999999967404
312757.4537,2.266814289430967,1.1002074232445103,4.811843687783267,4.432065084269688,1.1099999999860302
312757.4547,-0.44504808537310364,-0.3011119181971367,2.63063964665846,2.6701209613891628,1.11099999997532
312757.4557,-3.074749367698737,-1.6294301772016544,0.5041220231426247,0.9081537920449604,1.1119999999646097
312757.4567,-5.508064488633537,-2.8159515310031775,-1.4875280501248378,-0.7766601442337834,1.1129999999538995
312757.4577,-7.638957444126574,-3.798283452021931,-3.26998334227877,-2.312317636918404,1.114000000001397
312757.4587,-9.376490422599016,-4.525571305574079,-4.7802532550425845,-3.63727888850013,1.1149999999906868
312757.4597,-10.650674797871664,-4.9627233552938135,-5.971311444360625,-4.704843423466665,1.1159999999799766
312757.4607,-11.416782616426666,-5.093330070716204,-6.815443704310265,-5.486221500190332,1.1169999999692664
312757.4617,-11.657772965304426,-4.921004443625378,-7.306012234346339,-5.972036166405244,1.1179999999585561
312757.4627,-11.384654592324791,-4.46901903267503,-7.457481984804394,-6.172141155303826,1.118999999947846
312757.4637,-10.634788616205501,-3.7782762100320917,-7.303718527359657,-6.113800074320725,1.1199999999953434
312757.4647,-9.468315925547346,-2.9038050006129565,-6.894728869058772,-5.838427184382815,1.1209999999846332
312757.4657,-7.963055951030813,-1.9101158046216284,-6.292161112933083,-5.397224470259176,1.121999999973923
312757.4667,-6.208351776512526,-0.8658498766894164,-5.5639919385987024,-4.846150672751053,1.1229999999632128
312757.4677,-4.298419199597294,0.16177642778962856,-4.778901739804615,-4.240715811862281,1.1239999999525025
312757.4687,-2.3257869570363447,1.1122179071009783,-4.00085929598286,-3.631104050274183,1.125
312757.4697,-0.3753896235397466,1.9360574675248594,-3.2844092626643073,-3.0580878776538696,1.1259999999892898
312757.4707,1.4802032608026898,2.5982749508564713,-2.6710796992177097,-2.5501117169731886,1.1269999999785796
312757.4717,3.1840603944147885,3.080047933875275,-2.1872111078620233,-2.1218017497776858,1.1279999999678694
312757.4727,4.696456787798555,3.378949704424781,-1.8433646852357604,-1.7740131654478626,1.1289999999571592
312757.4737,5.994699792588687,3.507566620008724,-1.6353100288894544,-1.4953706441354122,1.129999999946449
312757.4747,7.071346506751354,3.4907105606466766,-1.546437005615846,-1.2651080816416034,1.1309999999939464
312757.4757,7.931099479914708,3.3615372155481005,-1.5512982090983014,-1.056884147194184,1.1319999999832362
312757.4767,8.586789487103673,3.156984386868488,-1.6198809537832601,-0.843153958388465,1.132999999972526
312757.4777,9.054932734437664,2.9130064021889632,-1.7221414927727525,-0.5996233758088809,1.1339999999618158
312757.4787,9.351377976099059,2.660095267258309,-1.8323153946959014,-0.30930634696524206,1.1349999999511056
312757.4797,9.487534474700174,2.4195452016806738,-1.9325483097827032,0.034252179944168355,1.135999999998603
312757.4807,9.467597578025792,2.200838289234753,-2.0154673630320965,0.4249393030876266,1.1369999999878928
312757.4817,9.287072869164476,2.000413141140094,-2.0854272669227027,0.8434535285581921,1.1379999999771826
312757.4827,8.932754420436579,1.8019373052022976,-2.1583053463195987,1.258186488612166,1.1389999999664724
312757.4837,8.384152567209066,1.578051686459863,-2.2598718380697993,1.6275399717963488,1.1399999999557622
312757.4847,7.616208121343184,1.2934065604470686,-2.422910729065932,1.9034645647079114,1.140999999945052
312757.4857,6.602989128864986,0.9086785147855151,-2.6833970537180347,2.035880538264491,1.1419999999925494
312757.4867,5.321957367677611,0.3851586405381605,-3.0761358586438328,1.9775494091096335,1.1429999999818392
312757.4877,3.7583257574974622,-0.31055580936266214,-3.6303259846639047,1.6889150391516774,1.143999999971129
312757.4887,1.9090113652198255,-1.2022456453830899,-4.365522581140453,1.1424311679977972,1.1449999999604188
312757.4897,-0.21427659606869662,-2.3005732010143163,-5.288434743296848,0.3259381776844092,1.1459999999497086
312757.4907,-2.583191923859028,-3.6007684597631386,-6.39091256901459,-0.7552587768072578,1.146999999997206
312757.4917,-5.15240594728313,-5.081745410414862,-7.6493594503277595,-2.077834097552877,1.1479999999864958
312757.4927,-7.860868394972311,-6.706755847985679,-9.025662379832628,-3.601485760694339,1.1489999999757856
312757.4937,-10.634620020977287,-8.425536889578783,-10.469579772162422,-5.271501464821621,1.1499999999650754
312757.4947,-13.39094467214886,-10.177761803842852,-11.922378136852636,-7.022621587414187,1.1509999999543652
312757.4957,-16.043510423758683,-11.897475793199005,-13.321380776664153,-8.783847397103548,1.1520000000018626
312757.4967,-18.508044920280582,-13.518101685974637,-14.604996451148667,-10.483750704839121,1.1529999999911524
312757.4977,-20.708029719689673,-14.977544559443398,-15.71774331662405,-12.055791942338196,1.1539999999804422
312757.4987,-22.579888476309044,-16.22291457028587,-16.614778891495313,-13.44315242169513,1.154999999969732
312757.4997,-24.077185454994087,-17.21442461185496,-17.265490993585942,-14.602633447800422,1.1559999999590218
312757.5007,-25.1734402909229,-17.92810011396261,-17.655793403012776,-15.507265497149795,1.1569999999483116
312757.5017,-25.863293512499574,-18.3570543623203,-17.788894828079016,-16.147396034944613,1.157999999995809
312757.5027,-26.16191266725055,-18.511222690112966,-17.684458402306884,-16.530172489566162,1.1589999999850988
312757.5037,-26.102695813626045,-18.41559899906886,-17.376226827686622,-16.677492986862507,1.1599999999743886
312757.5047,-25.733491374988468,-18.10716353986577,-16.90833984622934,-16.62264640049499,1.1609999999636784
312757.5057,-25.111695030175472,-17.630817430855384,-16.33070097498736,-16.40599051142548,1.1619999999529682
312757.5067,-24.298691549289845,-17.03473459956888,-15.693846419180204,-16.070110105280538,1.1630000000004657
312757.5077,-23.354171718906024,-16.365596357813946,-15.043821131433333,-15.654946509646736,1.1639999999897555
312757.5087,-22.330865546319856,-15.664182328891226,-14.417569718072643,-15.193391442648716,1.1649999999790452
312757.5097,-21.270191564409075,-14.961753111239116,-13.839302708216454,-14.707790873702171,1.165999999968335
312757.5107,-20.199232144005247,-14.277578659218674,-13.318205871984242,-14.207713387157428,1.1669999999576248
312757.5117,-19.129314846471864,-13.617849889427534,-12.847730550710832,-13.689211096050691,1.1679999999469146
312757.5127,-18.05632249689398,-12.97607092952439,-12.406548742815945,-13.13565174191153,1.168999999994412
312757.5137,-16.96268500212861,-12.334879499753301,-11.96109283673658,-12.520042778715187,1.1699999999837019
312757.5147,-15.82084038279995,-11.669097929851613,-11.469442297539707,-11.808617385222165,1.1709999999729916
312757.5157,-14.59780708713587,-10.94969158988527,-10.886183699267164,-10.965323266486477,1.1719999999622814
312757.5167,-13.260398557327806,-10.148217525705093,-10.167769658831613,-9.956760517246542,1.1729999999515712
312757.5177,-11.780545102341636,-9.241293236420235,-9.277846568970112,-8.757064149386947,1.1739999999990687
312757.5187,-10.140173940280373,-8.214609209188596,-8.192016336664398,-7.352225326878563,1.1749999999883585
312757.5197,-8.335137381254686,-7.0660498916121055,-6.901544499195394,-5.743393352835464,1.1759999999776483
312757.5207,-6.3777679654824375,-5.807572451747441,-5.415621986865315,-3.9487936575628053,1.176999999966938
312757.5217,-4.29776958576009,-4.465612884805094,-3.7619216613025883,-2.004026687968692,1.1779999999562278
312757.5227,-2.1413128386019205,-3.0799332001396666,-1.98535099924463,0.039333622640935345,1.1789999999455176
312757.5237,0.031624124168913956,-1.7009775992372287,-0.14507372280896105,2.116759921691244,1.179999999993015
312757.5247,2.1514576784584105,-0.3859547389064592,1.6899605380263651,4.1551711977021855,1.1809999999823049
312757.5257,4.144380934055725,0.8060072058297836,3.4465942308320727,6.078337791874167,1.1819999999715947
312757.5267,5.938445559134732,1.8191886295088227,5.053652945548789,7.812816092387934,1.1829999999608845
312757.5277,7.469789883309925,2.6065902663870846,6.448190349392158,9.293880516191939,1.1839999999501742
312757.5287,8.68843897892433,3.134721270595672,7.5812150386762385,10.470913449267085,1.1849999999976717
312757.5297,9.563135390032151,3.387396859261608,8.422367866114172,11.31175759029862,1.1859999999869615
312757.5307,10.084742981733443,3.3681642550040514,8.963108376852462,11.805625580328591,1.1869999999762513
312757.5317,10.267893074859808,3.1010980014137095,9.218100245928515,11.964290390115496,1.187999999965541
312757.5327,10.150699593861095,2.6298533537658755,9.224645802951278,11.821434520881363,1.1889999999548309
312757.5337,9.792543461478479,2.0150253674041263,9.040193911744618,11.430202028080902,1.1900000000023283
312757.5347,9.27009953036957,1.3300164365555356,8.738117434638648,10.8591590233548,1.190999999991618
312757.5357,8.671935676129216,0.6557516729895624,8.40211032242386,10.18701042930145,1.1919999999809079
312757.5367,8.092138701745762,0.07468675034882417,8.119675885875989,9.496530064718302,1.1929999999701977
312757.5377,7.6235039203558115,-0.3353831913455366,7.9752559899495035,8.868227536480045,1.1939999999594875
312757.5387,7.35085737190176,-0.5071881707837165,8.043578870334994,8.374292981924292,1.1949999999487773
312757.5397,7.345059134041728,-0.3890277965127954,8.383778868091058,8.07332822838836,1.1959999999962747
312757.5407,7.658165720376751,0.05142132735336605,9.034767404561574,8.006294001394268,1.1969999999855645
312757.5417,8.320116507125826,0.8248375574355007,10.012218396008812,8.193985428639428,1.1979999999748543
312757.5427,9.337164896806078,1.9196869182089966,11.307384341701423,8.636203875581,1.198999999964144
312757.5437,10.69211378678068,3.303364146751779,12.887795595526821,9.312636190046877,1.1999999999534339
312757.5447,12.346252580728974,4.9248977217660235,14.699730346452816,10.185297878341585,1.2010000000009313
312757.5457,14.242745073877893,6.718938846125337,16.672192002854384,11.202259322190201,1.2019999999902211
312757.5467,16.311098031486704,8.610647629379436,18.722007858176077,12.302266769754864,1.202999999979511
312757.5477,18.47226014224506,10.52102171115941,20.759579096024307,13.419802305953572,1.2039999999688007
312757.5487,20.643867195727182,12.372189184042508,22.694774455114512,14.490105124169341,1.2049999999580905
312757.5497,22.74516405020538,14.092210417037597,24.44247075662491,15.453701434872292,1.2059999999473803
312757.5507,24.70119460829042,15.618999232199567,25.927300793606715,16.260058881585135,1.2069999999948777
312757.5517,26.44595043716128,16.903075640485334,27.087266112158066,16.870085761677778,1.2079999999841675
312757.5527,27.924295899525717,17.908989338527704,27.875998518723485,17.257324573284816,1.2089999999734573
312757.5537,29.09262907901355,18.615392363293974,28.26359655810238,17.407829993483098,1.209999999962747
312757.5547,29.918378488940746,19.01387657430096,28.23610716787401,17.31885890876393,1.2109999999520369
312757.5557,30.37856087202525,19.106813185049162,27.793853740555427,16.996620590154638,1.2119999999995343
312757.5567,30.457722359022984,18.904525291956496,26.94891693647697,16.45342640047996,1.2129999999888241
312757.5577,30.145643890565943,18.42218103929852,25.72214360156946,15.70463146159281,1.213999999978114
312757.5587,29.435206161077126,17.67680930813443,24.140085661939946,14.765770372622855,1.2149999999674037
312757.5597,28.320778069559395,16.684810563435278,22.232252911885322,13.650254699234639,1.2159999999566935
312757.5607,26.79741916523524,15.460266119256762,20.02900379563611,12.367925419446607,1.2169999999459833
312757.5617,24.86107868102844,14.014247073626944,17.560303525497947,10.9246468215454,1.2179999999934807
312757.5627,22.509842917910156,12.355200360556271,14.855459692177067,9.323000840576311,1.2189999999827705
312757.5637,19.74614292912324,10.49035686227614,11.943814933010929,7.56400601069654,1.2199999999720603
312757.5647,16.57970068495239,8.427979350786657,8.856248437402163,5.649657431453639,1.2209999999613501
312757.5657,13.030878756929058,6.180159724853691,5.627227017898885,3.585977079135817,1.22199999995064
312757.5667,9.13401868386259,3.7657972474196195,2.2970643849658265,1.3861890742042864,1.2229999999981374
312757.5677,4.94031595869476,1.213350871444398,-1.0859966127762215,-0.9263994704617969,1.2239999999874271
312757.5687,0.5197901508293908,-1.4370360900786348,-4.464264368466969,-3.3162203853334757,1.224999999976717
312757.5697,-4.038032614054503,-4.132391561249074,-7.769983117356709,-5.734321847096965,1.2259999999660067
312757.5707,-8.625005327957894,-6.807014410081492,-10.925878862966048,-8.118558495113827,1.2269999999552965
312757.5717,-13.116957690510423,-9.38396213754318,-13.84700682683655,-10.395225363307755,1.2279999999445863
312757.5727,-17.37799087290064,-11.777930969282531,-16.443902880467427,-12.482122174123143,1.2289999999920838
312757.5737,-21.266289605029172,-13.89938768534222,-18.62689676504452,-14.2928859125223,1.2299999999813735
312757.5747,-24.641116118772835,-15.659676408504849,-20.311308200841662,-15.742291849571114,1.2309999999706633
312757.5757,-27.3705198167667,-16.97671032877265,-21.42313254586844,-16.752110395085275,1.2319999999599531
312757.5767,-29.33920411841739,-17.78077977335791,-21.904742792637958,-17.257031116226614,1.232999999949243
312757.5777,-30.455947560591635,-18.01997265179921,-21.72009844083118,-17.210134271033034,1.2339999999967404
312757.5787,-30.65998520976384,-17.664715466062376,-20.85896399561523,-16.587408244209925,1.2349999999860302
312757.5797,-29.92581904060035,-16.711002502688515,-19.339700626543436,-15.390877544432412,1.23599999997532
312757.5807,-28.266037306787595,-15.181982612807754,-17.210299196278083,-13.650015010792458,1.2369999999646097
312757.5817,-25.7318735478906,-13.127708047676888,-14.547462368716955,-11.421253844666087,1.2379999999538995
312757.5827,-22.41141242580286,-10.623005743524232,-11.453705241538838,-8.785576998902185,1.239000000001397
312757.5837,-18.425536220656856,-7.763593702609704,-8.052613004027037,-5.844328237360051,1.2399999999906868
312757.5847,-13.921885671241029,-4.660718436051959,-4.48255469721786,-2.7135451485352178,1.2409999999799766
312757.5857,-9.067265636884398,-1.434719311730596,-0.8892890954630561,0.482755196198468,1.2419999999692664
312757.5867,-4.039045641686363,1.7919802543747494,2.5820009996452766,3.619814805601401,1.2429999999585561
312757.5877,0.9838229242005824,4.901905488002882,5.79465580779855,6.579328776180247,1.243999999947846
312757.5887,5.82953349839779,7.7890377051683775,8.62787439493816,9.256031538316687,1.2449999999953434
312757.5897,10.341292958501697,10.364297062988522,10.982896481556361,11.563168467511558,1.2459999999846332
312757.5907,14.383818740004934,12.559595640128784,12.787584858802832,13.436447801650221,1.246999999973923
312757.5917,17.84808190614866,14.33018621220796,13.999099162056085,14.836205493054514,1.2479999999632128
312757.5927,20.65407408783249,15.655185912039181,14.604514014510656,15.747676172313248,1.2489999999525025
312757.5937,22.751550966492417,16.53631670022207,14.619407956935715,16.1794316452738,1.25
312757.5947,24.11887751880802,16.995060846176113,14.084618138731033,16.160208433886957,1.2509999999892898
312757.5957,24.760254520201066,17.068564752339782,13.061504017458187,15.734482798609504,1.2519999999785796
312757.5967,24.70172773419867,16.804725874435686,11.626177874768612,14.957252729922958,1.2529999999678694
312757.5977,23.986460042860088,16.25695594913958,9.8632306743258,13.88854237031685,1.2539999999571592
312757.5987,22.669776088482394,15.47912419326201,7.8595027739097505,12.588150421838174,1.254999999946449
312757.5997,20.814467317407914,14.521146218308475,5.698419151210537,11.111120347513761,1.2559999999939464
312757.6007,18.48677619175492,13.425602433413147,3.455331853187067,9.50432144539821,1.2569999999832362
312757.6017,15.753369947919166,12.22565225533238,1.194196525760586,7.804405342429128,1.257999999972526
312757.6027,12.679478599591258,10.94436946037381,-1.0342330594317766,6.037254709585369,1.2589999999618158
312757.6037,9.328223439057872,9.595473654612789,-3.1926643257821823,4.218884789747935,1.2599999999511056
312757.6047,5.761016709193852,8.185288064568152,-5.256104175729705,2.3576091147411815,1.260999999998603
312757.6057,2.0387855482733306,6.715628954217591,-7.2095372733142495,0.45715322217933746,1.2619999999878928
312757.6067,-1.7763230951238096,5.187239185190703,-9.044810957123278,-1.4796933162222299,1.2629999999771826
312757.6077,-5.619155271306578,3.603326729783704,-10.757158854809184,-3.4473466987241714,1.2639999999664724
312757.6087,-9.420088070890989,1.9727631745194707,-12.341814786314234,-5.434083413165159,1.2649999999557622
312757.6097,-13.104261908635545,0.31253768908502094,-13.791140965560595,-7.419497446001167,1.265999999945052
312757.6107,-16.591794407156307,-1.350855731675334,-15.092623341184344,-9.37309037524062,1.2669999999925494
312757.6117,-19.799147050839267,-2.981304174370494,-16.22797994766323,-11.254202889601778,1.2679999999818392
312757.6127,-22.641677268471824,-4.534303831145185,-17.17349665300985,-13.013353066119196,1.268999999971129
312757.6137,-25.03726233334047,-5.959453861793495,-17.901562330291622,-14.594896379520439,1.2699999999604188
312757.6147,-26.910742896928376,-7.204001416343141,-18.383236889292426,-15.940779990041968,1.2709999999497086
312757.6157,-28.198817881539206,-8.21710555484192,-18.591564972610108,-16.995043631829276,1.271999999997206
312757.6167,-28.854941467117904,-8.954402933609053,-18.50525778676761,-17.70863346113973,1.2729999999864958
312757.6177,-28.853736188183053,-9.382414657489754,-18.11231477558982,-18.044052191609065,1.2739999999757856
312757.6187,-28.1944484852939,-9.482336225290485,-17.413150942240865,-17.97937317602949,1.2749999999650754
312757.6197,-26.90303430651926,-9.252801085821979,-16.42283537900642,-17.51119755648036,1.2759999999543652
312757.6207,-25.032567476566513,-8.711298494359413,-15.17212818198131,-16.656227321798113,1.2770000000018626
312757.6217,-22.66180303392597,-7.8940495205753125,-13.707118416538895,-15.451254045515684,1.2779999999911524
312757.6227,-19.891888522551522,-6.854289338352657,-12.087403745202671,-13.951510914419355,1.2789999999804422
312757.6237,-16.84138298093414,-5.659055333746406,-10.382899026000297,-12.227490013510819,1.279999999969732
312757.6247,-13.63989999111151,-4.3847243529069315,-8.669501991968287,-10.360472661936758,1.2809999999590218
312757.6257,-10.420822339777938,-3.111664516536368,-7.023964897875962,-8.437143663577265,1.2819999999483116
312757.6267,-7.313628636747937,-1.9184554540553718,-5.518409547966143,-6.5437486201241795,1.282999999995809
312757.6277,-4.4364172822518535,-0.8761768018829885,-4.214970305581987,-4.76029831432947,1.2839999999850988
312757.6287,-1.889205675368466,-0.04326371050760383,-3.1610504734682423,-3.1553211998417665,1.2849999999743886
312757.6297,0.25147724729325815,0.5386201785801038,-2.3856313072917747,-1.7816144880449105,1.2859999999636784
312757.6307,1.9362938880126028,0.8473328081091701,-1.896983973444345,-0.6733510935528577,1.2869999999529682
312757.6317,3.1448290906708682,0.8813924085108472,-1.6820112846283664,0.15522716685302626,1.2880000000004657
312757.6327,3.8852502002764915,0.6594175968890937,-1.7072997444656273,0.7094479249637677,1.2889999999897555
312757.6337,4.191972925453156,0.21793688872075645,-1.9218072676139015,1.012251133185669,1.2899999999790452
312757.6347,4.121577744473224,-0.39221590412677476,-2.2609627763172333,1.1008565629006761,1.290999999968335
312757.6357,3.747365679286213,-1.110576436071666,-2.6518250221275164,1.0224009494529465,1.2919999999576248
312757.6367,3.1530492760338706,-1.8723564334305944,-3.018851818283628,0.8289805245716483,1.2929999999469146
312757.6377,2.426134914508059,-2.613891492531534,-3.28977663067999,0.5725825959059271,1.293999999994412
312757.6387,1.6515609751611269,-3.277733957583686,-3.401082367645556,0.30039054406377663,1.2949999999837019
312757.6397,0.9061127568729297,-3.81693647227159,-3.3026029001804824,0.050900321456127974,1.2959999999729916
312757.6407,0.25404416855463824,-4.19815641528433,-2.9608674057198265,-0.14880195078332675,1.2969999999622814
312757.6417,-0.25579260336677906,-4.403330562028483,-2.3609229123124815,-0.28437348391732414,1.2979999999515712
312757.6427,-0.591162183479655,-4.429811258231217,-1.5065148464040032,-0.3540745918613648,1.2989999999990687
312757.6437,-0.7360224983689999,-4.289006273379944,-0.41866006039561343,-0.36721990281953726,1.2999999999883585
312757.6447,-0.688637258558931,-4.003709631851836,0.867203136171881,-0.3414284050459991,1.3009999999776483
312757.6457,-0.4585357601344076,-3.6044360140401235,2.305172408909004,-0.29900014725575985,1.301999999966938
312757.6467,-0.06273383436004416,-3.1251646692332806,3.843531352806964,-0.2628341984635714,1.3029999999562278
312757.6477,0.47831156570220623,-2.5989512236803183,5.42961871162539,-0.25234707983791144,1.3039999999455176
312757.6487,1.1445320747767918,-2.0538723530054757,7.014431883774577,-0.27984893249188186,1.304999999993015
312757.6497,1.9194197576482452,-1.5097285627120096,8.55651557375772,-0.3477863851095411,1.3059999999823049
312757.6507,2.7921838351179864,-0.9758483636844208,10.024766175382121,-0.4471712105682728,1.3069999999715947
312757.6517,3.7586560814613383,-0.45022115653366734,11.399898130899672,-0.5573912995464091,1.3079999999608845
312757.6527,4.820853409986037,0.07995230349727742,12.674458620000623,-0.6474573680616453,1.3089999999501742
312757.6537,5.985259834090532,0.6363501515235086,13.85142761051485,-0.6785893554327904,1.3099999999976717
312757.6547,7.260036982761313,1.2464599370209137,14.941586616632378,-0.60790553275624,1.3109999999869615
312757.6557,8.651497703357157,1.939670365923935,15.959966944209532,-0.3928590142927324,1.3119999999762513
312757.6567,10.160268176105916,2.742934592250746,16.921784084565775,0.004017448159053149,1.312999999965541
312757.6577,11.777610966691501,3.6764638798136517,17.838319672280843,0.6105382553921143,1.3139999999548309
312757.6587,13.48237945878332,4.749913137054872,18.713220518592596,1.440936545966444,1.3150000000023283
312757.6597,15.239022881986658,5.959476306442913,19.539644738321446,2.4930000355618196,1.315999999991618
312757.6607,16.996965307689248,7.2862240137061525,20.298601672254076,3.7465946673429484,1.3169999999809079
312757.6617,18.691550594921555,8.69589654253189,20.958713272906632,5.163770682262736,1.3179999999701977
312757.6627,20.246590974392465,10.14022371842353,21.477481520717397,6.690496110411914,1.3189999999594875
312757.6637,21.578394761316925,11.559693475514903,21.803993328212965,8.259906878702614,1.3199999999487773
312757.6647,22.600994493528905,12.88754739897868,21.882846359553326,9.796815855334668,1.3209999999962747
312757.6657,23.232165873820925,14.05465845000778,21.658950880657425,11.223099527610731,1.3219999999855645
312757.6667,23.399733409191658,14.9948554929887,21.08276691411277,12.463492748953458,1.3229999999748543
312757.6677,23.047610335337517,15.65021011217092,20.115482219571966,13.451277813200427,1.323999999964144
312757.6687,22.14102367594329,15.975798463493703,18.733630488726885,14.133358491962523,1.3249999999534339
312757.6697,20.67043058317596,15.943494987761946,16.932691540894414,14.474262388145966,1.3260000000009313
312757.6707,18.65373491829707,15.544441597327568,14.729302415905767,14.458711126701834,1.3269999999902211
312757.6717,16.136554252152308,14.789957173549961,12.161831915690957,14.092528430366707,1.327999999979511
312757.6727,13.190454244547517,13.71079626295384,9.289219610570603,13.401808597178967,1.3289999999688007
312757.6737,9.909244314019755,12.35481890242525,6.188139438472399,12.430427767647426,1.3299999999580905
312757.6747,6.403599170485929,10.783280826523933,2.9487025656142984,11.236132384339651,1.3309999999473803
312757.6757,2.7944191738581474,9.066080751126592,-0.33095065809379437,9.88556890358045,1.3319999999948777
312757.6767,-0.7945453647174795,7.276396748563906,-3.55071698229363,8.448713773289372,1.3329999999841675
312757.6777,-4.244215519522269,5.485197802142123,-6.614741463451133,6.993213946809993,1.3339999999734573
312757.6787,-7.447248087842827,3.756124320530568,-9.437247617398297,5.579150980083813,1.334999999962747
312757.6797,-10.314082403001038,2.1411920669623883,-11.947497038733044,4.2546959544903835,1.3359999999520369
312757.6807,-12.77750165442963,0.6776915318714477,-14.093471121002342,3.0530326584196943,1.3369999999995343
312757.6817,-14.795375093076089,-0.6134626583839645,-15.843987293710656,1.9908014612921672,1.3379999999888241
312757.6827,-16.35141102313679,-1.7278186726854583,-17.189108082322,1.0681683167385116,1.338999999978114
312757.6837,-17.453927807531517,-2.675947878992504,-18.138859237437636,0.27046672205048383,1.3399999999674037
312757.6847,-18.132824583272644,-3.480661727153864,-18.720427982625484,-0.42878958275964574,1.3409999999566935
312757.6857,-18.43508864335309,-4.17319494096415,-18.97414926135818,-1.063854376164516,1.3419999999459833
312757.6867,-18.41929802920102,-4.7887603475255185,-18.948693683871962,-1.6720838992282319,1.3429999999934807
312757.6877,-18.14965460990792,-5.361935657515245,-18.69593571398309,-2.289138669929128,1.3439999999827705
312757.6887,-17.690107982324083,-5.922351787202726,-18.265998560169635,-2.944537351350617,1.3449999999720603
312757.6897,-17.09910211069916,-6.491115184759033,-17.70294191815468,-3.658005637816603,1.3459999999613501
312757.6907,-16.42539812273622,-7.078316958144536,-17.04148355050126,-4.436977620474649,1.34699999995064
312757.6917,-15.705306320143846,-7.681867451564396,-16.30503345133594,-5.275486979162097,1.3479999999981374
312757.6927,-14.961510497392773,-8.287757722116966,-15.505181391056139,-6.154542669593767,1.3489999999874271
312757.6937,-14.203503148641238,-8.871702825673536,-14.642628784314779,-7.043932768240524,1.349999999976717
312757.6947,-13.42948744803624,-9.401980533329139,-13.709408979567044,-7.905255813658982,1.3509999999660067
312757.6957,-12.629457073915892,-9.843157130127967,-12.692110751155251,-8.695855649194472,1.3519999999552965
312757.6967,-11.789052182186765,-10.16030143045254,-11.575720696661685,-9.373245618139821,1.3529999999445863
312757.6977,-10.893720003821201,-10.323238085437518,-10.347641062673343,-9.899559862142338,1.3539999999920838
312757.6987,-9.932688185229885,-10.310386644185453,-9.00142591076181,-10.245568112640413,1.3549999999813735
312757.6997,-8.902289672234755,-10.111774136666323,-7.5398116266492625,-10.393835784191747,1.3559999999706633
312757.7007,-7.8082561122335195,-9.730892083966339,-5.9766940669363615,-10.340698774540082,1.3569999999599531
312757.7017,-6.6667141286721705,-9.185185560940305,-4.33781634237812,-10.096843359942287,1.357999999949243
312757.7027,-5.50376321881536,-8.505100635787013,-2.660067053496378,-9.68642384001769,1.3589999999967404
312757.7037,-4.353670571963224,-7.731763379621311,-0.9894350241855854,-9.144799908147396,1.3599999999860302
312757.7047,-3.2558707392324773,-6.913504018304998,0.6221915217588553,-8.515117160293666,1.36099999997532
312757.7057,-2.2510911571403627,-6.101559631513132,2.121070155701243,-7.844073528780193,1.3619999999646097
312757.7067,-1.377024359807479,-5.345376027856178,3.4560905323534588,-7.177299727382014,1.3629999999538995
312757.7077,-0.6640239773626103,-4.687975172482853,4.583246950342419,-6.554824370575155,1.364000000001397
312757.7087,-0.13130836291033487,-4.161854030529247,5.469636745491052,-6.007089858982825,1.3649999999906868
312757.7097,0.2158880440336566,-3.7858337010642362,6.096565176813381,-5.551933654652939,1.3659999999799766
312757.7107,0.3878655899772791,-3.5631886417550653,6.461421408396234,-5.192856114127359,1.3669999999692664
312757.7117,0.41049008643916857,-3.4812631988860545,6.578108804228429,-4.918769700711869,1.3679999999585561
312757.7127,0.32363333083630885,-3.5126384840379865,6.475954369490345,-4.705277552383853,1.368999999947846
312757.7137,0.1781156140293432,-3.617760980760793,6.19717278028228,-4.517376508577689,1.3699999999953434
312757.7147,0.03139783629846717,-3.7488000171558187,5.793105080204345,-4.313335918975406,1.3709999999846332
312757.7157,-0.05759601105369914,-3.8543786221375607,5.319576355262589,-4.049383148893952,1.371999999973923
312757.7167,-0.034048018113719165,-3.884733432405161,4.8318080645770545,-3.68474168140724,1.3729999999632128
312757.7177,0.14732203670835764,-3.7968130913253844,4.379369947628863,-3.18652667044869,1.3739999999525025
312757.7187,0.5174915606750107,-3.5588256800841007,4.001658423836148,-2.5340099958517732,1.375
312757.7197,1.089513088919002,-3.1537942216009434,3.724342664578478,-1.7218218561115874,1.3759999999892898
312757.7207,1.8564121881404958,-2.581770640057151,3.5571302651748855,-0.7617535630398036,1.3769999999785796
312757.7217,2.790844504421526,-1.8604839954386334,3.493080174873992,0.31704285940989363,1.3779999999678694
312757.7227,3.8465885376250393,-1.0243462626429896,3.509543211914943,1.4695110323499354,1.3789999999571592
312757.7237,4.96177885569667,-0.12189415768123217,3.570654339554334,2.63769761109792,1.379999999946449
312757.7247,6.063619908457314,0.7881064604090743,3.6311510439572987,3.7550573126646016,1.3809999999939464
312757.7257,7.07417928800741,1.641540549702936,3.641163190539962,4.751677312508935,1.3819999999832362
312757.7267,7.916754922582829,2.374362293716571,3.5515241960353054,5.559953553274163,1.382999999972526
312757.7277,8.522253440582103,2.928055783012752,3.3191005709183035,6.120206636603287,1.3839999999618158
312757.7287,8.835012417125153,3.2546388896424165,2.911632061885664,6.3857287411723,1.3849999999511056
312757.7297,8.817547945222511,3.3207558684434724,2.3116183215059882,6.326805033833864,1.385999999998603
312757.7307,8.453806350378217,3.110491910618538,1.5188761259694292,5.933348250068732,1.3869999999878928
312757.7317,7.750635601128444,2.6266650355017354,0.5515152376873039,5.215914275666475,1.3879999999771826
312757.7327,6.737354992858511,1.890495411719252,-0.5547708164000853,4.205017159460746,1.3889999999664724
312757.7337,5.463475429371984,0.9397053786155228,-1.749044705259683,2.9488194824588034,1.3899999999557622
312757.7347,3.994790536823562,-0.1747497466324248,-2.968888805632928,1.5094232381275023,1.390999999945052
312757.7357,2.4082049729131403,-1.3929937009914768,-4.145252072342792,-0.04188696267592376,1.3919999999925494
312757.7367,0.7857768509942511,-2.651164107119501,-5.207939566051285,-1.6300045153814142,1.3929999999818392
312757.7377,-0.791484123209282,-3.8864978934285923,-6.091245427850965,-3.1814726568046363,1.393999999971129
312757.7387,-2.249508244280969,-5.042089190888939,-6.739219009098795,-4.62957377597537,1.3949999999604188
312757.7397,-3.5262321502058263,-6.070882199956235,-7.110091060341123,-5.918588725870414,1.3959999999497086
312757.7407,-4.575412798771619,-6.938544316044384,-7.179468554299213,-7.0068674107519895,1.396999999997206
312757.7417,-5.368889203100177,-7.624981357407129,-6.942024800656906,-7.868474148480461,1.3979999999864958
312757.7427,-5.897146012013296,-8.124395351773718,-6.411554474793665,-8.493314768267775,1.3989999999757856
312757.7437,-6.16819851779218,-8.443932188989963,-5.619417162764148,-8.885802849037388,1.3999999999650754
312757.7447,-6.204979500047806,-8.601106966036133,-4.611543170670986,-9.06226507018079,1.4009999999543652
312757.7457,-6.0415488193638325,-8.620315151121044,-3.4443072648319957,-9.047406326042278,1.4020000000018626
312757.7467,-5.7185532919946445,-8.528825936571328,-2.1796771536805153,-8.870242266230605,1.4029999999911524
312757.7477,-5.278426946500707,-8.352701707918714,-0.8801043997988712,-8.559951864825775,1.4039999999804422
312757.7487,-4.7608345155044045,-8.113089856264386,0.3963594743377554,-8.142101291732958,1.404999999969732
312757.7497,-4.1988231276353725,-7.823290130301828,1.6002707083259502,-7.635643163244807,1.4059999999590218
312757.7507,-3.6160628283561564,-7.486916792725096,2.6939490162581303,-7.051007147991112,1.4069999999483116
312757.7517,-3.0254345575820354,-7.097358502314233,3.653316241620706,-6.389477921092629,1.407999999995809
312757.7527,-2.429077047298324,-6.638601794689269,4.468288194371105,-5.643916779662011,1.4089999999850988
312757.7537,-1.819846749479334,-6.08734004697303,5.141736201389504,-4.8007379984391765,1.4099999999743886
312757.7547,-1.1839933284783024,-5.416153345825179,5.687177680190124,-3.842914910532528,1.4109999999636784
312757.7557,-0.504722821937767,-4.597429460337766,6.125480196196296,-2.753677536281902,1.4119999999529682
312757.7567,0.2337754638069974,-3.6076137818887766,6.480958657426345,-1.5204848711380405,1.4130000000004657
312757.7577,1.0423141000459595,-2.4313350151044637,6.77730120889667,-0.13881877990361058,1.4139999999897555
312757.7587,1.9231827639959411,-1.064957890615748,7.033770606521338,1.3846432993158715,1.4149999999790452
312757.7597,2.8675438570306144,0.48083598410188505,7.262093431155113,3.0298637099740695,1.415999999968335
312757.7607,3.8540856894269666,2.1797475119459673,7.464373060941854,4.762578558896778,1.4169999999576248
312757.7617,4.8491410464247435,3.9900256674734114,7.632251673302821,6.534893557300173,1.4179999999469146
312757.7627,5.808326202284336,5.856142702151519,7.7474129494817605,8.287359042326662,1.418999999994412
312757.7637,6.67959457546622,7.711873890006979,7.783374175100866,9.952391378739783,1.4199999999837019
312757.7647,7.407446398198426,9.484536600219727,7.708378607749352,11.458768470275299,1.4209999999729916
312757.7657,7.93790651247869,11.100025638561132,7.48908037148283,12.736812196991206,1.4219999999622814
312757.7667,8.223790000226234,12.488197906777948,7.094626899953952,13.723791825003367,1.4229999999515712
312757.7677,8.229729575418116,13.588117918875426,6.500697127905042,14.369047936376347,1.4239999999990687
312757.7687,7.936444761019503,14.352680934288928,5.693052229429638,14.638350064276393,1.4249999999883585
312757.7697,7.343791025322225,14.752182253520406,4.67020016567249,14.517062198628494,1.4259999999776483
312757.7707,6.4722323150001175,14.77649489263553,3.4448614524373857,14.011793255087394,1.426999999966938
312757.7717,5.36252316354025,14.435644655229254,2.0440429756353664,13.150344978435411,1.4279999999562278
312757.7727,4.073553358410654,13.758719558150407,0.5076675441731487,11.979924881382463,1.4289999999455176
312757.7737,2.6784830997375417,12.791205549849188,-1.114144896229593,10.56375201064133,1.429999999993015
312757.7747,1.2594627890331973,11.590987655174686,-2.764907782305877,8.976333309716104,1.4309999999823049
312757.7757,-0.09862717026342166,10.223380941787758,-4.386354737140871,7.297813722750381,1.4319999999715947
312757.7767,-1.3148788623351861,8.755646938275234,-5.923342430760814,5.607891840782892,1.4329999999608845
312757.7777,-2.3189108850650286,7.251499476071446,-7.328587477572625,3.9798361648068212,1.4339999999501742
312757.7787,-3.0566850374235757,5.766104601735741,-8.566761261662919,2.475130579553647,1.4349999999976717
312757.7797,-3.495054034039014,4.342032003249537,-9.61752020216143,1.1392217613616442,1.4359999999869615
312757.7807,-3.6246163259858233,3.0065247025518502,-10.477145568819031,-0.0012589384536280468,1.4369999999762513
312757.7817,-3.4606025232993685,1.7703281632160561,-11.158597493900379,-0.9395617645202304,1.437999999965541
312757.7827,-3.0416933056954525,0.6281713952874137,-11.68993982116163,-1.6880930892455919,1.4389999999548309
312757.7837,-2.426854691436579,-0.4391647152400078,-12.111251175552551,-2.2759832574965797,1.4400000000023283
312757.7847,-1.690455644450597,-1.4614077252672466,-12.47028762228443,-2.7451896377346205,1.440999999991618
312757.7857,-0.9160883666865781,-2.474328861647411,-12.817288730420831,-3.145510696828021,1.4419999999809079
312757.7867,-0.18962859804926852,-3.5146966073865604,-13.199409165374075,-3.5289852870743643,1.4429999999701977
312757.7877,0.4078591831419668,-4.615146793609841,-13.65530293755573,-3.9442049135096893,1.4439999999594875
312757.7887,0.8067549165713798,-5.799474327531863,-14.210382307575507,-4.431070580865701,1.4449999999487773
312757.7897,0.9544826145120757,-7.078810329881808,-14.87321810730903,-5.016479703914273,1.4459999999962747
312757.7907,0.8196018904423409,-8.449062779699778,-15.633447756195823,-5.7113370762609925,1.4469999999855645
312757.7917,0.3940569758835436,-9.889877052631473,-16.461420814293348,-6.509155929791314,1.4479999999748543
312757.7927,-0.3065813179120418,-11.365226731542188,-17.309652318938767,-7.386363037655482,1.448999999964144
312757.7937,-1.244861941485505,-12.825588826313487,-18.115986490283603,-8.304260234160047,1.4499999999534339
312757.7947,-2.364990091909822,-14.211506081230647,-18.808213584669033,-9.212439102959173,1.4510000000009313
312757.7957,-3.59779701770795,-15.458206894243972,-19.309745938659887,-10.053310724577669,1.4519999999902211
312757.7967,-4.866663161484026,-16.500853141680935,-19.54585861649104,-10.767310998815226,1.452999999979511
312757.7977,-6.09383825564126,-17.279927394876605,-19.449945147799983,-11.29828358951851,1.4539999999688007
312757.7987,-7.206579031138765,-17.74625910157146,-18.96923485837616,-11.598532206105805,1.4549999999580905
312757.7997,-8.142557203848323,-17.8652252072512,-18.069465634527134,-11.633072288055901,1.4559999999473803
312757.8007,-8.854073597006376,-17.619740711549415,-16.738100120614515,-11.382695042197241,1.4569999999948777
312757.8017,-9.310739990738393,-17.01177084983577,-14.985805395439856,-10.845575773751984,1.4579999999841675
312757.8027,-9.500445903352771,-16.06223756171384,-12.846073612552164,-10.037301700261185,1.4589999999734573
312757.8037,-9.428597595838365,-14.80934492384725,-10.373029077459893,-8.989347839732707,1.459999999962747
312757.8047,-9.115784505012732,-13.305496562218448,-7.637630000997334,-7.74617815078234,1.4609999999520369
312757.8057,-8.594177791141862,-11.613108441589688,-4.722615519988431,-6.361278497884351,1.4619999999995343
312757.8067,-7.903082429171464,-9.799720409869828,-1.7166573350116976,-4.89252583211933,1.4629999999888241
312757.8077,-7.084137303343914,-7.9328700326220885,1.2917594497932525,-3.3973550089345608,1.463999999978114
312757.8087,-6.17668047123425,-6.075207093789991,4.220185751658406,-1.9281957531314735,1.4649999999674037
312757.8097,-5.213767501529248,-4.28029560437273,6.997282082274291,-0.5286167956892579,1.4659999999566935
312757.8107,-4.219253002182109,-2.5894757049952832,9.566691254183947,0.7694639306229186,1.4669999999459833
312757.8117,-3.2062272936695866,-1.030048075288517,11.889404931641762,1.9472568755688913,1.4679999999934807
312757.8127,-2.1769536797327578,0.3850906344542695,13.944465433406949,2.9991559932333183,1.4689999999827705
312757.8137,-1.1242916455034229,1.656377959742525,15.728003737038263,3.931406673256796,1.4699999999720603
312757.8147,-0.034433532178295305,2.795239834494967,17.250771777356874,4.759562398656959,1.4709999999613501
312757.8157,1.1093575523674752,3.8207520132755133,18.53446696159226,5.5050279039109125,1.47199999995064
312757.8167,2.3224288044236165,4.755687209230213,19.60725617188942,6.191077656916544,1.4729999999981374
312757.8177,3.61432349425069,5.622383234176818,20.4989752168972,6.838789784097377,1.4739999999874271
312757.8187,4.984773692218497,6.438880210793814,21.23650150703374,7.463342092012904,1.474999999976717
312757.8197,6.4205681009194375,7.215742625639934,21.83977097972171,8.071078031837454,1.4759999999660067
312757.8207,7.893681648810926,7.953907955153339,22.318837994882813,8.657670209327028,1.4769999999552965
312757.8217,9.3609325050168,8.643795279249044,22.67226644408901,9.207595368800803,1.4779999999445863
312757.8227,10.765283413993869,9.265775525072478,22.887002711542713,9.694998999400344,1.4789999999920838
312757.8237,12.038742170278237,9.791962892066165,22.939730007087636,10.08588335614412,1.4799999999813735
312757.8247,13.106656413869272,10.189148752871986,22.799553816666496,10.341414164092317,1.4809999999706633
312757.8257,13.893056265634307,10.422578685390468,22.431734428342597,10.422022445799847,1.4819999999599531
312757.8267,14.32658845995011,10.460182326138385,21.80207769658148,10.291890734090696,1.482999999949243
312757.8277,14.346518335781196,10.276813588235324,20.881529504486984,9.923366264686486,1.4839999999967404
312757.8287,13.908257993268824,9.85805078956738,19.65049899425695,9.300842473027267,1.4849999999860302
312757.8297,12.987912052571696,9.203143376445654,18.102462310062684,8.423694667603913,1.48599999997532
312757.8307,11.585413787647187,8.326770748191645,16.246469461857657,7.307942019320577,1.4869999999646097
312757.8317,9.725946341659748,7.259391617254734,14.108284779977954,5.986427763731537,1.4879999999538995
312757.8327,7.4594947587411,6.046098427179708,11.730025500370084,4.507451197134395,1.489000000001397
312757.8337,4.858540399357318,4.744037333852995,9.168309990409238,2.93193488563178,1.4899999999906868
312757.8347,2.014074246836533,3.418595852640238,6.491072485203942,1.3293538598494383,1.4909999999799766
312757.8357,-0.9697459299830017,2.138683581718645,3.7733306725079694,-0.22722363575490193,1.4919999999692664
312757.8367,-3.9818516014653262,0.9715242653641764,1.0922933905398382,-1.6665441589051537,1.4929999999585561
312757.8377,-6.910913237677184,-0.022569372590606925,-1.4777416955609877,-2.9245377353549946,1.493999999947846
312757.8387,-9.651836375617766,-0.7949585077017175,-3.8702322612889457,-3.949157264598662,1.4949999999953434
312757.8397,-12.111579447899885,-1.3125372975572402,-6.030536710939098,-4.704244043884314,1.4959999999846332
312757.8407,-14.213840025078255,-1.5603272961801518,-7.918990630396901,-5.172063021051612,1.496999999973923
312757.8417,-15.902268456236715,-1.5425619686220289,-9.512650356132765,-5.354274230066748,1.4979999999632128
312757.8427,-17.14201025812396,-1.2821556707476731,-10.805570986174432,-5.271252589406796,1.4989999999525025
312757.8437,-17.919537064595406,-0.818601609864905,-11.807629389606833,-4.959822858316804,1.5
312757.8447,-18.240885092343994,-0.2044895493365503,-12.542043713692635,-4.469625142979723,1.5009999999892898
312757.8457,-18.128564518564385,0.49903774280550817,-13.04186557396195,-3.8584545523610765,1.5019999999785796
312757.8467,-17.61751903651806,1.2274724584321823,-13.345817233747724,-3.187013985776708,1.5029999999678694
312757.8477,-16.750591161150215,1.9182992854849323,-13.493904203289077,-2.513572307637292,1.5039999999571592
312757.8487,-15.573978541566538,2.5160351087461237,-13.52324819103425,-1.8890261140783775,1.504999999946449
312757.8497,-14.13314716401522,2.9764975119532613,-13.46455496150865,-1.3528212972552265,1.5059999999939464
312757.8507,-12.469601315671458,3.2699260095505083,-13.339559622985982,-0.9301047106601206,1.5069999999832362
312757.8517,-10.618804555666962,3.382692897596517,-13.159685578879401,-0.6303547679033727,1.507999999972526
312757.8527,-8.609411652403244,3.3174781842673826,-12.92602365648073,-0.44759459289338843,1.5089999999618158
312757.8537,-6.463822277704871,3.0919317789452556,-12.630597959126629,-0.3621365492356505,1.5099999999511056
312757.8547,-4.199918452108118,2.735991440820454,-12.25874900055966,-0.34365773910562103,1.510999999998603
312757.8557,-1.8337145208030483,2.288152717479378,-11.792346524132892,-0.355276981096299,1.5119999999878928
312757.8567,0.6174555445354181,1.7910847936400014,-11.213456171241475,-0.358207494022861,1.5129999999771826
312757.8577,3.131652754843504,1.2870443503455447,-10.50803494800547,-0.3165054574560683,1.5139999999664724
312757.8587,5.679406226514483,0.8135526493262536,-9.669225445086429,-0.2014280681148321,1.5149999999557622
312757.8597,8.22157009942207,0.39976801074930873,-8.69985874464579,0.005043734806559144,1.515999999945052
312757.8607,10.7083124116624,0.06391011522325615,-7.613857108216533,0.30787718323888935,1.5169999999925494
312757.8617,13.079468700691299,-0.18801818205690377,-6.436341896888362,0.6980925319573175,1.5179999999818392
312757.8627,15.26635086354957,-0.3621004539297319,-5.2023883322131015,1.1533946228536112,1.518999999971129
312757.8637,17.194946925083062,-0.47500167157645373,-3.9545129680530957,1.6402711828630518,1.5199999999604188
312757.8647,18.79029539427102,-0.5512634548127503,-2.739117475351547,2.11735008355949,1.5209999999497086
312757.8657,19.98168421373122,-0.6196973873520226,-1.6022294272452284,2.53968054736404,1.521999999997206
312757.8667,20.70822259118761,-0.7092667637046866,-0.5849650311937858,2.8635091442876353,1.5229999999864958
312757.8677,20.92427483311418,-0.8449002512797653,0.28081882062773433,3.0510696639992245,1.5239999999757856
312757.8687,20.60423513430089,-1.043689357621504,0.9762201312626037,3.0749016700936944,1.5249999999650754
312757.8697,19.746162782646977,-1.3118844788600499,1.4979233083771524,2.9212561719123333,1.5259999999543652
312757.8707,18.373885123791126,-1.643025366096638,1.8594488796971385,2.592234103427835,1.5270000000018626
312757.8717,16.53730295151801,-2.01742890475826,2.0908316014386505,2.1064256229026515,1.5279999999911524
312757.8727,14.31078791918645,-2.4031213288737785,2.236686834926754,1.497963659612681,1.5289999999804422
312757.8737,11.789729538824611,-2.7581568000039955,2.3527820918819757,0.8140594085373393,1.529999999969732
312757.8747,9.08545445666049,-3.0341240009939665,2.5013796911842436,0.11123553580549646,1.5309999999590218
312757.8757,6.318887289453161,-3.180520872265883,2.7457428284590564,-0.5493997421799818,1.5319999999483116
312757.8767,3.613436429000662,-3.1495868555864757,3.144288396460113,-1.1074002196732877,1.532999999995809
312757.8777,1.0876590056740514,-2.9011309965793375,3.7449162815026247,-1.5082613444170605,1.5339999999850988
312757.8787,-1.1517200928370632,-2.40688809382273,4.58004151344129,-1.7082376094990503,1.5349999999743886
312757.8797,-3.015891584499184,-1.6539744864105452,5.66280224346693,-1.6782463148644986,1.5359999999636784
312757.8807,-4.438684340056509,-0.6470963083514037,6.98481757407586,-1.4064927809578578,1.5369999999529682
312757.8817,-5.379585634500754,0.5907217145030644,8.515733702666841,-0.8995736131703539,1.5380000000004657
312757.8827,-5.824869084471905,2.018980734752729,10.20463718700259,-0.18195932835816556,1.5389999999897555
312757.8837,-5.786807048012384,3.5820717244782734,11.983245319620751,0.7060885353046867,1.5399999999790452
312757.8847,-5.3011105793018745,5.212962291171071,13.770621503046687,1.7119627541388724,1.540999999968335
312757.8857,-4.422890189831684,6.837885602452108,15.479023485314011,2.7751873906981452,1.5419999999576248
312757.8867,-3.2215506440235813,8.381617106170026,17.020387647224727,3.8325004034544956,1.5429999999469146
312757.8877,-1.7751117967490857,9.77287080289667,18.312893210831223,4.82306238269588,1.543999999994412
312757.8887,-0.1644781169159434,10.949337636829744,19.287041961254772,5.693305084212044,1.5449999999837019
312757.8897,1.531840182774359,11.861924872351489,19.890732705436186,6.400973752722106,1.5459999999729916
312757.8907,3.242118870890533,12.477833439041873,20.09290117591743,6.918000511280524,1.5469999999622814
312757.8917,4.904596438914217,12.782222417460853,19.885426834838036,7.231963976140811,1.5479999999515712
312757.8927,6.4692448121221044,12.778345064290814,19.28316573638967,7.3460310127372175,1.5489999999990687
312757.8937,7.898094863556987,12.486185790728925,18.322138414809285,7.277426248384748,1.5499999999883585
312757.8947,9.164229158689055,11.939768154981861,17.056067701041425,7.054618840383071,1.5509999999776483
312757.8957,10.24969043591783,11.183426530192898,15.551607851443455,6.713539924052426,1.551999999966938
312757.8967,11.142661320920737,10.267426805660424,13.882719697003322,6.293236003572175,1.5529999999562278
312757.8977,11.834338119339675,9.243375397987652,12.124716186149175,5.8314143712070035,1.5539999999455176
312757.8987,12.315942725195653,8.159865969608171,10.348522393076237,5.360341598171208,1.554999999993015
312757.8997,12.576289912313587,7.058778898452775,8.615662294565581,4.903514936229554,1.5559999999823049
312757.9007,12.600255604703944,5.972573442129734,6.9744048223930415,4.473443382503366,1.5569999999715947
312757.9017,12.368382767239758,4.922804448561524,5.457381919620539,4.0707586161305,1.5579999999608845
312757.9027,11.857726721839441,3.9199653893802013,4.080843426469374,3.684737744299314,1.5589999999501742
312757.9037,11.043895010266574,2.964620590454031,2.8455521091353475,3.2951736626122172,1.5599999999976717
312757.9047,9.904093642603817,2.0496558013091186,1.7391627726018495,2.875389463653341,1.5609999999869615
312757.9057,8.420866620940133,1.1633611198447371,0.7397876132180737,2.3960746464940264,1.5619999999762513
312757.9067,6.586122119328769,0.2929753128805462,-0.17966059361543643,1.829534743061285,1.562999999965541
312757.9077,4.404986601261457,-0.5717257540612073,-1.0468247077320776,1.153900994035854,1.5639999999548309
312757.9087,1.8990232872991424,-1.4352169295400847,-1.8854568277114123,0.35684739388221115,1.5650000000023283
312757.9097,-0.891605164748839,-2.2937677147328377,-2.7116383365293193,-0.5615912351627302,1.565999999991618
312757.9107,-3.9073619032562497,-3.1340423008757723,-3.531060106167238,-1.5874190294993629,1.5669999999809079
312757.9117,-7.07015688891941,-3.9329443731133167,-4.337642659337045,-2.6924956729939478,1.5679999999701977
312757.9127,-10.28582284542491,-4.658763842862925,-5.113635146848086,-3.8358281169027237,1.5689999999594875
312757.9137,-13.448146759163185,-5.273544196731201,-5.831178184375874,-4.966248357265115,1.5699999999487773
312757.9147,-16.444204558474755,-5.736457658282092,-6.455164227072797,-6.0262485598882565,1.5709999999962747
312757.9157,-19.160614310938286,-6.00786413623273,-6.94709523596426,-6.95662675398927,1.5719999999855645
312757.9167,-21.49022481887415,-6.053650285002576,-7.269534095927664,-7.7015115068130875,1.5729999999748543
312757.9177,-23.338701800673743,-5.849405137985287,-7.390683687360985,-8.213290884147595,1.573999999964144
312757.9187,-24.63046865532522,-5.383992987011763,-7.288611744042528,-8.456973961683232,1.5749999999534339
312757.9197,-25.313504094518574,-4.662132433149123,-6.9546720763449565,-8.413562047745327,1.5760000000009313
312757.9207,-25.362590801680764,-3.705678446390375,-6.395750091156257,-8.082096995550572,1.5769999999902211
312757.9217,-24.780739355710264,-2.5534235513789234,-5.635075093150643,-7.48017687957693,1.577999999979511
312757.9227,-23.598667862711586,-1.259373496286822,-4.711482277388219,-6.642873054914419,1.5789999999688007
312757.9237,-21.87238546265487,0.11040145373928616,-3.6771597831005307,-5.620133341124767,1.5799999999580905
312757.9247,-19.679091380803197,1.4821002554700529,-2.5940656814843512,-4.472899210235032,1.5809999999473803
312757.9257,-17.111745119347113,2.7793533664776056,-1.5293316332896043,-3.2682865667055494,1.5819999999948777
312757.9267,-14.272774234851902,3.9287724808840983,-0.5500712302714302,-2.0742681996422982,1.5829999999841675
312757.9277,-11.267453581561739,4.865403028435497,0.28192821726028866,-0.9543426814214314,1.5839999999734573
312757.9287,-8.197507734151863,5.537596624569582,0.9151374423995884,0.03732516168829997,1.584999999962747
312757.9297,-5.155455104636125,5.910868180024171,1.3123812133776624,0.8598531310617572,1.5859999999520369
312757.9307,-2.22013149924879,5.970391290375151,1.4537175701019815,1.488328824848928,1.5869999999995343
312757.9317,0.54628945483592,5.721907573978004,1.337834647732139,1.9150054883181924,1.5879999999888241
312757.9327,3.099609639743265,5.190969329984823,0.9818404577989902,2.1489200748700092,1.588999999978114
312757.9337,5.413245515492388,4.420586634276863,0.41947390878507035,2.2139979764317927,1.5899999999674037
312757.9347,7.476343888055679,3.467495344014,-0.30208484206563146,2.1458529544943645,1.5909999999566935
312757.9357,9.290666568585479,2.3973875734046133,-1.12649457803376,1.9876140307735704,1.5919999999459833
312757.9367,10.866646022251034,1.279539078834908,-1.9932122722733931,1.7852015202490112,1.5929999999934807
312757.9377,12.219082237974195,0.1813197707546512,-2.8426591117638282,1.5825232507244273,1.5939999999827705
312757.9387,13.3629711024492,-0.8369206832601515,-3.6211066024431426,1.417064614892007,1.5949999999720603
312757.9397,14.309924980827974,-1.7261409894475177,-4.2848293029592055,1.3163022710860117,1.5959999999613501
312757.9407,15.065570338681257,-2.4517022591531688,-4.80314816297528,1.2952854213528961,1.59699999995064
312757.9417,15.628192993794075,-2.9950179036717124,-5.160102234009933,1.355609145387804,1.5979999999981374
312757.9427,15.988760649142723,-3.353650180616357,-5.354625272415396,1.4858630444608367,1.5989999999874271
312757.9437,16.132299042543405,-3.539894377195723,-5.3992536174957095,1.663489380678178,1.599999999976717
312757.9447,16.04044788183385,-3.578036625454464,-5.317537786229898,1.8578426943901754,1.6009999999660067
312757.9457,15.694890930946812,-3.500597114087646,-5.140457971222049,2.034121598793975,1.6019999999552965
312757.9467,15.081254571954164,-3.343964812694125,-4.902240394075686,2.1577551040247234,1.6029999999445863
312757.9477,14.193011152939173,-3.143883640401906,-4.636027677928815,2.1987792171980254,1.6039999999920838
312757.9487,13.034913544824809,-2.931258128283735,-4.3698665215553225,2.1357394203237505,1.6049999999813735
312757.9497,11.625526900850417,-2.728708344027614,-4.123439026426703,1.9587011079277623,1.6059999999706633
312757.9507,9.998509042833351,-2.54822300891023,-3.9058837691546704,1.6710387451833892,1.6069999999599531
312757.9517,8.20241399411683,-2.390144358695029,-3.7149371629198895,1.289796786516142,1.607999999949243
312757.9527,6.298941928093329,-2.243579803274284,-3.537486382051519,0.8445593247884245,1.6089999999967404
312757.9537,4.359718530493874,-2.0881875434401924,-3.3514761016617984,0.37491687593049183,1.6099999999860302
312757.9547,2.4618415735514683,-1.897140686922717,-3.1289675249183126,-0.07323732670773091,1.61099999997532
312757.9557,0.682566779509333,-1.6409512742124768,-2.840024181015265,-0.4522269812478884,1.6119999999646097
312757.9567,-0.9063949259041142,-1.291744309119684,-2.457007434586264,-0.7174856690861032,1.6129999999538995
312757.9577,-2.2444414131491004,-0.8275216257874487,-1.9588150557869917,-0.8323354699726385,1.614000000001397
312757.9587,-3.286972973931634,-0.23595142848176892,-1.3345939455461946,-0.7721665325080558,1.6149999999906868
312757.9597,-4.009131926941356,0.48273772824842015,-0.5865038943747167,-0.5275839081758489,1.6159999999799766
312757.9607,-4.4080009358916925,1.3140938815266967,0.26880101628410935,-0.10618247623719787,1.6169999999692664
312757.9617,-4.503008873561369,2.2292243449438973,1.200181606352303,0.46726009013595465,1.6179999999585561
312757.9627,-4.33445621760108,3.1860954955194547,2.1635731875354804,1.1522310120468326,1.618999999947846
312757.9637,-3.960246683593082,4.132268735653016,3.1049982465087904,1.8954705098381057,1.6199999999953434
312757.9647,-3.451081290047655,5.008845646685946,3.9647847491659047,2.63524907847758,1.6209999999846332
312757.9657,-2.8845188298769053,5.755270057272387,4.682614471584701,3.3065544361218975,1.621999999973923
312757.9667,-2.338418253069494,6.314542789594129,5.202932756737609,3.846715856280002,1.6229999999632128
312757.9677,-1.884342586149625,6.638355576891045,5.480202931663997,4.200945567974591,1.6239999999525025
312757.9687,-1.581514067291526,6.691649272930012,5.4834906820350175,4.327278633293819,1.625
312757.9697,-1.4718646904077741,6.456148521767281,5.199916440049521,4.200444342354856,1.6259999999892898
312757.9707,-1.5766292223586755,5.932516295890985,4.63661276641674,3.8142989939939467,1.6269999999785796
312757.9717,-1.8947878991611107,5.140898559897924,3.820959674542066,3.1825828318974403,1.6279999999678694
312757.9727,-2.403496511749832,4.119779666431384,2.7990310063441624,2.3379202198701727,1.6289999999571592
312757.9737,-3.060458474480111,2.923228481820497,1.6323539907008173,1.3291468980073453,1.629999999946449
312757.9747,-3.8080141239764473,1.6167682679783921,0.39324566965487756,0.21720554108961374,1.6309999999939464
312757.9757,-4.578564012652968,0.27223516865070785,-0.8408717629364728,-0.9300142986632733,1.6319999999832362
312757.9767,-5.30082047225392,-1.037912080930263,-1.9936730866910446,-2.0434164293602555,1.632999999972526
312757.9777,-5.9063069345676205,-2.2463144697870883,-2.9960913319240507,-3.0584887370594998,1.6339999999618158
312757.9787,-6.335504553639859,-3.29594520501431,-3.7918777342287426,-3.920610747846864,1.6349999999511056
312757.9797,-6.543082463202969,-4.144375151524195,-4.342050851088856,-4.589391195703796,1.635999999998603
312757.9807,-6.50173796579343,-4.766684190799019,-4.6278248872095,-5.04164180506305,1.6369999999878928
312757.9817,-6.204307420074587,-5.156758738118488,-4.6517462261737155,-5.272723865988352,1.6379999999771826
312757.9827,-5.663974629824985,-5.326867863928824,-4.436932472517607,-5.296159353617666,1.6389999999664724
312757.9837,-4.912585174883697,-5.305573060643512,-4.024484362964343,-5.141563424656119,1.6399999999557622
312757.9847,-3.9972549097942167,-5.134184101951157,-3.4693110218306504,-4.85111427109631,1.640999999945052
312757.9857,-2.975621542336279,-4.86211055170173,-2.8347570478132798,-4.474914267306587,1.6419999999925494
312757.9867,-1.9102144170551334,-4.5415621203580105,-2.186531733276999,-4.0656999082665015,1.6429999999818392
312757.9877,-0.8624973550260763,-4.222111273415227,-1.5865056622219833,-3.6734173288055607,1.643999999971129
312757.9887,0.11283485030153033,-3.945642477622249,-1.0869517860669156,-3.3401896198701513,1.6449999999604188
312757.9897,0.9727561578904147,-3.742173176044791,-0.7257656586988013,-3.0961609378484503,1.6459999999497086
312757.9907,1.6895385982397149,-3.6269458058555504,-0.523106804339926,-2.956614643460056,1.646999999997206
312757.9917,2.252772743168489,-3.5990661884155704,-0.47976895410460396,-2.9206369985718292,1.6479999999864958
312757.9927,2.669601107437222,-3.6418133876817063,-0.5774238250309084,-2.9714465308564098,1.6489999999757856
312757.9937,2.9631628182542067,-3.724584134999482,-0.7807066685594745,-3.0783467437555565,1.6499999999650754
312757.9947,3.169423528242331,-3.8062767666400155,-1.0409386877846667,-3.200102130968176,1.6509999999543652
312757.9957,3.332722174449144,-3.839780542283228,-1.301127993040876,-3.289399687009982,1.6520000000018626
312757.9967,3.5004905141993534,-3.7771295805478444,-1.5017715294188139,-3.2979535591352955,1.6529999999911524
312757.9977,3.717680405340885,-3.5748166887536073,-1.5869066024681446,-3.1817491854275883,1.6539999999804422
312757.9987,4.0214600038934885,-3.1987471748503546,-1.5098391549770072,-2.905911022111825,1.654999999969732
312757.9997,4.436711063472146,-2.6283476905747443,-1.2380087269284328,-2.448715825473702,1.6559999999590218
312758.0007,4.972778372045664,-1.8594268024688712,-0.7565338111280289,-1.8043576036716857,1.6569999999483116
312758.0017,5.6217971775745585,-0.9055043523778,-0.07010798647666568,-0.9841924894434072,1.657999999995809
312758.0027,6.3587676494401295,0.20252594750116143,0.7969254292042897,-0.016339930699780455,1.6589999999850988
312758.0037,7.143372481696988,1.418376130513821,1.8023195322524426,1.0563237286534992,1.6599999999743886
312758.0047,7.923361701048668,2.6838039105496376,2.889318198145194,2.1795875741520745,1.6609999999636784
312758.0057,8.639174508137033,3.9331916773117492,3.991371615458572,3.292416207823056,1.6619999999529682
312758.0067,9.2293466822515,5.0988353183364845,5.037723707702524,4.332115439930402,1.6630000000004657
312758.0077,9.636175573737692,6.116447394389028,5.959343731399772,5.239659883512909,1.6639999999897555
312758.0087,9.811090418042003,6.930360950931942,6.694647046002773,5.964675530736351,1.6649999999790452
312758.0097,9.719205893290406,7.497951577843036,7.194476250044673,6.469606607219159,1.665999999968335
312758.0107,9.342618396317594,7.792872983067551,7.425890721365549,6.732677914785333,1.6669999999576248
312758.0117,8.68212925583698,7.806817576473928,7.374432323635997,6.749383272550364,1.6679999999469146
312758.0127,7.75723461498929,7.549656892057534,7.044685731793743,6.532375682432179,1.668999999994412
312758.0137,6.604392563640569,7.0479730370155025,6.4591185920287355,6.109791128927765,1.6699999999837019
312758.0147,5.273747362363071,6.342146458404862,5.65535316092592,5.52219006286838,1.6709999999729916
312758.0157,3.824641540590776,5.48230215970282,4.6821708570071765,4.818433662194157,1.6719999999622814
312758.0167,2.320364375168438,4.523522828752339,3.594669703382527,4.0509128889633095,1.6729999999515712
312758.0177,0.8226581732940784,3.520802944628915,2.449070477315483,3.2706073622835095,1.6739999999990687
312758.0187,-0.6134752469544796,2.5242366334964075,1.2976933069491698,2.522462505557558,1.6749999999883585
312758.0197,-1.9441584613249812,1.5749022837879876,0.18460022537386353,1.8415363861678526,1.6759999999776483
312758.0207,-3.139786892679626,0.7018319089402387,-0.8576762611887117,1.2502860272326233,1.676999999966938
312758.0217,-4.186641818312615,-0.07965940963287538,-1.8100154075603023,0.7572450180031359,1.6779999999562278
312758.0227,-5.0868235224366565,-0.7681476601875407,-2.667044481850716,0.35720183922645715,1.6789999999455176
312758.0237,-5.856530058912511,-1.374792769263172,-3.4359333783125696,0.032835703001308766,1.679999999993015
312758.0247,-6.52287438436459,-1.920714314950403,-4.133811557502391,-0.2423808874224872,1.6809999999823049
312758.0257,-7.119580722632998,-2.433345912676112,-4.78411335376749,-0.5003315244491757,1.6819999999715947
312758.0267,-7.68201520186698,-2.9421655885384093,-5.412267942228597,-0.7738713299445378,1.6829999999608845
312758.0277,-8.242074678991626,-3.474260754226732,-6.041217615147058,-1.0923760541470986,1.6839999999501742
312758.0287,-8.82347430711602,-4.050201536196965,-6.687265706511156,-1.4776987521945981,1.6849999999976717
312758.0297,-9.43793702681561,-4.6806637852013715,-7.356721723140672,-1.9409664051051112,1.6859999999869615
312758.0307,-10.082700308638344,-5.36416639170831,-8.043729343763511,-2.4805635959472765,1.6869999999762513
312758.0317,-10.739625652481571,-6.086174212931954,-8.729541109032551,-3.081529849772356,1.687999999965541
312758.0327,-11.376037212755318,-6.819679236438717,-9.383354029396944,-3.7164534588676266,1.6889999999548309
312758.0337,-11.947243025067108,-7.527222313539369,-9.964657966530975,-4.347791820201728,1.6900000000023283
312758.0347,-12.400522604461187,-8.164170780236823,-10.426889788889083,-4.93140169540724,1.690999999991618
312758.0357,-12.680214841352067,-8.682938105658268,-10.722046943223551,-5.42093696436173,1.6919999999809079
312758.0367,-12.733424915539594,-9.037733173725407,-10.805808302179845,-5.772678956798238,1.6929999999701977
312758.0377,-12.515799816078035,-9.189368709100044,-10.642648724306241,-5.950314626435829,1.6939999999594875
312758.0387,-11.99680597112299,-9.109646530256605,-10.210423106091229,-5.929175814008311,1.6949999999487773
312758.0397,-11.16398129020883,-8.784873040652322,-9.503937215018464,-5.699499077689625,1.6959999999962747
312758.0407,-10.025724108800063,-8.218138281983165,-8.537112515301656,-5.2683557645195895,1.6969999999855645
312758.0417,-8.612314617490359,-7.430108270794549,-7.343481996755949,-4.660027545789697,1.6979999999748543
312758.0427,-6.975027700857684,-6.458221945707017,-5.974911209259222,-3.914751448835793,1.698999999964144
312758.0437,-5.1833741021755735,-5.354337118831743,-4.498608086778933,-3.0859160835964143,1.6999999999534339
312758.0447,-3.3206824317169765,-4.181019472084421,-2.992650280431195,-2.2359419718019318,1.7010000000009313
312758.0457,-1.4783909216230593,-3.006800306756043,-1.5404035474254532,-1.4312089064869864,1.7019999999902211
312758.0467,0.2504599891466966,-1.9008296195524776,-0.22431513782063114,-0.7364893782903879,1.702999999979511
312758.0477,1.7779668829852233,-0.9274113016580741,0.8803687312255195,-0.20939983050399125,1.7039999999688007
312758.0487,3.027743970514067,-0.14092094155778143,1.7113987831640254,0.10461445346605223,1.7049999999580905
312758.0497,3.940386934076196,0.4184275266010924,2.224309189902553,0.17629027877973794,1.7059999999473803
312758.0507,4.477546384275525,0.7275789863570796,2.3957612035490343,-0.004826866411966386,1.7069999999948777
312758.0517,4.624265900491238,0.7821267390053058,2.2251409052465694,-0.4293936564000981,1.7079999999841675
312758.0527,4.389399936352429,0.5961650218730918,1.7342673570181955,-1.069018678456634,1.7089999999734573
312758.0537,3.8041035290380476,0.20052899104312646,0.9652404600556713,-1.8786907496500993,1.709999999962747
312758.0547,2.918561873803478,-0.3604018621782586,-0.023371840094339784,-2.8006689189612266,1.7109999999520369
312758.0557,1.797286649009749,-1.033026686421916,-1.1616558438651456,-3.7694809271624443,1.7119999999995343
312758.0567,0.5134324779999209,-1.759558361303955,-2.374314358467541,-4.717573749452812,1.7129999999888241
312758.0577,-0.8573307466454485,-2.4832923791056527,-3.586925338736229,-5.581099719330705,1.713999999978114
312758.0587,-2.2428232954661342,-3.1536132404479686,-4.731930468015048,-6.3053103231299605,1.7149999999674037
312758.0597,-3.5796959338314216,-3.730271799406446,-5.75381762536294,-6.849068089279452,1.7159999999566935
312758.0607,-4.817637249693987,-4.186541310539782,-6.613041748308998,-7.188071337117388,1.7169999999459833
312758.0617,-5.92209875696574,-4.5109714782323875,-7.2883515015878455,-7.3165087619754665,1.7179999999934807
312758.0627,-6.875339084662067,-4.707597626422635,-7.777342541335995,-7.24700917381188,1.7189999999827705
312758.0637,-7.675756054187686,-4.794612722455159,-8.095227280209684,-7.008911962752944,1.7199999999720603
312758.0647,-8.335643472083028,-4.801658738840655,-8.271979707112918,-6.6450407254162505,1.7209999999613501
312758.0657,-8.877661656341932,-4.766026297252003,-8.34816588392321,-6.207301017725178,1.72199999995064
312758.0667,-9.330432357514507,-4.728154930432129,-8.369891759722783,-5.751530284244581,1.7229999999981374
312758.0677,-9.723748193992583,-4.726890724566759,-8.383378470928415,-5.332093604402158,1.7239999999874271
312758.0687,-10.083916550578866,-4.794977511689406,-8.429704024719195,-4.996736977019747,1.724999999976717
312758.0697,-10.429735545756564,-4.9552305314865555,-8.540226717509462,-4.78217901972617,1.7259999999660067
312758.0707,-10.769527736047008,-5.217770500568934,-8.73313241189446,-4.71084549301614,1.7269999999552965
312758.0717,-11.099543128121942,-5.5785885038108844,-9.011432287539488,-4.789036659618055,1.7279999999445863
312758.0727,-11.403898353001356,-6.019578791789063,-9.36259138233532,-5.006676474647615,1.7289999999920838
312758.0737,-11.656058031846145,-6.510030649289102,-9.759805597779609,-5.338638803492727,1.7299999999813735
312758.0747,-11.82170347891357,-7.009426389935391,-10.164781846884823,-5.747494278279117,1.7309999999706633
312758.0757,-11.862688955173276,-7.471264389060907,-10.531728634922377,-6.187386723416662,1.7319999999599531
312758.0767,-11.741671105752337,-7.847526415200203,-10.81214694561958,-6.6086432624821505,1.732999999949243
312758.0777,-11.426924360642294,-8.093347019517816,-10.959935210273015,-6.962657219347259,1.7339999999967404
312758.0787,-10.896831184889399,-8.171425240314315,-10.936294592730064,-7.206563737156373,1.7349999999860302
312758.0797,-10.143563517133849,-8.055746846074564,-10.713944229467295,-7.307256111304625,1.73599999997532
312758.0807,-9.175547841185184,-7.734255734625509,-10.280227770180153,-7.24436295528365,1.7369999999646097
312758.0817,-8.018423595055175,-7.210218694156394,-9.638805148757664,-7.011914953817637,1.7379999999538995
312758.0827,-6.71435147474398,-6.502157821864667,-8.809765540488284,-6.618564009173233,1.739000000001397
312758.0837,-5.3196901583615075,-5.6423664147301436,-7.828154632068851,-6.086363514982369,1.7399999999906868
312758.0847,-3.9012210956349183,-4.674162953156148,-6.74106592816171,-5.44826167374358,1.7409999999799766
312758.0857,-2.5312454025946147,-3.6481600984072338,-5.603586278928501,-4.744585962047018,1.7419999999692664
312758.0867,-1.2819903474266359,-2.6179193499565354,-4.473996285920283,-4.018893589057679,1.7429999999585561
312758.0877,-0.21983423810782124,-1.6354180146459028,-3.408695967907716,-3.3136206656519094,1.743999999947846
312758.0887,0.6001193006699135,-0.7467681092586113,-2.4573484343310517,-2.6659763367753966,1.7449999999953434
312758.0897,1.1386158382625065,0.011404221066015003,-1.6587075017315338,-2.10449634476256,1.7459999999846332
312758.0907,1.3755492723219638,0.6145817845838527,-1.037522316744824,-1.6465969634049162,1.746999999973923
312758.0917,1.3116799771296068,1.051749592684677,-0.6028008265770606,-1.297362727696026,1.7479999999632128
312758.0927,0.9686142150695042,1.3254528609669576,-0.3475758522169303,-1.049671019674431,1.7489999999525025
312758.0937,0.3870497855719775,1.4505505507293108,-0.2501666533057097,-0.8856167408795265,1.75
312758.0947,-0.3765453765407848,1.451826894025683,-0.2767804677896447,-0.7790652830587452,1.7509999999892898
312758.0957,-1.2545099012457785,1.3607371353606785,-0.3851674254944749,-0.6990455306097062,1.7519999999785796
312758.0967,-2.1733949093740517,1.2116482047478858,-0.5289414681101945,-0.6136084951032226,1.7529999999678694
312758.0977,-3.0597004534526837,1.0379817799373754,-0.6621193041903636,-0.49373009227369785,1.7539999999571592
312758.0987,-3.845419643729362,0.8686716215577056,-0.7434147253820784,-0.3168332514866955,1.754999999946449
312758.0997,-4.472894087571639,0.7253088943964798,-0.7398579037142154,-0.0695452861534711,1.7559999999939464
312758.1007,-4.898558395662998,0.6202724556115825,-0.62938495927416,0.25061291745979014,1.7569999999832362
312758.1017,-5.095265730659425,0.5560337274368838,-0.4021541957802581,0.6347970172390249,1.757999999972526
312758.1027,-5.053029220955698,0.5256988005719582,-0.06048051416745359,1.063727162669614,1.7589999999618158
312758.1037,-4.778171299027918,0.5147168386706078,0.3825751428725328,1.5098128880755903,1.7599999999511056
312758.1047,-4.2910290588460445,0.5035573549048273,0.9057836261216731,1.9403020362128387,1.760999999998603
312758.1057,-3.6225031465328423,0.4710524982060513,1.4831929125965837,2.3211296327155537,1.7619999999878928
312758.1067,-2.8098467814320642,0.39802512113010285,2.088050135706753,2.6210637762852005,1.7629999999771826
312758.1077,-1.8921595686409176,0.27078701762986157,2.696758782881277,2.8157073129565213,1.7639999999664724
312758.1087,-0.9060712145637817,0.08409834942439451,3.292424277523897,2.89092055398298,1.7649999999557622
312758.1097,0.11792876213866611,-0.1567713395151437,3.8675820376180554,2.8452813469009723,1.765999999945052
312758.1107,1.158134652047514,-0.4351525412112126,4.425785154390689,2.6912897337929285,1.7669999999925494
312758.1117,2.2029749602198714,-0.7234102881488049,4.981845884650461,2.45514653103341,1.7679999999818392
312758.1127,3.2509442983276693,-0.9847227042389078,5.560664596378538,2.1750765664978644,1.768999999971129
312758.1137,4.3091455332223845,-1.1760819446143296,6.194727754588473,1.898314118928048,1.7699999999604188
312758.1147,5.390622203473221,-1.2522643569211958,6.92049816428773,1.6770057664208562,1.7709999999497086
312758.1157,6.510794222414128,-1.170407583286606,7.774041718943089,1.5634005876549062,1.771999999997206
312758.1167,7.683411013650954,-0.8947568356901979,8.786323010520848,1.6047778300693627,1.7729999999864958
312758.1177,8.91649496411267,-0.40110877318776605,9.97864819933063,1.838599422557776,1.7739999999757856
312758.1187,10.2087581211243,0.31950664817020713,11.358732479918329,2.288364865414857,1.7749999999650754
312758.1197,11.546934943219187,1.2583086495715514,12.917820894190589,2.960589454553722,1.7759999999543652
312758.1207,12.904387198259561,2.3877167835568787,14.629199398000855,3.843228436807006,1.7770000000018626
312758.1217,14.24121203726539,3.661945353171406,16.44830652914343,4.9057386080936825,1.7779999999911524
312758.1227,15.505933006186773,5.01926604329224,18.31450676179864,6.100817370333854,1.7789999999804422
312758.1237,16.638691153482913,6.3858082226753226,20.154428972709027,7.367701745406575,1.779999999969732
312758.1247,17.575695570370588,7.6806197750967575,21.8866226039468,8.636761384326757,1.7809999999590218
312758.1257,18.254555457289527,8.821587657039519,23.42715472934441,9.83499451898182,1.7819999999483116
312758.1267,18.62001305150387,9.731728667680011,24.695675959982967,10.891946238591652,1.782999999995809
312758.1277,18.629539116239236,10.345315958837315,25.621431368883226,11.745523250369331,1.7839999999850988
312758.1287,18.25824648880597,10.613310342665969,26.148689632853507,12.347183016011568,1.7849999999743886
312758.1297,17.502623745812905,10.507617658710746,26.24110996392811,12.666027789059727,1.7859999999636784
312758.1307,16.382686565523898,10.023789929098973,25.884657975944236,12.69143088081757,1.7869999999529682
312758.1317,14.942280255946134,9.18192014698919,25.088809892557013,12.433954482498068,1.7880000000004657
312758.1327,13.24743059567685,8.025636286882344,23.885937396716365,11.924473205388164,1.7889999999897555
312758.1337,11.382816245322237,6.619265191624634,22.328928503329298,11.21158059250412,1.7899999999790452
312758.1347,9.446607868167737,5.043396142597494,20.48725765892326,10.357511809514007,1.790999999968335
312758.1357,7.544070391264613,3.3892124319902615,18.44185587384961,9.43294980447362,1.7919999999576248
312758.1367,5.780441072405838,1.7520643202014003,16.27923604741587,8.51118177858839,1.7929999999469146
312758.1377,4.25366604009355,0.22481870932047449,14.08538992668281,7.662128477448067,1.793999999994412
312758.1387,3.047594953864777,-1.108465903917785,11.939985674254372,6.94677544296041,1.7949999999837019
312758.1397,2.226195655173038,-2.1780271071014563,9.9113578494869,6.412492514069563,1.7959999999729916
312758.1407,1.8292616376172228,-2.932619265233698,8.05269857935252,6.089639830916574,1.7969999999622814
312758.1417,1.8699532501789422,-3.3421580213551034,6.399738092159333,5.989734014586408,1.7979999999515712
312758.1427,2.3343512370919797,-3.39862612842636,4.970056517344933,6.105299187036306,1.7989999999990687
312758.1437,3.1830238725244535,-3.115237122646758,3.7640112851805423,6.411368500378479,1.7999999999883585
312758.1447,4.354433319012102,-2.5240094463590497,2.7671110096618796,6.868448207439809,1.8009999999776483
312758.1457,5.769849444998873,-1.6720420763448585,1.9535323607744952,7.4266227882223,1.801999999966938
312758.1467,7.3393148650649715,-0.6168905578308639,1.2903741493732463,8.030378990453203,1.8029999999562278
312758.1477,8.968124847987202,0.5784903083500141,0.7421824643177793,8.623668327085062,1.8039999999455176
312758.1487,10.563257047701274,1.8507499130807161,0.27526784156655937,9.1547168974823,1.804999999993015
312758.1497,12.039210795139232,3.1406309421271836,-0.13862900107414441,9.580128965921078,1.8059999999823049
312758.1507,13.32279078009307,4.396554725515301,-0.5196862906630537,9.867912399104945,1.8069999999715947
312758.1517,14.356487312144205,5.577021132946926,-0.8786124449613466,9.999171362285693,1.8079999999608845
312758.1527,15.100252879339171,6.6516744140245345,-1.2166263435624904,9.968352644523723,1.8089999999501742
312758.1537,15.531637480247149,7.601031190262906,-1.5267633472920659,9.782082375622887,1.8099999999976717
312758.1547,15.644406898577861,8.41500858151228,-1.796319094917221,9.456774581822115,1.8109999999869615
312758.1557,15.445912705244833,9.090514861203589,-2.010118663710288,9.015317505541839,1.8119999999762513
312758.1567,14.953596163204494,9.628459591189594,-2.1542072182807503,8.48323545978704,1.812999999965541
312758.1577,14.191079492204837,10.030595478631605,-2.2195092135356793,7.884774080220369,1.8139999999548309
312758.1587,13.184320568228026,10.296614828610997,-2.205001736453523,7.239360266262443,1.8150000000023283
312758.1597,11.958279483907218,10.421888581824003,-2.1199940702896227,6.558844644916226,1.815999999991618
312758.1607,10.534470960577778,10.396159284263192,-1.9851956266812003,5.845848526808319,1.8169999999809079
312758.1617,8.929663560077149,10.203388916781398,-1.8323792064295266,5.093417778881637,1.8179999999701977
312758.1627,7.155847030399967,9.822829715255981,-1.702593777825309,4.2860449093726505,1.8189999999594875
312758.1637,5.221437599981099,9.231244608012906,-1.6430359395718892,3.401972211141181,1.8199999999487773
312758.1647,3.133543427940144,8.406068264957208,-1.70283641781531,2.4165480523250635,1.8209999999962747
312758.1657,0.9009841034478393,7.329184027263289,-1.9281424325246312,1.306289616683848,1.8219999999855645
312758.1667,-1.4623375253874902,5.990908263953243,-2.3569657696536432,0.05322071323044638,1.8229999999748543
312758.1677,-3.9341657260502525,4.393730939246029,-3.0143105030516626,-1.350988511524134,1.823999999964144
312758.1687,-6.481183224596562,2.5553642983801583,-3.908088432956211,-2.9015474301855764,1.8249999999534339
312758.1697,-9.057277045361316,0.5107009889241976,-5.026274194573834,-4.578150732335425,1.8260000000009313
312758.1707,-11.60310177168901,-1.687625552581502,-6.335650281223578,-6.343982773592417,1.8269999999902211
312758.1717,-14.047135876062132,-3.9702603743430847,-7.7823540326754115,-8.14630961112544,1.827999999979511
312758.1727,-16.30827526297158,-6.253760657101664,-9.294276687090402,-9.918696975415832,1.8289999999688007
312758.1737,-18.299847410502398,-8.444723300198646,-10.785194020633194,-11.584734600201367,1.8299999999580905
312758.1747,-19.934775534449326,-10.445137872315799,-12.160345007758888,-13.062997804302464,1.8309999999473803
312758.1757,-21.131490578818703,-12.1585696574522,-13.32303486387838,-14.272850537370946,1.8319999999948777
312758.1767,-21.82009307714798,-13.496684791599975,-14.181735259819622,-15.140602714216419,1.8329999999841675
312758.1777,-21.948217182513897,-14.385580104233663,-14.657097549590597,-15.605487712491954,1.8339999999734573
312758.1787,-21.486051199801285,-14.771379598624302,-14.688290320262078,-15.624928343985388,1.834999999962747
312758.1797,-20.430023561169655,-14.624608291302316,-14.238121341505263,-15.178611692023729,1.8359999999520369
312758.1807,-18.804766056503205,-13.942948465302107,-13.296501939971995,-14.270990468478761,1.8369999999995343
312758.1817,-16.66310823476576,-12.752115017701007,-11.881950192725549,-12.931962195770899,1.8379999999888241
312758.1827,-14.084025312287318,-11.104743666301562,-10.040995548423906,-11.21563527933986,1.838999999978114
312758.1837,-11.168641071478355,-9.077354019396836,-7.845526333722731,-9.19725828829365,1.8399999999674037
312758.1847,-8.034560329571283,-6.765613478733118,-5.388296675661877,-6.968549945390059,1.8409999999566935
312758.1857,-4.8089562375606185,-4.278272546647591,-2.7769646134914594,-4.631807418241668,1.8419999999459833
312758.1867,-1.620951558798063,-1.7302540191947589,-0.1271544053990424,-2.2932764483937804,1.8429999999934807
312758.1877,1.406100821713424,0.7645525212641969,2.4448877066405275,-0.056328817968590496,1.8439999999827705
312758.1887,4.161821136457043,3.100219820844391,4.829450440873248,1.9849950437522488,1.8449999999720603
312758.1897,6.5549167056422215,5.184895813594967,6.929762251853579,3.751558849825631,1.8459999999613501
312758.1907,8.517729574587374,6.945639390236184,8.66715834810956,5.183384350190694,1.84699999995064
312758.1917,10.008879911269903,8.331637480662298,9.984646070517906,6.242275825356313,1.8479999999981374
312758.1927,11.013836765226788,9.31560998161005,10.848657039252101,6.912655228555785,1.8489999999874271
312758.1937,11.543431902768248,9.893372096241333,11.248942710376513,7.200611032653643,1.849999999976717
312758.1947,11.630514007907856,10.081686305721297,11.196738145857523,7.131323881627637,1.8509999999660067
312758.1957,11.325102659924195,9.914683325647092,10.72147103406148,6.745174195856385,1.8519999999552965
312758.1967,10.688529095763872,9.4392494700209,9.866415114118691,6.0929477287932015,1.8529999999445863
312758.1977,9.787132045716275,8.709856191196648,8.683767989383593,5.230624595022908,1.8539999999920838
312758.1987,8.686104502707643,7.7833394080570555,7.229665769108148,4.214259399506931,1.8549999999813735
312758.1997,7.444058861745374,6.7141193056435045,5.559628692573345,3.095433309168898,1.8559999999706633
312758.2007,6.108796476178345,5.550288009507156,3.7248654395284087,1.9176864517857475,1.8569999999599531
312758.2017,4.71464137177439,4.330889754295444,1.7697564473031084,0.7142285106012624,1.857999999949243
312758.2027,3.2815389305022453,3.084586456962789,-0.26930059426243164,-0.49291197311647444,1.8589999999967404
312758.2037,1.8159441519736208,1.8297542290062736,-2.363652815539318,-1.6922895486479563,1.8599999999860302
312758.2047,0.3133475477496385,0.5759079525539212,-4.490884784671649,-2.8811337205689767,1.86099999997532
312758.2057,-1.2378733033170193,-0.6737838216075247,-6.632302804642062,-4.062401753443348,1.8619999999646097
312758.2067,-2.8517168092510774,-1.9192396185076537,-8.769781290564264,-5.241166587140608,1.8629999999538995
312758.2077,-4.539459793342486,-3.159878609003617,-10.882411111844034,-6.420778066257207,1.864000000001397
312758.2087,-6.304756948083982,-4.391151777089898,-12.943412587810057,-7.599254615975947,1.8649999999906868
312758.2097,-8.139473443849576,-5.601617145027563,-14.91774971813663,-8.76633480781731,1.8659999999799766
312758.2107,-10.020713331875907,-6.7709235840066215,-16.760809860248383,-9.901547037749376,1.8669999999692664
312758.2117,-11.909388339721648,-7.868968756937679,-18.4184016981985,-10.973548143817816,1.8679999999585561
312758.2127,-13.750520706622227,-8.856370905234735,-19.828185136994612,-11.940849106475705,1.868999999947846
312758.2137,-15.475304563295206,-9.686254293631528,-20.92249364654184,-12.753901328607874,1.8699999999953434
312758.2147,-17.004779376908424,-10.30720827664375,-21.63235792321714,-13.35837482913929,1.8709999999846332
312758.2157,-18.254812553874583,-10.667154177709513,-21.89240478147185,-13.699334141755482,1.871999999973923
312758.2167,-19.141961283245042,-10.717755041934062,-21.64620057098037,-13.725921228496894,1.8729999999632128
312758.2177,-19.589698021041464,-10.418940699339526,-20.851544824405515,-13.396096821661326,1.8739999999525025
312758.2187,-19.53444749618296,-9.74310065694136,-19.485203964369163,-12.680977981472001,1.875
312758.2197,-18.930898805954907,-8.678522062748504,-17.54660876728189,-11.56834160357523,1.8759999999892898
312758.2207,-17.756122069088544,-7.231716855688249,-15.060120072312326,-10.064937940244826,1.8769999999785796
312758.2217,-16.01212842725439,-5.428384565409472,-12.075587530234893,-8.197367564574298,1.8779999999678694
312758.2227,-13.726654048697524,-3.3128848942048945,-8.667074740120906,-6.011408842541129,1.8789999999571592
312758.2237,-10.95210930941732,-0.946234564271687,-4.929786880879651,-3.5698277730021464,1.879999999946449
312758.2247,-7.762798000343205,1.5972179041111245,-0.9753984543038926,-0.9488438520779643,1.8809999999939464
312758.2257,-4.250662617552616,4.234161496550452,3.0738763606705977,1.7664493959540655,1.8819999999832362
312758.2267,-0.519936325897255,6.877360822921083,7.092013802242612,4.487314516094429,1.882999999972526
312758.2277,3.318831398755117,9.440927009271855,10.956181052879442,7.126798233471251,1.8839999999618158
312758.2287,7.154867742001424,11.845366883696062,14.553452449307557,9.604890661745445,1.8849999999511056
312758.2297,10.882888493932743,14.021981493927088,17.786712588319773,11.852979160577082,1.885999999998603
312758.2307,14.40798440436612,15.916251736030544,20.57929171002477,13.817232394613075,1.8869999999878928
312758.2317,17.649333192415664,17.489950037666116,22.877994015834314,15.46065638472677,1.8879999999771826
312758.2327,20.542514758922945,18.72184243962986,24.65432494268133,16.763694190369,1.8889999999664724
312758.2337,23.040350898781497,19.60698250489216,25.90388499833985,17.723381417610955,1.8899999999557622
312758.2347,25.112337399999294,20.154733593457262,26.64406019244679,18.351207112734873,1.890999999945052
312758.2357,26.742871169874665,20.38577576488338,26.910286992140797,18.66995025852761,1.8919999999925494
312758.2367,27.928584650026597,20.328446088712013,26.751289194187702,18.709854240601455,1.8929999999818392
312758.2377,28.6751736694012,20.014817404199796,26.223764073953753,18.504556380115456,1.893999999971129
312758.2387,28.994136166738635,19.47693518967031,25.387028480923277,18.087201787623215,1.8949999999604188
312758.2397,28.899825410047804,18.743603992311936,24.29811961283826,17.48713949887102,1.8959999999497086
312758.2407,28.407164576043108,17.838046953848014,23.00778223017074,16.727527571167656,1.896999999997206
312758.2417,27.530276315656877,16.77666145531243,21.557670837278433,15.824070001951084,1.8979999999864958
312758.2427,26.282161395087556,15.568971170198749,19.97896248314717,14.784982669487883,1.8989999999757856
312758.2437,24.67542747839832,14.2187424546543,18.29242674074801,13.612150842231225,1.8999999999650754
312758.2447,22.723936758373195,12.726104566175062,16.509848983898095,12.303310887432618,1.9009999999543652
312758.2457,20.445123504217914,11.090401835314621,14.636566157688838,10.854976865263948,1.9020000000018626
312758.2467,17.86264222184168,9.313423046210476,12.674764230417786,9.265750140776905,1.9029999999911524
312758.2477,15.008953779313957,7.402607476605499,10.627114050256566,7.5396054470014695,1.9039999999804422
312758.2487,11.927446531552473,5.373823150204001,8.500294244793743,5.688744652592964,1.904999999969732
312758.2497,8.673723793828401,3.2533514957118643,6.307968492055604,3.735650220901797,1.9059999999590218
312758.2507,5.315765006347685,1.0787901355546154,4.07284770253364,1.714050071201472,1.9069999999483116
312758.2517,1.9327783513331567,-1.1013056412018378,1.8275687215206033,-0.33138359261278444,1.907999999995809
312758.2527,-1.387303413859291,-3.2290928060712494,-0.3857503039462101,-2.346647960396301,1.9089999999850988
312758.2537,-4.551587933836193,-5.240335013303206,-2.517274836704238,-4.271244313884086,1.9099999999743886
312758.2547,-7.467013237057578,-7.068303747747038,-4.51239327457424,-6.04201118056052,1.9109999999636784
312758.2557,-10.045805814118456,-8.648356933801095,-6.315556560829759,-7.597622480313207,1.9119999999529682
312758.2567,-12.211160188309739,-9.922785028941108,-7.874643204162219,-8.883337856130288,1.9130000000004657
312758.2577,-13.90264481369814,-10.845473142837799,-9.145411814986979,-9.855552907877332,1.9139999999897555
312758.2587,-15.080837491441875,-11.385930095965655,-10.095584426306306,-10.485701875318606,1.9149999999790452
312758.2597,-15.730739989325812,-11.53228188955456,-10.708131249457287,-10.763114516494168,1.915999999968335
312758.2607,-15.863612682445375,-11.292913781062571,-10.983398551233117,-10.696518191879681,1.9169999999576248
312758.2617,-15.516997883664493,-10.696564049314631,-10.93982910830631,-10.31399720558377,1.9179999999469146
312758.2627,-14.75285349993455,-9.790812384729369,-10.613158610068542,-9.661362800795573,1.918999999994412
312758.2637,-13.653882561706244,-8.639053320405676,-10.054118239475057,-8.799035314429833,1.9199999999837019
312758.2647,-12.318303648756734,-7.316186065761861,-9.324818957305542,-7.7976805683237504,1.9209999999729916
312758.2657,-10.853447182433476,-5.9033728997924255,-8.494122378841837,-6.732961955970194,1.9219999999622814
312758.2667,-9.36866962799237,-4.482307184671425,-7.632403754169342,-5.679856196430641,1.9229999999515712
312758.2677,-7.968141556767885,-3.1294803530254702,-6.80617446173256,-4.707025814748687,1.9239999999990687
312758.2687,-6.744080013569694,-1.9109400606386364,-6.073048426866272,-3.871740479469692,1.9249999999883585
312758.2697,-5.77095913911764,-0.8779885931581359,-5.477507223782303,-3.215792213784622,1.9259999999776483
312758.2707,-5.101148750614753,-0.06418549658811525,-5.047845131944158,-2.7627604794942053,1.926999999966938
312758.2717,-4.762306340311751,0.5161007625590583,-4.794565211939686,-2.516860542172398,1.9279999999562278
312758.2727,-4.756695239879065,0.8674892565873293,-4.7103612464586915,-2.463463941832117,1.9289999999455176
312758.2737,-5.062434714461809,1.0117796125896459,-4.771671395157568,-2.571227032710779,1.929999999993015
312758.2747,-5.636522000647703,0.9847362760187254,-4.941642103920785,-2.795616947942927,1.9309999999823049
312758.2757,-6.419317118368398,0.8317860409146128,-5.174209465374013,-3.083497927127206,1.9319999999715947
312758.2767,-7.340062358447451,0.6030471942583138,-5.418902537579048,-3.3783467124743125,1.9329999999608845
312758.2777,-8.32293041957072,0.3481648614087925,-5.625908955330341,-3.6256125631292484,1.9339999999501742
312758.2787,-9.293065020425077,0.11143806514654278,-5.750923592243552,-3.777730281934956,1.9349999999976717
312758.2797,-10.182097625119631,-0.07231123302410597,-5.759327758482607,-3.7983339765808397,1.9359999999869615
312758.2807,-10.932691086097016,-0.18075465866103857,-5.62931662397223,-3.6653010842290765,1.9369999999762513
312758.2817,-11.501768410603214,-0.2056997636047647,-5.353699169478135,-3.3723723797799776,1.937999999965541
312758.2827,-11.862221578017861,-0.15323495560209377,-4.940227371943029,-2.9292328680727944,1.9389999999548309
312758.2837,-12.003047741284224,-0.042400839344048834,-4.410456413702877,-2.360087049740436,1.9400000000023283
312758.2847,-11.928013225152759,0.09744495104195859,-3.7972811539755025,-1.7009056114871977,1.940999999991618
312758.2857,-11.653084571115595,0.23027675931568214,-3.141421813256783,-0.9956452384369069,1.9419999999809079
312758.2867,-11.202977110593812,0.31767528921041777,-2.4872312982953817,-0.29183699911758293,1.9429999999701977
312758.2877,-10.60724466355455,0.32328207384406704,-1.878258173947087,0.36400729546551175,1.9439999999594875
312758.2887,-9.896362316452706,0.2169762483958515,-1.353017090673907,0.9307121817467827,1.9449999999487773
312758.2897,-9.098235687790506,-0.021651321747020023,-0.9413909840275524,1.3760566682679058,1.9459999999962747
312758.2907,-8.235507184977523,-0.40087676460554555,-0.66201955645142,1.6793485908482528,1.9469999999855645
312758.2917,-7.323929448593,-0.9157158625198616,-0.5209236090396525,1.8327215002841208,1.9479999999748543
312758.2927,-6.371949131130074,-1.5481991113980602,-0.5114853655242892,1.8410537661654789,1.948999999964144
312758.2937,-5.381503663516721,-2.2690146803193025,-0.6157640935484325,1.7205518551419485,1.9499999999534339
312758.2947,-4.3498943277052575,-3.0403456505662985,-0.8069882699240791,1.4961766851894258,1.9510000000009313
312758.2957,-3.272475231468975,-3.819606414405473,-1.052944161802188,1.198209901081809,1.9519999999902211
312758.2967,-2.1458025345473546,-4.563691296704737,-1.3198882461039871,0.8583440926818269,1.952999999979511
312758.2977,-0.9708314865469696,-5.233295472227029,-1.5765567293361737,0.5057286771753029,1.9539999999688007
312758.2987,0.2442633960520247,-5.796859422119609,-1.797835112422552,0.16340659662790735,1.9549999999580905
312758.2997,1.4820357782131908,-6.233724496795475,-1.9676854518192035,-0.15446425450486603,1.9559999999473803
312758.3007,2.7147964037093923,-6.536165170489909,-2.081005374903511,-0.4442928158314174,1.9569999999948777
312758.3017,3.904924813701274,-6.710075701031779,-2.144203494256451,-0.7134421840559577,1.9579999999841675
312758.3027,5.0065285094139735,-6.774224165852535,-2.1744096400526662,-0.9792603212765635,1.9589999999734573
312758.3037,5.9683669458566735,-6.758131918085467,-2.197381900136976,-1.2668351360934744,1.959999999962747
312758.3047,6.737815068712151,-6.698777044380966,-2.244311347195684,-1.6056913068182745,1.9609999999520369
312758.3057,7.265517780586285,-6.636442425450564,-2.347845414629461,-2.025762050616767,1.9619999999995343
312758.3067,7.510295788052187,-6.610120259235192,-2.5377397894902267,-2.5530524849982874,1.9629999999888241
312758.3077,7.443814707549784,-6.65293611427471,-2.836597060835722,-3.2054535610699504,1.963999999978114
312758.3087,7.05452895986445,-6.788061325234938,-3.256152799551356,-3.989162062013054,1.9649999999674037
312758.3097,6.35046098036939,-7.025541842254886,-3.794525394948766,-4.896112646254729,1.9659999999566935
312758.3107,5.360470822456149,-7.3603880715113155,-4.434758644940231,-5.902736716676566,1.9669999999459833
312758.3117,4.133802943926518,-7.77215159559957,-5.1448639323216785,-6.970238517102759,1.9679999999934807
312758.3127,2.7378536284605577,-8.226072228758724,-5.87942352397789,-8.046433150083526,1.9689999999827705
312758.3137,1.2542692360959413,-8.675726340582226,-6.582662239399751,-9.069038243308484,1.9699999999720603
312758.3147,-0.22635379351035614,-9.066959553437448,-7.1927466378328155,-9.970165682462026,1.9709999999613501
312758.3157,-1.6107572845402132,-9.342758212767391,-7.646943712101385,-10.681636486259015,1.97199999995064
312758.3167,-2.8097847313262503,-9.448617116453693,-7.887177683853713,-11.140652824350225,1.9729999999981374
312758.3177,-3.745049256424902,-9.337905539365822,-7.865473505045749,-11.295315443843268,1.9739999999874271
312758.3187,-4.35493075750872,-8.976725315778395,-7.548774543098238,-11.109477314435791,1.974999999976717
312758.3197,-4.59937563029062,-8.347794828006766,-6.922670372073082,-10.566475421373214,1.9759999999660067
312758.3207,-4.463070874917187,-7.452977708245381,-5.993664462006053,-9.671377922256807,1.9769999999552965
312758.3217,-3.956703729442211,-6.314197052303974,-4.7897422196723625,-8.451514625187666,1.9779999999445863
312758.3227,-3.116185458889571,-4.972623513662282,-3.3591549825923956,-6.955212741792489,1.9789999999920838
312758.3237,-1.9998979876247127,-3.486184816364963,-1.7675004116464483,-5.248822594305791,1.9799999999813735
312758.3247,-0.6841978023284382,-1.9255998379572674,-0.09333841896649608,-3.4122739557818207,1.9809999999706633
312758.3257,0.7424336148175619,-0.36927759416791983,1.5772810506671981,-1.5335380841601367,1.9819999999599531
312758.3267,2.1860843134650656,1.1024729440731302,3.156899758205853,0.29752960890596264,1.982999999949243
312758.3277,3.554370521312987,2.4134123971218173,4.562806419841765,1.99543555026824,1.9839999999967404
312758.3287,4.763060036187738,3.4969940795684913,5.722722750314798,3.4848457095166094,1.9849999999860302
312758.3297,5.741798012164422,4.301148261699202,6.579522407758101,4.705441988262323,1.98599999997532
312758.3307,6.4384617974523035,4.791814792058358,7.094577177246162,5.615434174876993,1.9869999999646097
312758.3317,6.821803933541498,4.954929400864108,7.249455627543171,6.1934516208607135,1.9879999999538995
312758.3327,6.882205610806084,4.796714252494896,7.045856530230644,6.438691216399366,1.989000000001397
312758.3337,6.630541150988303,4.342281706562115,6.503827459648941,6.369361164446285,1.9899999999906868
312758.3347,6.095330383652814,3.6327165514723383,5.658481995010675,6.019617828555135,1.9909999999799766
312758.3357,5.318513260602128,2.720941202999025,4.5555710685666995,5.4353304321487785,1.9919999999692664
312758.3367,4.350304722541929,1.6667772217341348,3.2463714629301315,4.66911247608258,1.9929999999585561
312758.3377,3.2436660092847176,0.5316846913385026,1.7824167814502798,3.775119539603906,1.993999999947846
312758.3387,2.0489540259641617,-0.6263178121422662,0.21060725072419084,2.804124977617791,1.9949999999953434
312758.3397,0.8092808988349328,-1.7570774834947542,-1.4308067493956163,1.79934702807391,1.9959999999846332
312758.3407,-0.44296535267531206,-2.8216739055281828,-3.114962642097496,0.7934169456025122,1.996999999973923
312758.3417,-1.6881128633255296,-3.7944377487505174,-4.827570497514014,-0.19324361410927737,1.9979999999632128
312758.3427,-2.919540467331116,-4.663470061522565,-6.566427957437587,-1.1525145796020684,1.9989999999525025
312758.3437,-4.142356269048624,-5.429662864191511,-8.339318633865144,-2.0871752328078848,2.0
312758.3447,-5.370592439486312,-6.104372380668284,-10.160513512901435,-3.008197362334036,2.00099999998929
312758.3457,-6.6232412820833355,-6.706030464611066,-12.046240808381253,-3.931056884298202,2.0019999999785796
312758.3467,-7.919577622983305,-7.2560844408410405,-14.009601091761215,-4.871487632028473,2.0029999999678694
312758.3477,-9.274287967510636,-7.774720454174386,-16.055470313313204,-5.841158824092089,2.003999999957159
312758.3487,-10.692950184443449,-8.27684419811907,-18.175946780159457,-6.843766967258634,2.004999999946449
312758.3497,-12.168376369294064,-8.768763834064442,-20.346857510477,-7.87199264804268,2.0059999999939464
312758.3507,-13.678248944587894,-9.245945976860622,-22.525748057908693,-8.905686692513992,2.006999999983236
312758.3517,-15.184353956060823,-9.692104212564484,-24.65164618477589,-9.911526907159399,2.007999999972526
312758.3527,-16.633558154890697,-10.079741827256441,-26.646726043729785,-10.844238120263054,2.0089999999618158
312758.3537,-17.960503127159797,-10.372119969648283,-28.41982112004403,-11.649309104507621,2.0099999999511056
312758.3547,-19.091817339415254,-10.526474310573084,-29.87155788046793,-12.2669858489452,2.010999999998603
312758.3557,-19.95149235426796,-10.498172148228043,-30.90072453451121,-12.6371867902614,2.011999999987893
312758.3567,-20.466947777973175,-10.245400916358054,-31.41136549013883,-12.704885299997022,2.0129999999771826
312758.3577,-20.57523270758833,-9.733918298771433,-31.320013784373785,-12.42544800292603,2.0139999999664724
312758.3587,-20.228787185578074,-8.941379793500849,-30.562448524853032,-11.769410185486874,2.014999999955762
312758.3597,-19.40021800014623,-7.860793193017627,-29.099394736065666,-10.72621264684698,2.015999999945052
312758.3607,-18.085626316799054,-6.502727919910938,-26.920666281475736,-9.306513941372774,2.0169999999925494
312758.3617,-16.30615226161613,-4.896022933321826,-24.047381085024593,-7.54281961787513,2.017999999981839
312758.3627,-14.107561580738476,-3.0868787822181756,-20.532039836062754,-5.488323622710176,2.018999999971129
312758.3637,-11.557876648316295,-1.1363735408803561,-16.456439786143104,-3.214021815952266,2.019999999960419
312758.3647,-8.743231536965663,0.8834061825858054,-11.927577545311358,-0.8043177675707676,2.0209999999497086
312758.3657,-5.762291762170727,2.8942939713388682,-7.071862307843096,1.64851869708191,2.021999999997206
312758.3667,-2.7197084652938903,4.817603369711483,-2.0280985442340294,4.050572774307561,2.022999999986496
312758.3677,0.28083789109427176,6.579827107039484,3.0602073202220517,6.312654944956301,2.0239999999757856
312758.3687,3.1434156242551974,8.117968012234206,8.052616512528365,8.35627553101762,2.0249999999650754
312758.3697,5.785873970888892,9.384026005369014,12.819012516692327,10.118715777114263,2.025999999954365
312758.3707,8.144634616229418,10.34824291949956,17.245809799478955,11.556771731311661,2.0270000000018626
312758.3717,10.177865896527297,11.000821996690743,21.24069166030325,12.648870185016795,2.0279999999911524
312758.3727,11.86681413119783,11.351980568720991,24.735592898380485,13.395405967369628,2.0289999999804422
312758.3737,13.2152362821357,11.430348965305502,27.687804740952124,13.817312533862324,2.029999999969732
312758.3747,14.247050133472596,11.279881163042441,30.07924679209394,13.953037461887039,2.030999999959022
312758.3757,15.002476071520036,10.95557841416668,31.914107899682506,13.854235968730428,2.0319999999483116
312758.3767,15.533073497930419,10.518433077098555,33.215190316703165,13.58060556165307,2.032999999995809
312758.3777,15.896163074186083,10.030066066992799,34.01938750270058,13.194353228846923,2.033999999985099
312758.3787,16.149165614331135,9.547551641570784,34.372777258914404,12.75480712768514,2.0349999999743886
312758.3797,16.344376572381627,9.118896039404227,34.3258149727021,12.313656162505048,2.0359999999636784
312758.3807,16.52463382309876,8.77956485147996,33.92906768094775,11.911226605352907,2.036999999952968
312758.3817,16.720232718571662,8.55034531868042,33.22984415477125,11.574092862081887,2.0380000000004657
312758.3827,16.94730719652953,8.436694974187803,32.269958936059076,11.314181104766401,2.0389999999897555
312758.3837,17.207742945537046,8.429580638879772,31.084731866786715,11.12937372376846,2.0399999999790452
312758.3847,17.490533768217713,8.507666322548078,29.703183476339063,11.005474413826551,2.040999999968335
312758.3857,17.774350797655522,8.640579380020446,28.14925520451822,10.919262796224558,2.041999999957625
312758.3867,18.030980051843432,8.79288391236719,26.443775198408368,10.842266538208992,2.0429999999469146
312758.3877,18.229207988578786,8.928328549620439,24.606816145055717,10.744817608613587,2.043999999994412
312758.3887,18.338704299367894,9.013918193504464,22.66005848950441,10.59994322360915,2.044999999983702
312758.3897,18.33346855091794,9.023387405396626,20.628783320114106,10.386672249662334,2.0459999999729916
312758.3907,18.194469978517805,8.939723727385273,18.54317247326991,10.092410769230806,2.0469999999622814
312758.3917,17.911210703100732,8.756494946849031,16.43868291722581,9.714148352289206,2.0479999999515712
312758.3927,17.482070976953775,8.477864316283624,14.35537836466615,9.258388032486689,2.0489999999990687
312758.3937,16.913437119024742,8.117318793816677,12.336230743756841,8.739834460672691,2.0499999999883585
312758.3947,16.217753585210303,7.69527317583064,10.424533595076,8.179011642634473,2.0509999999776483
312758.3957,15.410765303218026,7.235833591664749,8.66068462541372,7.599099997650715,2.051999999966938
312758.3967,14.508311821195473,6.763094981590927,7.078682953089759,7.022370029259858,2.052999999956228
312758.3977,13.523090805917224,6.297399573407083,5.702738182634278,6.4666376149084,2.0539999999455176
312758.3987,12.461818840613555,5.851991554246242,4.544397278456681,5.942168743898212,2.054999999993015
312758.3997,11.323180836412627,5.430466047868706,3.6005596104112603,5.449418932017444,2.055999999982305
312758.4007,10.096879036004351,5.025331616990941,2.85267347406448,4.977908571151699,2.0569999999715947
312758.4017,8.763976420479757,4.617892470194169,2.26729614330603,4.506418385152444,2.0579999999608845
312758.4027,7.29858894820855,4.179520472366925,1.79806502386308,4.004550604423021,2.0589999999501742
312758.4037,5.670830685039562,3.6742414190916644,1.3889832256787689,3.435555337089716,2.0599999999976717
312758.4047,3.8507709571372217,3.062419378459425,0.9787835485135313,2.7601826825558557,2.0609999999869615
312758.4057,1.8130382682871693,2.305201398601026,0.5060148981347108,1.9412036028928097,2.0619999999762513
312758.4067,-0.4583848742883374,1.3692949294426326,-0.08559278744176442,0.9481586479653561,2.062999999965541
312758.4077,-2.9656788185948693,0.23160131909915418,-0.8419752520929783,-0.23814768183174706,2.063999999954831
312758.4087,-5.6935149328406025,-1.1167738164111527,-1.7942813084827207,-1.621882984289472,2.0650000000023283
312758.4097,-8.606641025108857,-2.667567727849427,-2.955560466384829,-3.1895755852523178,2.065999999991618
312758.4107,-11.649069611286658,-4.39381101489353,-4.318936364933036,-4.908980794420891,2.066999999980908
312758.4117,-14.745076296849392,-6.249903037154047,-5.857481311571636,-6.7296182304679455,2.0679999999701977
312758.4127,-17.80205184338278,-8.173385395828218,-7.525852731033319,-8.585019832126996,2.0689999999594875
312758.4137,-20.715077755167897,-10.08832802754538,-9.263588191411992,-10.396566688237453,2.0699999999487773
312758.4147,-23.372928032879287,-11.910088834194292,-10.99979769087524,-12.078639166546694,2.0709999999962747
312758.4157,-25.665055353183423,-13.551073944864504,-12.65885549974238,-13.544673908202563,2.0719999999855645
312758.4167,-27.48901267810192,-14.92702470344209,-14.166592635936675,-14.713625963967397,2.0729999999748543
312758.4177,-28.757702174147855,-15.963299286001265,-15.45643536883974,-15.516284269338076,2.073999999964144
312758.4187,-29.405838882000257,-16.600607431189935,-16.474931091556098,-15.900889134898629,2.074999999953434
312758.4197,-29.395068242675023,-16.79969743641307,-17.1861516548819,-15.837552019434805,2.0760000000009313
312758.4207,-28.717280443155122,-16.544581867802425,-17.57456191006449,-15.321076231418031,2.076999999990221
312758.4217,-27.39581166488388,-15.844014410775099,-17.646079085313875,-14.371913549026026,2.077999999979511
312758.4227,-25.48439956487772,-14.731083278032793,-17.427214064998903,-13.035153565412559,2.0789999999688007
312758.4237,-23.06395156755931,-13.260952302993742,-16.962363193747773,-11.377614867095097,2.0799999999580905
312758.4247,-20.23737220897895,-11.506943743254116,-16.30949210218458,-9.483273887790512,2.0809999999473803
312758.4257,-17.122862482331684,-9.555301618595923,-15.53460473968587,-7.447412871802134,2.0819999999948777
312758.4267,-13.846234397557499,-7.4990875617171096,-14.705506677509266,-5.369979229508327,2.0829999999841675
312758.4277,-10.53286568188153,-5.431732163509771,-13.885440503459398,-3.3487143610108854,2.0839999999734573
312758.4287,-7.299945160312478,-3.440787207042734,-13.127185894815156,-1.4726247370375718,2.084999999962747
312758.4297,-4.249626600963251,-1.6023962444142192,-12.468175991785676,0.18366950012290628,2.085999999952037
312758.4307,-1.4636209315029722,0.02307424551486738,-11.927088595189847,1.5642591053462365,2.0869999999995343
312758.4317,1.0003778398398044,1.393915779179225,-11.502234087812164,2.6346201326525454,2.087999999988824
312758.4327,3.110206136650068,2.488286763927866,-11.171894638278603,3.38246866118186,2.088999999978114
312758.4337,4.858643349152585,3.3037228540404135,-10.896586976514882,3.8167932767011457,2.0899999999674037
312758.4347,6.260869909004281,3.8550789850782454,-10.623041081713584,3.9652269202311774,2.0909999999566935
312758.4357,7.350287423216877,4.171174195395639,-10.289526554023242,3.8700656641314626,2.0919999999459833
312758.4367,8.173154816871785,4.2905221155208295,-9.83203247253422,3.583356116298759,2.0929999999934807
312758.4377,8.7825868889229,4.256602357442925,-9.19072709917358,3.161545097178542,2.0939999999827705
312758.4387,9.232501156826865,4.11315461857829,-8.316098350946449,2.6602087611198946,2.0949999999720603
312758.4397,9.572082470978241,3.899956316818519,-7.174206849076632,2.1293519559233927,2.09599999996135
312758.4407,9.841265090038222,3.6494788507473674,-5.750567497819753,1.6096956823108595,2.09699999995064
312758.4417,10.067616262811935,3.384714336648035,-4.052304799950823,1.1302588496824704,2.0979999999981374
312758.4427,10.264855699551267,3.1183347164871678,-2.108389040383233,0.707401620493797,2.098999999987427
312758.4437,10.433076595110721,2.8532017735174873,0.032060460809444434,0.3453455114499946,2.099999999976717
312758.4447,10.56056270038045,2.5841043295284853,2.303239714230124,0.03803523038741549,2.1009999999660067
312758.4457,10.626938973250411,2.3004719690850584,4.627564610093948,-0.22792622554603123,2.1019999999552965
312758.4467,10.607265645965027,1.989715622048891,6.9215583790129935,-0.4696414012764363,2.1029999999445863
312758.4477,10.476599167975948,1.6407839274063731,9.102179248281264,-0.7040173779660852,2.1039999999920838
312758.4487,10.214506299181997,1.2475063598004976,11.09301226696737,-0.9440546133877936,2.1049999999813735
312758.4497,9.80903261351786,0.8113210967674872,12.829770759159905,-1.1957518280582478,2.1059999999706633
312758.4507,9.259691651952487,0.3430544977920539,14.264626503238503,-1.4559810568343514,2.106999999959953
312758.4517,8.579148865357263,-0.1364773774761824,15.369005875615265,-1.7115789712281682,2.107999999949243
312758.4527,7.793414074978758,-0.5971472559168693,16.134639970149735,-1.9397678317275049,2.1089999999967404
312758.4537,6.940513185433588,-1.0014387600140662,16.57282521313918,-2.1098755689375914,2.10999999998603
312758.4547,6.06776844228992,-1.3074405830376068,16.712020792897793,-2.186184186071277,2.11099999997532
312758.4557,5.227960734557154,-1.4726230690211515,16.59406393073007,-2.1316131814818196,2.1119999999646097
312758.4567,4.4747629436125465,-1.458018603490637,16.26940890852784,-1.9118524386605533,2.1129999999538995
312758.4577,3.857908727116543,-1.2323766441649715,15.791879175297016,-1.4995063905038546,2.114000000001397
312758.4587,3.4185890565715256,-0.7758573447474884,15.213456284758465,-0.8778036121527663,2.1149999999906868
312758.4597,3.1855467301879052,-0.08286551494737282,14.579612223638794,-0.04346418707991741,2.1159999999799766
312758.4607,3.172269395552106,0.8362944046112453,13.92562528827278,0.9916025267717555,2.1169999999692664
312758.4617,3.3755715221272147,1.9551492619471327,13.27421124072436,2.1999827130583105,2.117999999958556
312758.4627,3.7757164605610156,3.2322460956226915,12.634662234681235,3.53990139819643,2.118999999947846
312758.4637,4.3380753022278125,4.613727250444667,12.003530047973737,4.957754094074302,2.1199999999953434
312758.4647,5.01616527504816,6.037081405608769,11.366733081986393,6.391816281759903,2.120999999984633
312758.4657,5.7557723702701775,7.435740920732362,10.702823926244392,7.776799699386775,2.121999999973923
312758.4667,6.499754656812705,8.744107936555372,9.987040003679024,9.048835878160574,2.1229999999632128
