TimeStamp,ECR,FCR,ECU,FCU,time_index
312827.3437,-9.587700053168499,-5.987911989398768,-7.056625717596469,-7.984334010057321,71.0
312827.3447,-11.201981351287234,-8.404579562420905,-8.024175333790835,-9.76134199203183,71.00099999998929
312827.3457,-12.202779159944821,-10.289015935227548,-8.415700472718962,-10.990784128290832,71.00199999997858
312827.3467,-12.650432447856677,-11.672500251224061,-8.31386195116895,-11.720216019100322,71.00299999996787
312827.3477,-12.617488734036105,-12.599124051562336,-7.813542162487048,-12.009081021087031,71.00399999995716
312827.3487,-12.181660886358577,-13.119963402177257,-7.014213839216706,-11.922399091902848,71.00499999994645
312827.3497,-11.419304872965254,-13.28754178991579,-6.01275028953599,-11.524844116333957,71.00599999999395
312827.3507,-10.399983387549547,-13.151084963511803,-4.897255430867499,-10.875729298805078,71.00699999998324
312827.3517,-9.182557942024685,-12.752972158756448,-3.7423781592360794,-10.025314583355646,71.00799999997253
312827.3527,-7.813088866830361,-12.126654580820661,-2.6064207266333788,-9.012706795489642,71.00899999996182
312827.3537,-6.324634446889083,-11.296154693474337,-1.530369847156542,-7.865456234530272,71.0099999999511
312827.3547,-4.7388454049091715,-10.277094122259516,-0.5387897090981375,-6.600778998739184,71.0109999999986
312827.3557,-3.0690681110138978,-9.079039949878634,0.357663761533013,-5.228169337443633,71.01199999998789
312827.3567,-1.324517125334734,-7.708824241391472,1.1585008210413719,-3.753026819474341,71.01299999997718
312827.3577,0.4850300176119217,-6.174392907124062,1.8689324929846343,-2.180822638555557,71.01399999996647
312827.3587,2.344614831984064,-4.488687080974097,2.49524502606183,-0.5212776984673366,71.01499999995576
312827.3597,4.230146733010767,-2.673058169925738,3.0405783966887396,1.2079727746145248,71.01599999994505
312827.3607,6.105639446766883,-0.7597667356786084,3.5016164707921034,2.9786977324558324,71.01699999999255
312827.3617,7.922032787818142,1.2067894917038053,3.8665882725297998,4.750737964150678,71.01799999998184
312827.3627,9.617833015246061,3.1703413266935354,4.114831035503689,6.472247636558346,71.01899999997113
312827.3637,11.121614783231317,5.064574928856627,4.217991351153562,8.081569356091046,71.01999999996042
312827.3647,12.3562305843072,6.816423278985879,4.142758329636612,9.510629881606372,71.02099999994971
312827.3657,13.24438897286957,8.350570071371443,3.8548506046490747,10.68958075926119,71.0219999999972
312827.3667,13.715109047037224,9.594781272624564,3.3238345937764944,11.552271098087187,71.0229999999865
312827.3677,13.710451027069961,10.485583613123872,2.5282493030956,12.042042104632843,71.02399999997579
312827.3687,13.191872241839329,10.973759380691344,1.4604636149810535,12.117284645400687,71.02499999996508
312827.3697,12.14556987281946,11.029128163952413,0.13070070873912792,11.756207005591937,71.02599999995437
312827.3707,10.58624583530552,10.64413875093114,-1.4302693883007547,10.960319878546708,71.02700000000186
312827.3717,8.558858654964087,9.835893356707993,-3.170150231723664,9.75625392408474,71.02799999999115
312827.3727,6.13810023670435,8.646362376508367,-5.016075229208616,8.19567175176168,71.02899999998044
312827.3737,3.4255359314005913,7.140708020136118,-6.877539150031721,6.353207001326739,71.02999999996973
312827.3747,0.544555530637355,5.403804267002225,-8.651153312603638,4.322542058617714,71.03099999995902
312827.3757,-2.3665188649587994,3.5352025592996728,-10.22689290348406,2.210905856395272,71.03199999994831
312827.3767,-5.162653380109296,1.6429322293522233,-11.495353378859567,0.13241804834261017,71.03299999999581
312827.3777,-7.70101319943473,-0.16337125699897248,-12.355424699273605,-1.7991880738578694,71.0339999999851
312827.3787,-9.849859215770012,-1.779458212155729,-12.721737959127752,-3.4778741742095716,71.03499999997439
312827.3797,-11.496722856634463,-3.113016253900291,-12.53124435997706,-4.812043837471173,71.03599999996368
312827.3807,-12.555211844504234,-4.089263305107836,-11.748351330578421,-5.7301854835076735,71.03699999995297
312827.3817,-12.969917938091692,-4.655152867618055,-10.368159144440638,-6.184968632529258,71.03800000000047
312827.3827,-12.719062859216285,-4.781889128575611,-8.417502749972268,-6.155490228095697,71.03899999998976
312827.3837,-11.814715264553499,-4.4656017910012435,-5.9536927717936186,-5.647533215238585,71.03999999997905
312827.3847,-10.300621536195488,-3.7261938959091108,-3.0610491951704892,-4.691875571677975,71.04099999996834
312827.3857,-8.247896961761743,-2.604534897251839,0.15448741911261152,-3.3408579564539886,71.04199999995762
312827.3867,-5.749002862186577,-1.1583110317360452,3.572216954625451,-1.6635662385883656,71.04299999994691
312827.3877,-2.910573149967239,0.5430472360500992,7.064438577165884,0.25990222417674813,71.04399999999441
312827.3887,0.15426163914997176,2.423874837177943,10.504461349162957,2.3445527023842443,71.0449999999837
312827.3897,3.3333808186587097,4.407714044294495,13.774207897222693,4.506436095355246,71.04599999997299
312827.3907,6.5223765884721505,6.422213223070112,16.770799502769627,6.667905731603253,71.04699999996228
312827.3917,9.629915484112825,8.403080521225904,19.411613074213125,8.761757181133602,71.04799999995157
312827.3927,12.581363825657576,10.296800759496314,21.637447623655557,10.733943690869511,71.04899999999907
312827.3937,15.320460264199736,12.061959037141971,23.413616015179645,12.544709922079495,71.04999999998836
312827.3947,17.80901256172263,13.669161260597663,24.728969957242555,14.16814851721888,71.05099999997765
312827.3957,20.024787669654764,15.099685325232896,25.593054360118533,15.590341765314568,71.05199999996694
312827.3967,21.957935747083976,16.343122882490746,26.031753680189468,16.806388924830546,71.05299999995623
312827.3977,23.606423868535565,17.394368218887198,26.081922333767142,17.816725282922803,71.05399999994552
312827.3987,24.971041356513425,18.250368516264366,25.785571940564953,18.62320177153135,71.05499999999302
312827.3997,26.05056829789652,18.907063344183257,25.184213049451856,19.22540818027319,71.0559999999823
312827.4007,26.837669738152325,19.35690977751056,24.31391647907095,19.617687762019273,71.0569999999716
312827.4017,27.315993831335092,19.587316652578906,23.20157333173604,19.787210246999916,71.05799999996088
312827.4027,27.45882166970336,19.58020490867727,21.862702040235312,19.713352354224632,71.05899999995017
312827.4037,27.22945281499815,19.312781778866054,20.300988585178025,19.368491823064108,71.05999999999767
312827.4047,26.583329959482946,18.75947809372245,18.509568254967657,18.7201672171802,71.06099999998696
312827.4057,25.471726379989,17.894864343708413,16.473881308308965,17.734406710727683,71.06199999997625
312827.4067,23.846658370114827,16.697246098531338,14.175777578737055,16.37989966416647,71.06299999996554
312827.4077,21.66655714825722,15.15255471970327,11.598421384018323,14.632587958330006,71.06399999995483
312827.4087,18.90215290587299,13.258103791736538,8.731469613906476,12.480199452067914,71.06500000000233
312827.4097,15.54199516625725,11.025780184422874,5.5759696228791364,9.926239037557801,71.06599999999162
312827.4107,11.597060694881131,8.484281587966326,2.1484514824419936,6.9929943438314,71.06699999998091
312827.4117,7.103979644994354,5.680095731948049,-1.5162320716522124,3.723199157117488,71.0679999999702
312827.4127,2.1265341985842063,2.677032254191772,-5.363643224608979,0.18011968819331353,71.06899999995949
312827.4137,-3.2447607454698013,-0.4457449831776205,-9.320247554790232,-3.5540250105170963,71.06999999994878
312827.4147,-8.895013608589053,-3.597092874476533,-13.295659454538994,-7.381241177429016,71.07099999999627
312827.4157,-14.689096312244569,-6.67844126591099,-17.186484170040583,-11.192319129917095,71.07199999998556
312827.4167,-20.4772613999717,-9.58917475420875,-20.881446672666577,-14.872424302795356,71.07299999997485
312827.4177,-26.101805539942845,-12.232410962187242,-24.267379240485905,-18.30727438771313,71.07399999996414
312827.4187,-31.404267953423847,-14.520697276640853,-27.235563414620902,-21.38940089895697,71.07499999995343
312827.4197,-36.23262073421372,-16.381148419986985,-29.68789466958681,-24.023985482118583,71.07600000000093
312827.4207,-40.44792761803141,-17.75959310259273,-31.542361628920183,-26.13380141871148,71.07699999999022
312827.4217,-43.93001529732279,-18.623385115067236,-32.73740291841619,-27.662874971903054,71.07799999997951
312827.4227,-46.581808933594615,-18.96265425457524,-33.23481609804945,-28.578601068839543,71.0789999999688
312827.4237,-48.33211935074469,-18.78991386775493,-33.02103303204379,-28.872191457078138,71.07999999995809
312827.4247,-49.13681917332441,-18.1380908443105,-32.10673035636068,-28.5574867510671,71.08099999994738
312827.4257,-48.978493484984476,-17.0571861426018,-30.524896950321978,-27.668311661680004,71.08199999999488
312827.4267,-47.86478249275278,-15.609895554792933,-28.327617377121054,-26.254680750066452,71.08299999998417
312827.4277,-45.825736256342715,-13.86660962422156,-25.581937793428786,-24.378257879572327,71.08399999997346
312827.4287,-42.91056512557884,-11.900259797451909,-22.36524863320232,-22.107527034485095,71.08499999996275
312827.4297,-39.184188691320756,-9.78148045516529,-18.760640364955453,-19.51314037235002,71.08599999995204
312827.4307,-34.72396008317035,-7.574513343895406,-14.852663435248823,-16.66387096029931,71.08699999999953
312827.4317,-29.61687536178839,-5.334196556455935,-10.723854588535357,-13.623516956401943,71.08799999998882
312827.4327,-23.95747784582864,-3.1042630862711076,-6.452286970453892,-10.44898958639544,71.08899999997811
312827.4337,-17.846546154345376,-0.9170358462738938,-2.1102722558623253,-7.189681031781618,71.0899999999674
312827.4347,-11.390526363300932,1.2055392920174224,2.2357966141809507,-3.8880643352058635,71.0909999999567
312827.4357,-4.701547523424206,3.2497188960797603,6.524608769774284,-0.581340436777711,71.09199999994598
312827.4367,2.102240352302589,5.206959152219159,10.698368030889469,2.6961684565104687,71.09299999999348
312827.4377,8.896334258347583,7.070482222920683,14.70084342321351,5.910262866054674,71.09399999998277
312827.4387,15.549907279477399,8.831851917720387,18.475431365263557,9.024172379449336,71.09499999997206
312827.4397,21.92653591743371,10.477995863730381,21.96362323667863,11.996344545972565,71.09599999996135
312827.4407,27.885900762024338,11.989062870350029,25.104226453078585,14.779085953467122,71.09699999995064
312827.4417,33.28663499952873,13.337414827500663,27.833600491182786,17.318333537059576,71.09799999999814
312827.4427,37.99036568528861,14.487931019727787,30.087050248913677,19.55471063456033,71.09899999998743
312827.4437,41.8668470873406,15.399661178450337,31.801379852865583,21.42587912570225,71.09999999997672
312827.4447,44.79993867990306,16.02871600126604,32.91846494855824,22.87005059340198,71.100999999966
312827.4457,46.69404805424294,16.33214500931947,33.38956585199582,23.830380933672924,71.1019999999553
312827.4467,47.48055568091497,16.272435513905535,33.17999222489198,24.25985852459557,71.10299999994459
312827.4477,47.12367622491569,15.822185020050926,32.27365451441303,24.12621803064454,71.10399999999208
312827.4487,45.625198408619625,14.968461204948898,30.677007196258263,23.416378819062853,71.10499999998137
312827.4497,43.02758604038442,13.71637310813443,28.421908435977798,22.139923131272464,71.10599999997066
312827.4507,39.415015474788554,12.091434172110368,25.56698981260096,20.3311941240209,71.10699999995995
312827.4517,34.91206303212921,10.140397457320208,22.197242979147052,18.04970241369676,71.10799999994924
312827.4527,29.6799287617138,7.930376709806485,18.421677828687024,15.378672230123497,71.10899999999674
312827.4537,23.910275718711397,5.546221623589536,14.369075555692127,12.421721677048739,71.10999999998603
312827.4547,17.816959653238133,3.086277084416318,10.182034266176005,9.297840661038558,71.11099999997532
312827.4557,11.626104959403767,0.6568091027151849,6.009667960623963,6.134988795153976,71.11199999996461
312827.4567,5.565132114437113,-1.6344900677303205,1.9994559982596432,3.0627688076698214,71.1129999999539
312827.4577,-0.1485545869775581,-3.6854109799406545,-1.7111639620310444,0.2047257529487387,71.1140000000014
312827.4587,-5.318462739643548,-5.405994258469795,-5.002820962561779,-2.3291307813339506,71.11499999999069
312827.4597,-9.778748723785037,-6.724600662183077,-7.781225127394316,-4.448990215882432,71.11599999997998
312827.4607,-13.40212885241361,-7.592779240807286,-9.982608641501534,-6.090557815766221,71.11699999996927
312827.4617,-16.1054287220223,-7.98852538043795,-11.577147035854326,-7.218599084997856,71.11799999995856
312827.4627,-17.85241037377082,-7.917654130506084,-12.570071854007706,-7.828431166179138,71.11899999994785
312827.4637,-18.653722370039393,-7.413172730875187,-13.000370316808699,-7.945251252007177,71.11999999999534
312827.4647,-18.564035552639954,-6.532705216402139,-12.9371629949669,-7.621372470627988,71.12099999998463
312827.4657,-17.67663826485935,-5.35418591542856,-12.474039328613244,-6.931611636439805,71.12199999997392
312827.4667,-16.11595098707879,-3.9701826305296204,-11.721796214510485,-5.967224855021632,71.12299999996321
312827.4677,-14.028565742228528,-2.4813212598607803,-10.800152043046953,-4.82890253413715,71.1239999999525
312827.4687,-11.573508119589711,-0.9893516877740905,-9.82908623104569,-3.619404577646091,71.125
312827.4697,-8.912452064394712,0.4095858951498686,-8.92047573326412,-2.4364334840400823,71.12599999998929
312827.4707,-6.2005879344233765,1.6309657374099797,-8.170663666684808,-1.366306707044116,71.12699999997858
312827.4717,-3.578756637761925,2.606701034985928,-7.654504792657836,-0.47890392588752756,71.12799999996787
312827.4727,-1.1673260922654634,3.288452880204381,-7.421296852454332,0.1757616223562788,71.12899999995716
312827.4737,0.937885711345382,3.6492317446308364,-7.492838419985616,0.5691535542744581,71.12999999994645
312827.4747,2.667527566053131,3.6832566364359165,-7.863668675733511,0.6939788314435282,71.13099999999395
312827.4757,3.9785500172758805,3.4041928134792574,-8.50335935847155,0.5622507461950282,71.13199999998324
312827.4767,4.85221146331458,2.8420287393314383,-9.360560926406873,0.2019368323870152,71.13299999997253
312827.4777,5.290650645802143,2.038963924759671,-10.368368651792782,-0.3474036125874186,71.13399999996182
312827.4787,5.312518136210858,1.04475143381322,-11.450481759131518,-1.0395136830083138,71.1349999999511
312827.4797,4.9482041623081106,-0.08803392373266045,-12.527587268510898,-1.826360435786454,71.1359999999986
312827.4807,4.235189797176624,-1.3083499639158704,-13.523412424706025,-2.6626039793208114,71.13699999998789
312827.4817,3.2139861394392404,-2.5702751447976038,-14.369952831509947,-3.509204983299559,71.13799999997718
312827.4827,1.9250196993281337,-3.83554049227003,-15.011490189556056,-4.335870738736071,71.13899999996647
312827.4837,0.4066840245308752,-5.07484053517895,-15.407152326687712,-5.122175829458701,71.13999999995576
312827.4847,-1.3053771672420984,-6.26789572610708,-15.531924606193446,-5.85734188078745,71.14099999994505
312827.4857,-3.177844880140921,-7.402374557093579,-15.376179954015932,-6.53880642243617,71.14199999999255
312827.4867,-5.17838586193698,-8.471903836320557,-14.943938942763795,-7.1698388042603565,71.14299999998184
312827.4877,-7.2737358862583275,-9.473488280231972,-14.250187557956838,-7.75655845600329,71.14399999997113
312827.4887,-9.427607928682518,-10.404716548849311,-13.317657434823799,-8.304767947661285,71.14499999996042
312827.4897,-11.598846303475723,-11.261144810313956,-12.17350456974448,-8.817024840318414,71.14599999994971
312827.4907,-13.740216693421086,-12.034219919008615,-10.84630559981275,-9.290341490212475,71.1469999999972
312827.4917,-15.798144965408278,-12.710035804914382,-9.363728450106656,-9.714824816395167,71.1479999999865
312827.4927,-17.713603137479684,-13.269116212338137,-7.751133828618646,-10.07345692821299,71.14899999997579
312827.4937,-19.424201145972695,-13.68729525479791,-6.031236910511635,-10.343084256367941,71.14999999996508
312827.4947,-20.867393071835313,-13.937637267658534,-4.224818505883719,-10.496541510520425,71.15099999995437
312827.4957,-21.984562248099202,-13.993212855347743,-2.3523372431295497,-10.505702279676264,71.15200000000186
312827.4967,-22.725626700724742,-13.830441981148645,-0.43617375551986504,-10.345134583310088,71.15299999999115
312827.4977,-23.053718113942324,-13.432638662343969,1.496852321860256,-9.995959222134248,71.15399999998044
312827.4987,-22.949443969586785,-12.793353501222736,3.41310154016058,-9.449470067149347,71.15499999996973
312827.4997,-22.41424924880945,-11.919114233438668,5.270282581102453,-8.710082932650707,71.15599999995902
312827.5007,-21.47245163301972,-10.831210749289166,7.016537810048795,-7.7972331853700405,71.15699999994831
312827.5017,-20.17162790787077,-9.56625538830276,8.590728122396966,-6.745936856462443,71.15799999999581
312827.5027,-18.58116996418514,-8.17536360382369,9.924076549778745,-5.605856659125289,71.1589999999851
312827.5037,-16.788993284551108,-6.721933163939321,10.943184955490901,-4.438860586841508,71.15999999997439
312827.5047,-14.896553425546168,-5.278138770359603,11.57428475795704,-3.315212215822987,71.16099999996368
312827.5057,-13.012490038071117,-3.920389560569135,11.748436718127476,-2.3086733581679337,71.16199999995297
312827.5067,-11.245357296149352,-2.7241063472328375,11.40727165435403,-1.4909170635715232,71.16300000000047
312827.5077,-9.696000299300641,-1.758252584897233,10.508776715194587,-0.9257301741023605,71.16399999998976
312827.5087,-8.45018871824077,-1.0800899810225237,9.032590376708772,-0.6635211939483013,71.16499999997905
312827.5097,-7.572115923983032,-0.7306223218474271,6.984279067210769,-0.7366369635289767,71.16599999996834
312827.5107,-7.099313538338331,-0.7311397004620039,4.39812969990817,-1.1559310988720026,71.16699999995762
312827.5117,-7.039422521395251,-1.0811844408764697,1.3381007617927514,-1.9089236632530886,71.16799999994691
312827.5127,-7.369112175431007,-1.7581379907193089,-2.1032793727278443,-2.95975458334497,71.16899999999441
312827.5137,-8.035261342908845,-2.7184863360574716,-5.808107716610797,-4.250975707136156,71.1699999999837
312827.5147,-8.958327797919047,-3.900673442954233,-9.63825704268923,-5.7070629806385975,71.17099999997299
312827.5157,-10.037649647468434,-5.229311861508473,-13.442171526753494,-7.239376461642728,71.17199999996228
312827.5167,-11.158263163679539,-6.620400231216672,-17.062850627318294,-8.752166368881984,71.17299999995157
312827.5177,-12.198699370333442,-7.9871102871276705,-20.346455082998286,-10.149130359325525,71.17399999999907
312827.5187,-13.039147848851773,-9.245659271051416,-23.150908393822327,-11.33997952149709,71.17499999998836
312827.5197,-13.56935694687699,-10.320781698381463,-25.353861088653346,-12.24647261997864,71.17599999997765
312827.5207,-13.695676013693946,-11.150357215381542,-26.859434199864694,-12.80742961648952,71.17699999996694
312827.5217,-13.34673332617909,-11.688834506746845,-27.60325818292996,-12.982331393302754,71.17799999995623
312827.5227,-12.477374041469533,-11.909206712596214,-27.555464770567326,-12.753243652790873,71.17899999994552
312827.5237,-11.070642910672358,-11.803430353559031,-26.721458809269556,-12.124956573466983,71.17999999999302
312827.5247,-9.1377710393397,-11.381324138845693,-25.140479277046108,-11.123393276014005,71.1809999999823
312827.5257,-6.716297977978571,-10.668122361186786,-22.882136654016897,-9.792494122810716,71.1819999999716
312827.5267,-3.866613660379496,-9.700976652364115,-20.041271400440092,-8.189915781885066,71.18299999996088
312827.5277,-0.6673250434094832,-8.524788427882763,-16.731601385406453,-6.381981487696954,71.18399999995017
312827.5287,2.790070958577357,-7.187804179572645,-13.078704036406554,-4.438373087111175,71.18499999999767
312827.5297,6.40669974833312,-5.737412507171961,-9.212905501261785,-2.427061587915199,71.18599999998696
312827.5307,10.081522172696049,-4.21654528945801,-5.262622961327964,-0.4099310440993993,71.18699999997625
312827.5317,13.715835427004098,-2.6610098007260294,-1.3486311862120794,1.5605345924898084,71.18799999996554
312827.5327,17.21675851028108,-1.097971818697565,2.420391116073678,3.4432516610480235,71.18899999995483
312827.5337,20.49953506855416,0.4543171919682501,5.950823443054917,5.209115894807347,71.19000000000233
312827.5347,23.488633890665703,1.9855900074399055,9.165519841794318,6.840202103304598,71.19099999999162
312827.5357,26.117770277704842,3.4915999078734457,12.003780321131947,8.327768820044984,71.19199999998091
312827.5367,28.329094796153143,4.971401451341916,14.420115750069089,9.66937374289816,71.1929999999702
312827.5377,30.071886532579583,6.424232906499189,16.382151219134162,10.865493930605096,71.19399999995949
312827.5387,31.301136389854886,7.846398624737999,17.86807832376676,11.91609088759339,71.19499999994878
312827.5397,31.976407174187326,9.228548866852135,18.86408542387407,12.817560419691283,71.19599999999627
312827.5407,32.06131118270747,10.553712073528668,19.362165662673714,13.560460667541133,71.19699999998556
312827.5417,31.523857675736824,11.796354600832432,19.35862931418805,14.128323834067801,71.19799999997485
312827.5427,30.33780146896425,12.922633598011211,18.853538276871827,14.497736769653958,71.19899999996414
312827.5437,28.484982914449226,13.891881003322375,17.85114825414117,14.639734970993821,71.19999999995343
312827.5447,25.958503986357297,14.659223453765115,16.36130274758263,14.522407941908135,71.20100000000093
312827.5457,22.766450954613333,15.179117713635755,14.40158772198184,14.114476148864819,71.20199999999022
312827.5467,18.93576617727228,15.409476744472988,11.99994130870141,13.389485034321071,71.20299999997951
312827.5477,14.515802348048098,15.315988473773833,9.19733166986262,12.330181547104289,71.2039999999688
312827.5487,9.581070800818464,14.876195300972451,6.050077204833039,10.932601819058805,71.20499999995809
312827.5497,4.232725201337595,14.082911190131801,2.6313913572798864,9.209409114484112,71.20599999994738
312827.5507,-1.40159800616891,12.946604390166668,-0.968210730402253,7.19207847737081,71.20699999999488
312827.5517,-7.169836943798164,11.496462743414892,-4.64190948947018,4.931623431943858,71.20799999998417
312827.5527,-12.8995566576405,9.779976784300612,-8.269118177558756,2.4976913370162044,71.20899999997346
312827.5537,-18.403917495829834,7.861012046682055,-11.71954635934576,-0.02399500702326885,71.20999999996275
312827.5547,-23.489301934798625,5.816483019195493,-14.858620776315385,-2.5357157267996264,71.21099999995204
312827.5557,-27.964178443757486,3.7318733058604128,-17.553949881518363,-4.933072269929866,71.21199999999953
312827.5567,-31.64864791256219,1.6959568703618544,-19.682398251800343,-7.111143962546279,71.21299999998882
312827.5577,-34.384029260613666,-0.2048470456329188,-21.13725415662736,-8.97099519706302,71.21399999997811
312827.5587,-36.04180550521662,-1.8920153020319517,-21.834936533114536,-10.426004782281508,71.2149999999674
312827.5597,-36.531274281467354,-3.2998951061375887,-21.720700857136826,-11.407496971479265,71.2159999999567
312827.5607,-35.80532664627658,-4.379697803898466,-20.772866428760278,-11.869210034922531,71.21699999994598
312827.5617,-33.863908664961784,-5.102187765528854,-19.005195112375887,-11.790237724006602,71.21799999999348
312827.5627,-30.75489064710654,-5.4588610119708205,-16.46719398634491,-11.176212165436482,71.21899999998277
312827.5637,-26.57226404885084,-5.461546076695629,-13.24227868036528,-10.058650937217903,71.21999999997206
312827.5647,-21.451788671425767,-5.140502891701734,-9.443905300501894,-8.492551590792687,71.22099999996135
312827.5657,-15.564404779061602,-4.541230396213233,-5.209940984772793,-6.552468372801595,71.22199999995064
312827.5667,-9.107889011570826,-3.720307087626407,-0.695681377307395,-4.327433939656167,71.22299999999814
312827.5677,-2.2973549522725345,-2.740669965968391,3.933974965241211,-1.915181330392027,71.22399999998743
312827.5687,4.644731608595065,-1.6667785405386328,8.512629125859178,0.5838302536431572,71.22499999997672
312827.5697,11.49834184779087,-0.5601079841969479,12.880189494049825,3.0720824985688133,71.225999999966
312827.5707,18.054844212376402,0.524630333888824,16.889857239952796,5.459902661182401,71.2269999999553
312827.5717,24.124603029575262,1.5422270359076211,20.413852216587408,7.669241639859231,71.22799999994459
312827.5727,29.542825612431958,2.458471953705262,23.34756806085424,9.63608552050493,71.22899999999208
312827.5737,34.17343928968563,3.2503432380098225,25.611995087534012,11.311405733908238,71.22999999998137
312827.5747,37.91096246860571,3.9049587568074253,27.154408383267157,12.66070404980978,71.23099999997066
312827.5757,40.68051033985393,4.417488871515388,27.94747092958842,13.662350536501986,71.23199999995995
312827.5767,42.43622941949821,4.7883365763360235,27.987033042908468,14.305031073439972,71.23299999994924
312827.5777,43.15857157102309,5.019965319548301,27.289007564858487,14.58470414581167,71.23399999999674
312827.5787,42.85088711084859,5.113789074666349,25.885756132658855,14.501506173429688,71.23499999998603
312827.5797,41.53583257635525,5.067529872774879,23.822430837627376,14.057036632351045,71.23599999997532
312827.5807,39.25205157117364,4.873395876627755,21.153677674854357,13.252399611713683,71.23699999996461
312827.5817,36.05150195440425,4.517343280506399,17.941028113320893,12.087282818366893,71.2379999999539
312827.5827,31.997679423133313,3.979566743692068,14.251191793756545,10.560228169948253,71.2390000000014
312827.5837,27.164839911946988,3.2362275046880513,10.15532903613822,8.670102979234121,71.23999999999069
312827.5847,21.63816723360128,2.262289328168599,5.729240875993727,6.418632232835996,71.24099999997998
312827.5857,15.514684821182781,1.0352039882192334,1.0542818241978997,3.8137159697784595,71.24199999996927
312827.5867,8.904587218501147,-0.4609168640155573,-3.781309244080268,0.8731455779121682,71.24299999995856
312827.5877,1.932581539644592,-2.2310770279530994,-8.681039624772563,-2.3717392192929525,71.24399999994785
312827.5887,-5.261208900865987,-4.265580298214295,-13.539165761039984,-5.872936644523067,71.24499999999534
312827.5897,-12.52121237282798,-6.537069175093068,-18.240463312058125,-9.56367211855062,71.24599999998463
312827.5907,-19.677615545437174,-8.998800968152528,-22.661095275998804,-13.357677165290225,71.24699999997392
312827.5917,-26.549064992229987,-11.584443358215683,-26.670803478569184,-17.15012893667766,71.24799999996321
312827.5927,-32.946971645561035,-14.209539958090637,-30.136510913987234,-20.820373273590487,71.2489999999525
312827.5937,-38.68135793131426,-16.77464662497594,-32.92726574229772,-24.2363875394449,71.25
312827.5947,-43.5680143666343,-19.16998520833998,-34.92029779677222,-27.26076990939144,71.25099999998929
312827.5957,-47.436572515089985,-21.281317596993222,-36.00781159999087,-29.7578856715042,71.25199999997858
312827.5967,-50.13897089218962,-22.99662304848454,-36.10402164944017,-31.601673673277876,71.25299999996787
312827.5977,-51.5577036322306,-24.213077376189982,-35.1518592363412,-32.68353009149556,71.25399999995716
312827.5987,-51.613208398390846,-24.843791896256388,-33.12875467713304,-32.91965121221582,71.25499999994645
312827.5997,-50.26977505097552,-24.823777284869667,-30.050929180055135,-32.25723620670236,71.25599999999395
312827.6007,-47.539439328642835,-24.114652365572006,-25.975715940659246,-30.679024179378924,71.25699999998324
312827.6017,-43.483460025517445,-22.707715566905197,-21.001564404425327,-28.20576115657532,71.25799999997253
312827.6027,-38.211152625905804,-20.62512857180627,-15.26555402098473,-24.89635172816251,71.25899999996182
312827.6037,-31.876051869189876,-17.919115544193243,-8.93843940068283,-20.845632700570043,71.2599999999511
312827.6047,-24.669582490466745,-14.669243239312781,-2.217450177085503,-16.179896040948947,71.2609999999986
312827.6057,-16.812612780032847,-10.97800254272876,4.68274223765537,-11.05046851652806,71.26199999998789
312827.6067,-8.54543189546926,-6.965046484113966,11.540319941047429,-5.625809556128027,71.26299999997718
312827.6077,-0.11681391087943348,-2.760541499317361,18.137190928517946,-0.08270317623029126,71.26399999996647
312827.6087,8.227101688808304,1.5018512169589229,24.26969576805389,5.402815782412253,71.26499999995576
312827.6097,16.253377945010868,5.691833917151986,29.75840982202202,10.66415182176791,71.26599999994505
312827.6107,23.751617862670457,9.68867324158298,34.456368529498086,15.551852688568358,71.26699999999255
312827.6117,30.541504806011023,13.386323662811005,38.255166153920236,19.93982174086744,71.26799999998184
312827.6127,36.478137301122295,16.697164861598218,41.08854711212004,23.72967212618591,71.26899999997113
312827.6137,41.45493851611536,19.55417996184743,42.93330844697794,26.853022645494153,71.26999999996042
312827.6147,45.40412283165493,21.91154755421494,43.80754427544301,29.27171385109453,71.27099999994971
312827.6157,48.29489880192477,23.743762812186695,43.76646911796866,30.976097060296645,71.2719999999972
312827.6167,50.1297615860033,25.043528212694206,42.89623859702648,31.98170256242667,71.2729999999865
312827.6177,50.93936317652912,25.818750791815095,41.306327254826144,32.32471257971789,71.27399999997579
312827.6187,50.77653392651218,26.089041904562848,39.12111232386335,32.056739269119625,71.27499999996508
312827.6197,49.71005739215321,25.88213236986237,36.47134238721374,31.239432458776207,71.27599999995437
312827.6207,47.818771319669615,25.230590186183033,33.48613982916708,29.939415118911043,71.27700000000186
312827.6217,45.186485225079316,24.16916347747607,30.286100306420472,28.223970980978326,71.27799999999115
312827.6227,41.89807902310444,22.732975580612464,26.977920805884605,26.157796957096114,71.27899999998044
312827.6237,38.036991189904235,20.956682847074116,23.650823950128864,23.800995375805297,71.27999999996973
312827.6247,33.68413530489146,18.874581362764328,20.374866526550274,21.20833216337041,71.28099999995902
312827.6257,28.918117864773095,16.52152959677701,17.20104227779817,18.429642426236473,71.28199999994831
312827.6267,23.81648468255143,13.934452491943958,14.162929674975507,15.511139186071137,71.28299999999581
312827.6277,18.457612357419787,11.154119284099327,11.279509308647064,12.497286869168144,71.2839999999851
312827.6287,12.92279591931938,8.226849966608622,8.558693647403281,9.432847737442529,71.28499999997439
312827.6297,7.298069802436758,5.205807645465877,6.001080580988727,6.364701661263596,71.28599999996368
312827.6307,1.675337528899367,2.1515757935018573,3.6034625994886027,3.343077629823504,71.28699999995297
312827.6317,-3.847528635991062,-0.8682037209300285,1.361691732212427,0.4219146150747187,71.28800000000047
312827.6327,-9.167832560478125,-3.78025193624278,-0.7273921029814793,-2.3418189262110967,71.28899999998976
312827.6337,-14.180508685378237,-6.508133132513957,-2.6651272103685617,-4.88988559735854,71.28999999997905
312827.6347,-18.781791958317175,-8.975669614560504,-4.4513018742775845,-7.165520108645848,71.29099999996834
312827.6357,-22.87385702527576,-11.111051174043855,-6.085399762516503,-9.116921653043857,71.29199999995762
312827.6367,-26.370051042240515,-12.851305540571742,-7.568562365587866,-10.701161357280014,71.29299999994691
312827.6377,-29.20025141293891,-14.146733592551376,-8.905918825336293,-11.888095701197704,71.29399999999441
312827.6387,-31.315833001790608,-14.96488899016185,-10.10888166996221,-12.663846401536034,71.2949999999837
312827.6397,-32.69373427680534,-15.293699472853705,-11.197001673988218,-13.033423254406564,71.29599999997299
312827.6407,-33.33916864455301,-15.143385449521096,-12.199016844666428,-13.0221280560934,71.29699999996228
312827.6417,-33.28663104073568,-14.546925739387948,-13.152815111731455,-12.675479553969607,71.29799999995157
312827.6427,-32.598991061685254,-13.558941822672647,-14.104148980666439,-12.057531863231617,71.29899999999907
312827.6437,-31.364629262763376,-12.253009375528226,-15.104080985744668,-11.247609162803458,71.29999999998836
312827.6447,-29.692746980601964,-10.717546159668933,-16.205286715283684,-10.335633047994948,71.30099999997765
312827.6457,-27.707145536658516,-9.050555077392453,-17.457482070292727,-9.416360463577238,71.30199999996694
312827.6467,-25.538912054187676,-7.353607865629336,-18.902358510401648,-8.582965471938769,71.30299999995623
312827.6477,-23.31855274100472,-5.7255281077685245,-20.56849172271802,-7.920475447655936,71.30399999994552
312827.6487,-21.168170311509023,-4.256264766329942,-22.46672620992513,-7.499603445367012,71.30499999999302
312827.6497,-19.194284747263072,-3.021435923262035,-24.586525869646753,-7.371499691770851,71.3059999999823
312827.6507,-17.481845401145627,-2.0779676886352285,-26.893718728075754,-7.563877442792015,71.3069999999716
312827.6517,-16.089882214096615,-1.4611602438837386,-29.32995750252854,-8.078857592307786,71.30799999996088
312827.6527,-15.049103858080592,-1.183390295522969,-31.81407596901397,-8.89273238028383,71.30899999995017
312827.6537,-14.361584005933203,-1.234518207007544,-34.245357151930584,-9.957684531775675,71.30999999999767
312827.6547,-14.00249919802437,-1.5839218377363344,-36.50855842523877,-11.20532935247394,71.31099999998696
312827.6557,-13.923709448501082,-2.1839411920408005,-38.48037687676731,-12.551789426448785,71.31199999997625
312827.6567,-14.058821726267361,-2.9744010717255036,-40.03690120018369,-13.903879341668105,71.31299999996554
312827.6577,-14.329260544793287,-3.8877936912249114,-41.061497201807356,-15.165883648154598,71.31399999995483
312827.6587,-14.650799445409685,-4.854657259358281,-41.45252250783257,-16.246363793701953,71.31500000000233
312827.6597,-14.93998808952568,-5.808683698307405,-41.130267550220985,-17.064433427771725,71.31599999999162
312827.6607,-15.119942956155011,-6.691128694194202,-40.042574744545966,-17.55499573110419,71.31699999998091
312827.6617,-15.125051225585075,-7.454175834688929,-38.16869128564334,-17.672536055363636,71.3179999999702
312827.6627,-14.9042586847145,-8.063015753703473,-35.521053940462814,-17.393198617584527,71.31899999995949
312827.6637,-14.422761068581654,-8.496530210059534,-32.144873683157066,-16.715034418540476,71.31999999994878
312827.6647,-13.662079327411558,-8.746607340518674,-28.115568605335003,-15.65647396977691,71.32099999999627
312827.6657,-12.618657032068127,-8.8162448549422,-23.53426885670253,-14.253237184281812,71.32199999998556
312827.6667,-11.301257190538477,-8.716710294042574,-18.521771595328932,-12.554029107005233,71.32299999997485
312827.6677,-9.727542855093748,-8.464111147080182,-13.211443268678913,-10.615471472970377,71.32399999996414
312827.6687,-7.920291068580234,-8.075775005338631,-7.741640562542393,-8.496777251373368,71.32499999995343
312827.6697,-5.903707193373336,-7.566846967907515,-2.2482439070816165,-6.2546835122373325,71.32600000000093
312827.6707,-3.700275525957483,-6.947478116394127,3.1421327652454685,-3.9391169996109063,71.32699999999022
312827.6717,-1.328506189050961,-6.220908840056961,8.31777160033521,-1.5899812659962207,71.32799999997951
312827.6727,1.1981741136665225,-5.382651432952577,13.185955502372222,0.7646671074861902,71.3289999999688
312827.6737,3.8712769578437314,-4.420857780140927,17.67533279377714,3.1089306854467886,71.32999999995809
312827.6747,6.685889650250619,-3.3178319564183667,21.736490312009405,5.437903616302068,71.33099999994738
312827.6757,9.63827499490161,-2.052526653493925,25.34084578846043,7.755204908069122,71.33199999999488
312827.6767,12.722736430617328,-0.6037584176414074,28.47811627035891,10.069521742634901,71.33299999998417
312827.6777,15.928142830493597,1.0462001229774558,31.15273532737903,12.390568238894211,71.33399999997346
312827.6787,19.23455691467889,2.9080350779058612,33.379667468802296,14.724919760021022,71.33499999996275
312827.6797,22.6104139951259,4.982200779896105,35.18009729205805,17.072191006005763,71.33599999995204
312827.6807,26.010653003987002,7.256476247336111,36.577451732775735,19.421987284816364,71.33699999999953
312827.6817,29.376113573147958,9.704550284329871,37.59414948209414,21.751976646074944,71.33799999998882
312827.6827,32.63438982109056,12.285817890585916,38.249369668436685,24.027314294351875,71.33899999997811
312827.6837,35.70218551618649,14.946453104617953,38.55800337754046,26.2015115359339,71.3399999999674
312827.6847,38.489060871645215,17.62169889688876,38.53081010764192,28.21869333024478,71.3409999999567
312827.6857,40.902313826679396,20.23919555943161,38.175661553534255,30.017046051655516,71.34199999994598
312827.6867,42.85261319596453,22.723066989973404,37.499631565218564,31.53313447252842,71.34299999999348
312827.6877,44.25991043574948,24.998409455664934,36.51159633785917,32.70667643371843,71.34399999998277
312827.6887,45.05911058902728,26.995787283106367,35.22495243405831,33.48531417896497,71.34499999997206
312827.6897,45.20498655641719,28.65533847392214,33.66004771436598,33.82891783041577,71.34599999996135
312827.6907,44.67587465853923,29.930130669631296,31.84595272838071,33.71299934574541,71.34699999995064
312827.6917,43.475789021414805,30.788480497747642,29.82127404527014,33.13090028614703,71.34799999999814
312827.6927,41.63472858316339,31.215049918922922,27.633818571721818,32.094535406589195,71.34899999998743
312827.6937,39.20711073674363,31.21065175113431,25.339047846655816,30.633614659492686,71.34999999997672
312827.6947,36.26843455933195,30.790821247017412,22.997400020772556,28.7934146908113,71.350999999966
312827.6957,32.91043800558178,29.983328988106287,20.670690178138468,26.631312510283887,71.3519999999553
312827.6967,29.23515172159444,28.82491059534362,18.417912805272785,24.212414611187345,71.35299999994459
312827.6977,25.348353760895545,27.35756080589923,16.29085146393175,21.604702351406768,71.35399999999208
312827.6987,21.352984411485306,25.624776117060268,14.329941144145344,18.87416011747961,71.35499999998137
312827.6997,17.343083000986535,23.66812778187389,12.560823512946374,16.080352062277846,71.35599999997066
312827.7007,13.39875839847995,21.524505715918618,10.991984077595351,13.27286604173833,71.35699999995995
312827.7017,9.582606554679554,19.22429800665247,9.61376755337015,10.488954411544173,71.35799999994924
312827.7027,5.937851087996071,16.790667875962715,8.398942123520184,7.752579393399664,71.35899999999674
312827.7037,2.4883197171231695,14.239970549024347,7.304836887627432,5.074927906902829,71.35999999998603
312827.7047,-0.759804097587948,11.583228657634077,6.2769239501237175,2.4563113274032053,71.36099999997532
312827.7057,-3.814681924564353,8.82846918733145,5.2535724803628066,-0.11077548013522746,71.36199999996461
312827.7067,-6.694345579784338,5.983629437310069,4.171581192390264,-2.6377801165963697,71.3629999999539
312827.7077,-9.421526717065662,3.059673915416802,2.972010441020205,-5.1358319997978965,71.3640000000014
312827.7087,-12.01833162915601,0.07353548715592252,1.6057945300360108,-7.611564596441049,71.36499999999069
312827.7097,-14.501310159086932,-2.949494295882546,0.0386235880675643,-10.063483710698437,71.36599999997998
312827.7107,-16.877422089907647,-5.974249717206107,-1.7453576254703747,-12.47929169215317,71.36699999996927
312827.7117,-19.141309764079608,-8.955288571906708,-3.7413843440150876,-14.834482188955475,71.36799999995856
312827.7127,-21.274151306339398,-11.83772920855098,-5.923653052495452,-17.092392203434244,71.36899999994785
312827.7137,-23.244207929976174,-14.559325725252616,-8.246703483312276,-19.205750307552854,71.36999999999534
312827.7147,-25.009007268946856,-17.05365006612162,-10.648489614608003,-21.119606616743628,71.37099999998463
312827.7157,-26.518939440388074,-19.254130205881378,-13.054871382732104,-22.77538679742556,71.37199999997392
312827.7167,-27.721899945141704,-21.098596735422504,-15.385126799129397,-24.11569339402446,71.37299999996321
312827.7177,-28.56850767493562,-22.53392603454348,-17.557989634592666,-25.08939516895892,71.3739999999525
312827.7187,-29.017367697058155,-23.520343745601973,-19.497670181882985,-25.65650746841551,71.375
312827.7197,-29.039842925595632,-24.034970469879568,-21.139320677063697,-25.792377955891734,71.37599999998929
312827.7207,-28.623846778054073,-24.074251306584447,-22.433462551209253,-25.490751643312432,71.37699999997858
312827.7217,-27.776265628651178,-23.655006714935958,-23.34899453964722,-24.765391443927676,71.37799999996787
312827.7227,-26.5237556027292,-22.813965232395283,-23.87453896810125,-23.6500656464305,71.37899999995716
312827.7237,-24.91181939801737,-21.605777076850007,-24.01804481266044,-22.196868622922413,71.37999999994645
312827.7247,-23.002239204035913,-20.09964821571965,-23.80473462975919,-20.473000566847304,71.38099999999395
312827.7257,-20.86910432580427,-18.374863406643996,-23.27364164630755,-18.556280418646224,71.38199999998324
312827.7267,-18.59381049358054,-16.51557135579559,-22.473117531371948,-16.52978871853249,71.38299999997253
312827.7277,-16.259508175289493,-14.605275162840233,-21.455787405819624,-14.476121763825882,71.38399999996182
312827.7287,-13.945529446264215,-12.72149963307277,-20.27347699507688,-12.47177668889362,71.3849999999511
312827.7297,-11.722321893329287,-10.93109089442902,-18.97263269830993,-10.582175032464292,71.3859999999986
312827.7307,-9.647363781809597,-9.286544469761678,-17.590699124782933,-8.857771065262423,71.38699999998789
312827.7317,-7.762432789141736,-7.823661154675585,-16.153815883842036,-7.331586529695978,71.38799999997718
312827.7327,-6.092461301328378,-6.560705041534493,-14.676056280230704,-6.018375675610495,71.38899999996647
312827.7337,-4.646048642082628,-5.499096871937628,-13.160268859548871,-4.915467015419917,71.38999999995576
312827.7347,-3.4175310867291615,-4.625532227158725,-11.600414539460107,-4.005166467032309,71.39099999994505
312827.7357,-2.390351254465481,-3.915281749351597,-9.985134110617187,-3.258456332659513,71.39199999999255
312827.7367,-1.541335634003063,-3.3363223767652546,-8.302148995534713,-2.6396005792917854,71.39299999998184
312827.7377,-0.8453961328186015,-2.8538748630820527,-6.543005591192552,-2.1111812782146537,71.39399999997113
312827.7387,-0.28012823600478765,-2.434890654516487,-4.7076297345367335,-1.6390522062116375,71.39499999996042
312827.7397,0.17021073386229543,-2.052043493664525,-2.808167487221231,-1.1967073140429396,71.39599999994971
312827.7407,0.5117954222871407,-1.6868365554784945,-0.871650957143821,-0.7686228846506749,71.3969999999972
312827.7417,0.7397388461900241,-1.331528960541157,1.0588625277972312,-0.3522367534085399,71.3979999999865
312827.7427,0.8382039360033118,-0.9897069733752113,2.9248833485589314,0.04163429079760658,71.39899999997579
312827.7437,0.7821430754811967,-0.6754631497274536,4.654851314449106,0.3899803579714589,71.39999999996508
312827.7447,0.5405140909387239,-0.41128762743144665,6.16812793487769,0.6602672925183032,71.40099999995437
312827.7457,0.0806596046698187,-0.2249058621177943,7.3803169843321745,0.8143181441838403,71.40200000000186
312827.7467,-0.6265955165700385,-0.14540365150932874,8.209474072810485,0.8130132549601866,71.40299999999115
312827.7477,-1.6016629933815603,-0.19905282475754546,8.582669427226708,0.6213299020561127,71.40399999998044
312827.7487,-2.851297070017868,-0.405282362111161,8.442321746791283,0.21320450022890014,71.40499999996973
312827.7497,-4.364637724219399,-0.7732268315959729,7.751729615906008,-0.42428658715938833,71.40599999995902
312827.7507,-6.110664737578681,-1.2992280834993215,6.499290013570626,-1.2878686588203503,71.40699999994831
312827.7517,-8.037410443611813,-1.965572549258478,4.701005131108269,-2.3564669501228552,71.40799999999581
312827.7527,-10.073115702849028,-2.740624371271643,2.4010284501560157,-3.5912554901557328,71.4089999999851
312827.7537,-12.129328421762379,-3.58037589175454,-0.32982541904172313,-4.937390263170106,71.40999999997439
312827.7547,-14.10575461597312,-4.431295366762965,-3.3975018622056723,-6.327295989209262,71.41099999996368
312827.7557,-15.896497105425096,-5.234221101486937,-6.689782345944542,-7.685223352630211,71.41199999995297
312827.7567,-17.397173700766743,-5.928944455857554,-10.082595076799764,-8.932667958005537,71.41300000000047
312827.7577,-18.512309563037274,-6.459051980633878,-13.447035515364092,-9.99415610034926,71.41399999998976
312827.7587,-19.162357315644517,-6.776566601337578,-16.65651753209374,-10.802864194039758,71.41499999997905
312827.7597,-19.289718125369,-6.845942482846073,-19.593476247907017,-11.305552321073877,71.41599999996834
312827.7607,-18.86321616674143,-6.647026784853022,-22.155098172209605,-11.466356658740306,71.41699999995762
312827.7617,-17.88061069035664,-6.1766984497584625,-24.257657396883545,-11.269094367738317,71.41799999994691
312827.7627,-16.368902249654948,-5.449020148624145,-25.839177863443318,-10.717877305107578,71.41899999999441
312827.7637,-14.38238643460876,-4.493882344819354,-26.860306939115564,-9.835993738516105,71.4199999999837
312827.7647,-11.99861119438296,-3.3542641946192475,-27.30345827548588,-8.663184129970048,71.42099999997299
312827.7657,-9.312583310086856,-2.082370398974677,-27.170445080582553,-7.251591624815121,71.42199999996228
312827.7667,-6.4297277847645375,-0.7350128942901427,-26.478962446734233,-5.6607948832392445,71.42299999995157
312827.7677,-3.4582157503504205,0.6313194931549295,-25.258375804635772,-3.952417750637202,71.42399999999907
312827.7687,-0.5013312329413039,1.9652290924380214,-23.545322440959144,-2.184848322085934,71.42499999998836
312827.7697,2.3494605213619426,3.2245559124583743,-21.379629743309525,-0.4085853441028438,71.42599999997765
312827.7707,5.020149817252773,4.379503639291726,-18.800998192634424,1.337336068542907,71.42699999996694
312827.7717,7.458055556054109,5.414445741871932,-15.84679514654493,3.027498345773898,71.42799999995623
312827.7727,9.63363358322754,6.328241814549943,-12.551167843028452,4.650638967163423,71.42899999994552
312827.7737,11.540114562278509,7.133041069254924,-8.945525083035564,6.208540361887315,71.42999999999302
312827.7747,13.191069563685273,7.8516996438872955,-5.060273156157293,7.713409388449813,71.4309999999823
312827.7757,14.616194885743914,8.514076438555803,-0.9275396985738175,9.184038812347696,71.4319999999716
312827.7767,15.855771966925877,9.152584936985763,3.4155049245706475,10.641169836721184,71.43299999996088
312827.7777,16.954378074115887,9.797454757810238,7.923202434708147,12.102560104423949,71.43399999995017
312827.7787,17.954487533153277,10.472188886829759,12.538344950096121,13.578297031046482,71.43499999999767
312827.7797,18.890605758586982,11.189687336110682,17.18998390066503,15.0668780853247,71.43599999998696
312827.7807,19.784519308702528,11.949446651019787,21.79252402610816,16.552509205819035,71.43699999997625
312827.7817,20.64213059627744,12.736143029801546,26.24639839625148,18.003956547359397,71.43799999996554
312827.7827,21.452186966413944,13.519774546255029,30.440467074890904,19.37513627324244,71.43899999995483
312827.7837,22.18702602838706,14.257387762000096,34.256108609232555,20.60745662068408,71.44000000000233
312827.7847,22.80526049204733,14.896260302200684,37.572796744592004,21.63375241381422,71.44099999999162
312827.7857,23.256135332106115,15.378268501036938,40.27479192561111,22.38349140517178,71.44199999998091
312827.7867,23.485126012446504,15.645051660839544,42.25844438565013,22.788799869912012,71.4429999999702
312827.7877,23.440224258166598,15.643503067911734,43.43951637162137,22.790764587531896,71.44399999995949
312827.7887,23.07828890210297,15.331080451698853,43.75989472084249,22.34542858260119,71.44499999994878
312827.7897,22.37082996017511,14.680438644244388,43.19308609088867,21.428912807181185,71.44599999999627
312827.7907,21.30864491868864,13.682943855498024,41.74796475618302,20.0411641981352,71.44699999998556
312827.7917,19.904832151482914,12.35072688314632,39.47037082083823,18.207946037169933,71.44799999997485
312827.7927,18.19585714824236,10.717062507149649,36.442323995140505,15.980838629337436,71.44899999996414
312827.7937,16.240528380165713,8.835012087067422,32.77881003810712,13.435192913781034,71.44999999995343
312827.7947,14.116933935936611,6.774421986395636,28.622296494548127,10.666160554994585,71.45100000000093
312827.7957,11.917579185440664,4.617517418088671,24.135323569107573,7.7830945996856915,71.45199999999022
312827.7967,9.743131943007667,2.4534560517664965,19.49167785956102,4.902759202603668,71.45299999997951
312827.7977,7.695309464215624,0.37229681478076243,14.866776631231884,2.14189198616772,71.4539999999688
312827.7987,5.869519407550903,-1.5411114598352718,10.427957552207975,-0.3902812231347714,71.45499999995809
312827.7997,4.347887722588023,-3.212813785681659,6.3253773039747925,-2.598977183056631,71.45599999994738
312827.8007,3.1932688197978294,-4.5845403524826205,2.684171545196006,-4.40968082706578,71.45699999999488
312827.8017,2.4447413977102257,-5.617225169321261,-0.40157696303853513,-5.772414959414712,71.45799999998417
312827.8027,2.1149561243775845,-6.292989678373674,-2.8726660219183002,-6.664142437942161,71.45899999997346
312827.8037,2.1895323643422433,-6.615468939965115,-4.70618357165174,-7.0891542194887105,71.45999999996275
312827.8047,2.628516573264724,-6.608506644351512,-5.914482448832907,-7.077472073575525,71.46099999995204
312827.8057,3.3697324260425243,-6.313388556274388,-6.541898061867604,-6.681464336105394,71.46199999999953
312827.8067,4.333689391670626,-5.784908668958941,-6.659561288895358,-5.971021183686373,71.46299999998882
312827.8077,5.429587473536981,-5.086656872281107,-6.358798375299192,-5.0277491569460775,71.46399999997811
312827.8087,6.561872868494821,-4.28597286449939,-5.743702229585487,-3.9387130948965714,71.4649999999674
312827.8097,7.636769449137737,-3.4490236948215274,-4.9234980384283675,-2.790271685462583,71.4659999999567
312827.8107,8.568236095564696,-2.6364312747244063,-4.005308440328308,-1.6625197894580597,71.46699999994598
312827.8117,9.282876482301084,-1.8998052356389845,-3.0878527954727715,-0.6247707587460444,71.46799999999348
312827.8127,9.723447473341322,-1.2794332729259998,-2.256499469650528,0.26760620076692365,71.46899999998277
312827.8137,9.850762204809623,-0.8032562989103185,-1.57994169716821,0.9748227457921514,71.46999999997206
312827.8147,9.643948828192185,-0.48712202325763976,-1.1086015430042533,1.4727669177393312,71.47099999996135
312827.8157,9.099189058507802,-0.3361814120329367,-0.8746991541027135,1.7516937392379703,71.47199999995064
312827.8167,8.227205820725416,-0.3471806764136501,-0.8937720337269844,1.8137797754939466,71.47299999999814
312827.8177,7.0498821210728115,-0.5113179767170769,-1.1673058331039148,1.6699114629282668,71.47399999998743
312827.8187,5.59646291400778,-0.8172869286097119,-1.6860552767424488,1.3361367435675522,71.47499999997672
312827.8197,3.8998118024691752,-1.2541225783316214,-2.4335982206900257,0.8302228684437034,71.475999999966
312827.8207,1.993163610345915,-1.8134999543705843,-3.3896795183610604,0.1687296315597923,71.4769999999553
312827.8217,-0.09226388448230143,-2.4912066559585124,-4.532961369154406,-0.635069008691055,71.47799999994459
312827.8227,-2.328551774840504,-3.287611536479113,-5.842895550993594,-1.5721924609267637,71.47899999999208
312827.8237,-4.691149808302719,-4.207070775969742,-7.300558981784816,-2.637800494490005,71.47999999998137
312827.8247,-7.157780715979241,-5.256338038190067,-8.888433400282441,-3.829930930631526,71.48099999997066
312827.8257,-9.70637212851817,-6.442163891270238,-10.589247429067477,-5.147313469226743,71.48199999995995
312827.8267,-12.312334223371183,-7.768368860999402,-12.384120103607469,-6.586558432358562,71.48299999994924
312827.8277,-14.94559155086306,-9.232743959733757,-14.25033624648938,-8.139099725280143,71.48399999999674
312827.8287,-17.567823102986644,-10.824164872872085,-16.159136166211013,-9.788310429742403,71.48499999998603
312827.8297,-20.130360293053933,-12.520297524483585,-18.073909575711596,-11.507202828910174,71.48599999997532
312827.8307,-22.573137898057745,-14.286223949434449,-19.94914559062599,-13.257072690113862,71.48699999996461
312827.8317,-24.82499312784796,-16.074232829079065,-21.730411199879697,-14.987355343707971,71.4879999999539
312827.8327,-26.805472457211902,-17.824906904867913,-23.355518081002682,-16.63683770514219,71.4890000000014
312827.8337,-28.42814805896303,-19.46951080741904,-24.75690393169909,-18.136228354250754,71.48999999999069
312827.8347,-29.605281400140726,-20.933550406287125,-25.865113751747124,-19.41194157266591,71.49099999997998
312827.8357,-30.253517461322346,-22.14125184771523,-26.61313370020958,-20.390815857085233,71.49199999996927
312827.8367,-30.300164970133466,-23.02060740776343,-26.94121952496372,-21.005376919126125,71.49299999995856
312827.8377,-29.689529489289132,-23.508566468307475,-26.801785193850602,-21.19918121441196,71.49399999994785
312827.8387,-28.388726921551136,-23.555920532013424,-26.1638839117737,-20.931746707178725,71.49499999999534
312827.8397,-26.392420015890533,-23.131444598787862,-25.01682753092213,-20.182596560820475,71.49599999998463
312827.8407,-23.725989540781843,-22.22491261220595,-23.372551010919857,-18.95400763619081,71.49699999997392
312827.8417,-20.446769398134958,-20.848697108840927,-21.26643084531131,-17.272163242499076,71.49799999996321
312827.8427,-16.64313075018595,-19.037784073665083,-18.756400737389274,-15.186548513208848,71.4989999999525
312827.8437,-12.431380053931683,-16.84817191021358,-15.920361414852302,-12.76758386267359,71.5
312827.8447,-7.950623094299079,-14.353765260623565,-12.852039353272096,-10.102652101613366,71.50099999998929
312827.8457,-3.355924153318699,-11.642006625336787,-9.655595753047185,-7.290822416632964,71.50199999997858
312827.8467,1.1897603501618563,-8.808598714317169,-6.439407747400479,-4.436695137773732,71.50299999996787
312827.8477,5.524285308398289,-5.951747744336313,-3.3095262929996374,-1.6438731704113019,71.50399999995716
312827.8487,9.49501138961958,-3.1663951979030593,-0.3633509556045615,0.9913989655511831,71.50499999994645
312827.8497,12.966843814560875,-0.5388994954545427,2.3159531557217123,3.385902930695319,71.50599999999395
312827.8507,15.829025201110692,1.857419554185073,4.663835755135474,5.473960121137926,71.50699999998324
312827.8517,18.000200472227558,3.9655467956870636,6.637187048918285,7.210437352135719,71.50799999997253
312827.8527,19.431421622809843,5.746636616990575,8.215398855354929,8.572031110641934,71.50899999996182
312827.8537,20.106937397458527,7.180397715396042,9.399613449489616,9.556776019501228,71.5099999999511
312827.8547,20.042801027305234,8.264056041068555,10.210278873867852,10.181886150400388,71.5109999999986
312827.8557,19.28351060288927,9.010082766501478,10.68328415649446,10.480188939711862,71.51199999998789
312827.8567,17.897054715070144,9.442981605675719,10.865075826741572,10.495536235202568,71.51299999997718
312827.8577,15.968856371751349,9.595506048376812,10.807245946437083,10.277663579853073,71.51399999996647
312827.8587,13.595180342092807,9.504715090529665,10.561123038838746,9.877009128849194,71.51499999995576
312827.8597,10.876587167017414,9.208272668200493,10.172886937150238,9.339994036177453,71.51599999994505
312827.8607,7.911980516893135,8.74135219020087,9.679667864703404,8.705208035816614,71.51699999999255
312827.8617,4.793708022034055,8.13442824865156,9.10698509282479,8.000843288758947,71.51799999998184
312827.8627,1.6040485287967834,7.412131180283527,8.467741692488644,7.243586490007233,71.51899999997113
312827.8637,-1.5867358989799731,6.593217692882867,7.762832864739119,6.43902696091791,71.51999999996042
312827.8647,-4.720771380513353,5.69158482837629,6.983261691525597,5.583482042565582,71.52099999994971
312827.8657,-7.751516910531414,4.718137958290776,6.113503886688044,4.666995960059165,71.5219999999972
312827.8667,-10.641573375803054,3.6832281672013782,5.1357370936744555,3.677148709154272,71.5229999999865
312827.8677,-13.359754814438784,2.599309991203616,4.034462741959632,2.6032291634081037,71.52399999997579
312827.8687,-15.87788234670176,1.4834436463666305,2.8010079542252666,1.440289587719609,71.52499999996508
312827.8697,-18.167773717013045,0.35927944608335516,1.437405442243234,0.1926107004367211,71.52599999995437
312827.8707,-20.198863296173858,-0.7417851463135678,-0.040790245257647906,-1.1238338219856776,71.52700000000186
312827.8717,-21.936803149021294,-1.780498607121522,-1.603087178547287,-2.480222820583972,71.52799999999115
312827.8727,-23.343274413264282,-2.710809156534692,-3.2042396262605743,-3.8352189070484632,71.52899999998044
312827.8737,-24.377092477624785,-3.4820634244683433,-4.786069894455631,-5.136808870712211,71.52999999996973
312827.8747,-24.996534422187686,-4.042206197881372,-6.280803063865859,-6.325520426867218,71.53099999995902
312827.8757,-25.16266893357083,-4.341721022526989,-7.615635531925653,-7.338737984049448,71.53199999994831
312827.8767,-24.843342798395405,-4.337958427707043,-8.718130298584878,-8.115721636494744,71.53299999999581
312827.8777,-24.017387280421087,-3.9994387407249405,-9.52194231119868,-8.602853025027434,71.5339999999851
312827.8787,-22.678561869581134,-3.309696443352845,-9.972334855615681,-8.758597274128016,71.53499999997439
312827.8797,-20.83875726459442,-2.2702555424005455,-10.030957405648316,-8.557685664628046,71.53599999996368
312827.8807,-18.530034238624452,-0.9023890978617528,-9.679416042338904,-7.994087964600121,71.53699999995297
312827.8817,-15.805175436518962,0.7525845273701353,-8.921274134679011,-7.082450594441353,71.53800000000047
312827.8827,-12.736563778575624,2.6345898876787817,-7.782263614049466,-5.857817026546477,71.53899999998976
312827.8837,-9.41336092472117,4.6676468789346615,-6.3086525344213,-4.373606748339792,71.53999999997905
312827.8847,-5.937126668278649,6.764123633242055,-4.563887072557915,-2.6979934983496827,71.54099999996834
312827.8857,-2.416178714106266,8.830094217171125,-2.6237892640393823,-0.9089765386647792,71.54199999995762
312827.8867,1.0408737708131424,10.771397667571765,-0.5707299202746557,0.9114343432417976,71.54299999994691
312827.8877,4.331893800066013,12.499921690453967,1.5127040905970053,2.683410994406574,71.54399999999441
312827.8887,7.367701108943347,13.939603036358704,3.549977555154387,4.335325988055641,71.5449999999837
312827.8897,10.077707964427203,15.031650594953199,5.476241124508496,5.809058899704592,71.54599999997299
312827.8907,12.414197593413073,15.7385558531542,7.2428195354574205,7.06411150045148,71.54699999996228
312827.8917,14.354847003255149,16.046553594287218,8.820146304740296,8.080160582361922,71.54799999995157
312827.8927,15.903246118975575,15.966324904381581,10.198881592691462,8.857819724131991,71.54899999999907
312827.8937,17.08734134433017,15.531883075161371,11.389119940687497,9.41754614443876,71.54999999998836
312827.8947,17.955917480571657,14.797737361971489,12.417774269619434,9.79680029912828,71.55099999997765
312827.8957,18.573409878687567,13.83457566981029,13.324394735293843,10.045727756104343,71.55199999996694
312827.8967,19.013491777280425,12.723831720242123,14.155829228397522,10.221769672779054,71.55299999995623
312827.8977,19.351995210837426,11.551593699932576,14.96024215879581,10.383706793212419,71.55399999994552
312827.8987,19.659786544991963,10.402361484135676,15.781068984859186,10.58569278869582,71.55499999999302
312827.8997,19.9962232666965,9.353163814885615,16.65148974270371,10.871831061146912,71.5559999999823
312827.9007,20.403766223162123,8.468505149669971,17.58995490774645,11.271794945954797,71.5569999999716
312827.9017,20.904215723804302,7.7965284656417335,18.597195986824616,11.79788978508129,71.55799999996088
312827.9027,21.496890602512803,7.36666322205324,19.655010950418117,12.44381635903135,71.55899999995017
312827.9037,22.158890514881072,7.188888217366477,20.72694464751879,13.185232065208178,71.55999999999767
312827.9047,22.84739032608033,7.2545905607745675,21.76080306498445,13.982034738782993,71.56099999998696
312827.9057,23.503729583092166,7.538858519352971,22.692765155646033,14.782130659327905,71.56199999997625
312827.9067,24.05889739502592,8.003921119069567,23.452703812174057,15.526308789618954,71.56299999996554
312827.9077,24.43988896866509,8.60335268837666,23.970213005620405,16.153741026120926,71.56399999995483
312827.9087,24.576336232552176,9.286604636212834,24.18077207546457,16.607572932457817,71.56500000000233
312827.9097,24.40679823600712,10.003414412290326,24.03146687556623,16.840066219110074,71.56599999999162
312827.9107,23.884138612656034,10.707673288159052,23.485731869870747,16.81680318840387,71.56699999998091
312827.9117,22.979512998830337,11.360406507796405,22.526672882105235,16.51955947766588,71.5679999999702
312827.9127,21.68462934378163,11.931623778671087,21.158667658660338,15.947585133276908,71.56899999995949
312827.9137,20.01211473265976,12.40092419099126,19.407107321401075,15.117192143643356,71.56999999994878
312827.9147,17.994006954560607,12.75687462025444,17.31632008017543,14.05971353671348,71.57099999999627
312827.9157,15.67856960817174,12.995310891076732,14.945892005765694,12.818058689169739,71.57199999998556
312827.9167,13.12578855118499,13.11682345382374,12.365751505293163,11.442226065968367,71.57299999997485
312827.9177,10.402029653354747,13.123772912301535,9.650499784342177,9.984234969605698,71.57399999996414
312827.9187,7.574411457243538,13.017227258036579,6.873537937099818,8.492992361790847,71.57499999995343
312827.9197,4.70546462009891,12.794217679053094,4.101555882065575,7.00961426437183,71.57600000000093
312827.9207,1.8486114754667589,12.44567305045714,1.3899078791593515,5.563673484550743,71.57699999999022
312827.9217,-0.9550921601632452,11.955318587029836,-1.2206921090330785,4.170751272000971,71.57799999997951
312827.9227,-3.6786454435689437,11.299719320158571,-3.705855394689021,2.831539345216467,71.5789999999688
312827.9237,-6.309078314458719,10.44952472158589,-6.057446383959438,1.5325834528604827,71.57999999995809
312827.9247,-8.845749926793308,9.37183952791224,-8.281791032235146,0.24859551275299627,71.58099999994738
312827.9257,-11.297179106107166,8.033520886726631,-10.39637483086127,-1.053895528203224,71.58199999999488
312827.9267,-13.676769134025063,6.405095968933217,-12.42538938848401,-2.411918312313757,71.58299999998417
312827.9277,-15.99790573051468,4.464917906357351,-14.394601215215506,-3.8609220518984437,71.58399999997346
312827.9287,-18.268975828002542,2.203139112861201,-16.326084041030327,-5.429644185303131,71.58499999996275
312827.9297,-20.488868770885823,-0.37491617509194564,-18.233370288053475,-7.135502017825769,71.58599999995204
312827.9307,-22.64347942415226,-3.246353945489227,-20.117536787711092,-8.98097996369178,71.58699999999953
312827.9317,-24.703638299854457,-6.369578999032291,-21.964648468968683,-10.951390288203473,71.58799999998882
312827.9327,-26.624756249762928,-9.6846104388911,-23.74485049133518,-13.014254633879853,71.58899999997811
312827.9337,-28.34830375896452,-13.114893751854831,-25.413237188439627,-15.12039878329339,71.5899999999674
312827.9347,-29.805063548223025,-16.57052194406499,-26.912451058503823,-17.20668906074419,71.5909999999567
312827.9357,-30.919917538413767,-19.952647565566892,-28.17679396673133,-19.20018135146438,71.59199999994598
312827.9367,-31.617772395151178,-23.158755934798933,-29.137482364423803,-21.02331807772867,71.59299999999348
312827.9377,-31.830107018354926,-26.088388109895085,-29.72856328116892,-22.599707618188564,71.59399999998277
312827.9387,-31.50155220054625,-28.64885792532181,-29.892939239968722,-23.859964188675594,71.59499999997206
312827.9397,-30.595894435679885,-30.760504885558102,-29.58793466770861,-24.747079403306493,71.59599999996135
312827.9407,-29.100934487038664,-32.36106405560101,-28.789875244300593,-25.220840084053684,71.59699999995064
312827.9417,-27.031723398788486,-33.40881149904063,-27.497241087539226,-25.26089604055756,71.59799999999814
312827.9427,-24.431835693964267,-33.884251881427964,-25.732085954906022,-24.86820777627836,71.59899999998743
312827.9437,-21.372508845903873,-33.79024331050495,-23.539574992079515,-24.064755154929745,71.59999999997672
312827.9447,-17.949664032146785,-33.15059119501143,-20.985667450533576,-22.891549430678076,71.600999999966
312827.9457,-14.279008455238845,-32.00727504858554,-18.153141481369023,-21.40514725462407,71.6019999999553
312827.9467,-10.489587036002872,-30.41658745797791,-15.13630924071578,-19.673001457515447,71.60299999994459
312827.9477,-6.716285673774423,-28.44455228743665,-12.034887755706318,-17.768086728937366,71.60399999999208
312827.9487,-3.091877317752091,-26.16204170618544,-8.94756331696863,-15.7632991573654,71.60499999998137
312827.9497,0.26076209957039587,-23.640024323672858,-5.965808025447364,-13.726141492870724,71.60599999997066
312827.9507,3.2356611328664044,-20.945348932822377,-3.168475003715591,-11.714170111971717,71.60699999995995
312827.9517,5.74945102380771,-18.13740327772205,-0.6176173089642824,-9.771598858496326,71.60799999994924
312827.9527,7.745342374463899,-15.26589157877994,1.6441468602386982,-7.927337353488407,71.60899999999674
312827.9537,9.19512316324052,-12.36985782108817,3.5945511991640604,-6.1945986447149695,71.60999999998603
312827.9547,10.099096013019413,-9.477955525432238,5.230873954644473,-4.572057184796349,71.61099999997532
312827.9557,10.484051075204928,-6.6098411846698255,6.567561988865992,-3.0463880609923204,71.61199999996461
312827.9567,10.399536125844612,-3.778459713465437,7.63258623210226,-1.5958866680986052,71.6129999999539
312827.9577,9.912822299136657,-0.9929065785118082,8.462940676791717,-0.19476728156762071,71.6140000000014
312827.9587,9.103060021483012,1.738499300302296,9.099766653086398,1.1823211615619247,71.61499999999069
312827.9597,8.055166920451548,4.405310574575924,9.583604862290503,2.55603774032064,71.61599999997998
312827.9607,6.853984351132196,6.992567144954322,9.950248125128502,3.938793092275772,71.61699999996927
312827.9617,5.579183408726802,9.479223338201939,10.227591591677788,5.332259302861362,71.61799999995856
312827.9627,4.301301499728375,11.837586027607182,10.433762411905583,6.726198880975666,71.61899999994785
312827.9637,3.079157577784544,14.033851526007261,10.576669492014377,8.098728348399366,71.61999999999534
312827.9647,1.958741997827534,16.029708577293665,10.654960439381703,9.417984024853892,71.62099999998463
312827.9657,0.9735212999267742,17.78485759843612,10.660222727210305,10.645013675857118,71.62199999997392
312827.9667,0.14595492225140244,19.26019438003919,10.580134659442137,11.737592139105057,71.62299999996321
312827.9677,-0.510095797849947,20.421330130294265,10.402172120473596,12.654564333262345,71.6239999999525
312827.9687,-0.9864645275126948,21.2420768800675,10.117419333626238,13.360264560848904,71.625
312827.9697,-1.2777140531543927,21.70752233974093,9.724021662808171,13.82855209571945,71.62599999998929
312827.9707,-1.3785240245885542,21.816351982557947,9.229856793365231,14.046040488018768,71.62699999997858
312827.9717,-1.2817883033314197,21.582145203511608,8.65408343503351,14.014177984862872,71.62799999996787
312827.9727,-0.9776790556159232,21.033470065277868,8.02734551108241,13.749950868090435,71.62899999995716
312827.9737,-0.45380861103481795,20.21271768300861,7.3905524892192735,13.285118833634936,71.62999999994645
312827.9747,0.303519425217851,19.17374106657032,6.792308495500823,12.664037985302178,71.63099999999395
312827.9757,1.3071160799339805,17.978481805741517,6.285208591863742,11.940267898791898,71.63199999998324
312827.9767,2.5660372847509287,16.69286939849122,5.92134515403273,11.172280416269148,71.63299999997253
312827.9777,4.0823971370726015,15.382352012122176,5.747457836549914,10.418677235480448,71.63399999996182
312827.9787,5.848274315195806,14.107456480423224,5.800207746613719,9.733372044461047,71.6349999999511
312827.9797,7.843127874222663,12.919775317793725,6.1020551313237545,9.16119610734307,71.6359999999986
312827.9807,10.032098260602089,11.858739327503748,6.658169966659376,8.734343594410511,71.63699999998789
312827.9817,12.365486462668903,10.949459790149174,7.454711088638129,8.469988938899878,71.63799999997718
312827.9827,14.77958716391166,10.201821603829842,8.458681138158186,8.36929162322918,71.63899999996647
312827.9837,17.198912611625587,9.610888310379979,9.619414333013754,8.417865876724445,71.63999999995576
312827.9847,19.539697076980666,9.158553698195904,10.871596907878283,8.587647739202495,71.64099999994505
312827.9857,21.714432600269287,8.816255245262129,12.139571684784821,8.83995444251513,71.64199999999255
312827.9867,23.637069864731163,8.548464013866404,13.342553512654842,9.129414939361721,71.64299999998184
312827.9877,25.228436029333455,8.316593814822246,14.400293755660618,9.408367341441446,71.64399999997113
312827.9887,26.42138321253975,8.082936710555344,15.238688515495316,9.631277335768337,71.64499999996042
312827.9897,27.16519167773204,7.814235781444621,15.794831230329182,9.75873544884644,71.64599999994971
312827.9907,27.428810333269976,7.484549102375778,16.021065138435446,9.76063982929085,71.6469999999972
312827.9917,27.202618715044544,7.077136674415998,15.887689366010447,9.61825996310205,71.6479999999865
312827.9927,26.498529535050743,6.585206720101273,15.384104289234564,9.324996314508951,71.64899999997579
312827.9937,25.34840605074213,6.011478647475928,14.518334162993998,8.885789063227946,71.64999999996508
312827.9947,23.800928659981924,5.366644832701394,13.315022598340198,8.315271759608917,71.65099999995437
312827.9957,21.917194332821854,4.666929463637236,11.812143590295818,7.634898252577064,71.65200000000186
312827.9967,19.765455782466628,3.931038191380147,10.05679279036062,6.869380081167566,71.65299999999115
312827.9977,17.415492139629816,3.1768574738979574,8.10050845318567,6.042845458150878,71.65399999998044
312827.9987,14.933140536773028,2.4182905282338125,5.994610569846886,5.175162323203505,71.65499999996973
312827.9997,12.375504263023453,1.6626047203559073,3.786036308549971,4.278853300723876,71.65599999995902
312828.0007,9.787288910498315,0.9086140300209719,1.5140911459710138,3.3569709977590074,71.65699999994831
312828.0017,7.198609092000926,0.1459348834877413,-0.7915660462031509,2.4022036768973503,71.65799999999581
312828.0027,4.6244652042259915,-0.6445574487528289,-3.1115189879527,1.3973536512262121,71.6589999999851
312828.0037,2.0659261183541195,-1.4890705149143484,-5.435738113108636,0.3171864867564247,71.65999999997439
312828.0047,-0.4871145184139505,-2.4181610222405574,-7.761395337574936,-0.868497281561735,71.66099999996368
312828.0057,-3.0518970609375056,-3.463169775672976,-10.089615148070132,-2.190849941861158,71.66199999995297
312828.0067,-5.647887594359828,-4.652163871626191,-12.421544053530877,-3.6774133856799773,71.66300000000047
312828.0077,-8.29150967076712,-6.00578723878575,-14.754198131493201,-5.347464435146842,71.66399999998976
312828.0087,-10.991063346522896,-7.53344413763324,-17.076579351673523,-7.2077534815907525,71.66499999997905
312828.0097,-13.742365861330189,-9.23022200360508,-19.366532137934797,-9.24909842234547,71.66599999996834
312828.0107,-16.525583097286837,-11.074901295776433,-21.5887437973235,-11.44422672384375,71.66699999995762
312828.0117,-19.303609531846643,-13.029306025868829,-23.694182415590472,-13.747149088929655,71.66799999994691
312828.0127,-22.02220731315432,-15.039128115781185,-25.621124245850133,-16.094208861511888,71.66899999999441
312828.0137,-24.611946420748907,-17.036223050435968,-27.297763353912142,-18.406795191479688,71.6699999999837
312828.0147,-26.991813874366535,-18.942236406252682,-28.64623502443888,-20.595550091883425,71.67099999997299
312828.0157,-29.07419745596268,-20.673294006884976,-29.58773716687141,-22.565755134045386,71.67199999996228
312828.0167,-30.770814209351272,-22.14538497561667,-30.04831539827502,-24.223466739430954,71.67299999995157
312828.0177,-31.99905928873964,-23.27999693445412,-29.964799595590698,-25.48189136259724,71.67399999999907
312828.0187,-32.68820587376138,-24.00953299577636,-29.29035055264622,-26.267461130848506,71.67499999998836
312828.0197,-32.78489638365196,-24.282054102558043,-27.999098270272025,-26.525090036680048,71.67599999997765
312828.0207,-32.25742837304089,-24.0649466257475,-26.089426603028045,-26.222159054930938,71.67699999996694
312828.0217,-31.09844932862345,-23.347208765113766,-23.58557581693293,-25.350889349824843,71.67799999995623
312828.0227,-29.325822504985112,-22.140171463111862,-20.537384125824815,-23.92890568829503,71.67899999994552
312828.0237,-26.981596690438465,-20.4766087029284,-17.018157278728236,-21.997953781986862,71.67999999999302
312828.0247,-24.12918986017742,-18.408335034445997,-13.120825704324258,-19.62090019240386,71.6809999999823
312828.0257,-20.849062864570957,-16.00252138030424,-8.952705197737574,-16.877295940799424,71.6819999999716
312828.0267,-17.233298429839614,-13.337070970328423,-4.629304541418392,-13.857910517599485,71.68299999996088
312828.0277,-13.379599221934564,-10.495475143598606,-0.2677094042109529,-10.658729615270936,71.68399999995017
312828.0287,-9.385266879772507,-7.561606428660187,4.01989207152577,-7.374949393477327,71.68499999999767
312828.0297,-5.341716996572064,-4.614900343622874,8.131994050438735,-4.095488765941623,71.68599999998696
312828.0307,-1.3300236434245403,-1.72632856277016,11.982389682108538,-0.898480343067195,71.68699999997625
312828.0317,2.5821228302393124,1.044520550128246,15.50325611638367,2.1519036411255597,71.68799999996554
312828.0327,6.341808539591766,3.651053882027869,18.64649363007594,5.007071524260581,71.68899999995483
312828.0337,9.910573881168105,6.059911361203299,21.383273990759452,7.634016649256799,71.69000000000233
312828.0347,13.262487932102742,8.249900994187469,23.70192614012376,10.013805270169103,71.69099999999162
312828.0357,16.38089660934159,10.209831415658272,25.604447014906217,12.13879652843455,71.69199999998091
312828.0367,19.254259592791605,11.9355492377948,27.102056244876284,14.008966016452641,71.6929999999702
312828.0377,21.871587153563787,13.426563140493357,28.210302750298684,15.627788848199563,71.69399999995949
312828.0387,24.21803269799982,14.682671652718751,28.944270120627742,16.998175793320833,71.69499999994878
312828.0397,26.271185312578574,15.70100361531495,29.314412222296248,18.11894329207474,71.69599999999627
312828.0407,27.998539679058105,16.473830350726338,29.323482194210165,18.98223644210553,71.69699999998556
312828.0417,29.35650469163301,16.98742174420757,28.96490345701524,19.572219579848266,71.69799999997485
312828.0427,30.291158067690287,17.222103576444816,28.222781727819704,19.865212346158927,71.69899999996414
312828.0437,30.740777078946802,17.153542127488517,27.073586876350475,19.831293789959226,71.69999999995343
312828.0447,30.63999241806626,16.755147501019938,25.48935937631203,19.437238615966063,71.70100000000093
312828.0457,29.925240957499074,16.001362803444984,23.44213509048863,18.650503911120882,71.70199999999022
312828.0467,28.541050448184475,14.871504730797112,20.90914992576404,17.44386612490405,71.70299999997951
312828.0477,26.44658903112931,13.353752493739444,17.878295486601164,15.800228598760805,71.7039999999688
312828.0487,23.621864737268027,11.448853332695414,14.353257218629665,13.717087593218077,71.70499999995809
312828.0497,20.07296989596338,9.17312722049646,10.357781786130845,11.210163020275418,71.70599999994738
312828.0507,15.835832094092408,6.560409606837768,5.938589443440896,8.315767521463274,71.70699999999488
312828.0517,10.97805118899693,3.6626640413223384,1.1665636846256178,5.091597949323279,71.70799999998417
312828.0527,5.598560234888714,0.5491174633315327,-3.8639963035502665,1.6157763621124035,71.70899999997346
312828.0537,-0.1749674107586119,-2.696091621330171,-9.038099210631554,-2.0158701949475626,71.70999999996275
312828.0547,-6.19084896302488,-5.977621071382453,-14.22461843349659,-5.694135985890643,71.71099999995204
312828.0557,-12.27996024177653,-9.193727518148107,-19.282368975177828,-9.302060099442151,71.71199999999953
312828.0567,-18.26368058123,-12.241793771792956,-24.067248020595606,-12.721411505938297,71.71299999998882
312828.0577,-23.962634993319224,-15.024137183687447,-28.439880404002743,-15.839512339713115,71.71399999997811
312828.0587,-29.20558556555259,-17.45362103583388,-32.273158346298146,-18.555836251032535,71.7149999999674
312828.0597,-33.837812726318646,-19.45860136894104,-35.45906857692533,-20.787830750863478,71.7159999999567
312828.0607,-37.72837351023404,-20.986795583262293,-37.914259057153274,-22.47547568225992,71.71699999994598
312828.0617,-40.77572374211629,-22.007751848011463,-39.58390656969728,-23.584198650493416,71.71799999999348
312828.0627,-42.91133465448909,-22.513721314098248,-40.44359530935387,-24.105912446979406,71.71899999998277
312828.0637,-44.101108377584595,-22.51887689549177,-40.499091425702304,-24.058105818439206,71.71999999997206
312828.0647,-44.34458478833221,-22.056969676567185,-39.78408291887831,-23.48109182502323,71.72099999996135
312828.0657,-43.672116988734345,-21.177652942445754,-38.35613116636137,-22.433681287160066,71.72199999995064
312828.0667,-42.140357280442764,-19.94182128210184,-36.29123319263647,-20.987687096648255,71.72299999999814
312828.0677,-39.826525046878274,-18.416397044004658,-33.677508411555706,-19.221765453261558,71.72399999998743
312828.0687,-36.82201103634794,-16.669040568737405,-30.608589439936466,-17.21515295742442,71.72499999997672
312828.0697,-33.2259022619895,-14.763259879262275,-27.177307803890123,-15.04185900971598,71.725999999966
312828.0707,-29.13898633621512,-12.754349953633916,-23.470221233639244,-12.76582118331066,71.7269999999553
312828.0717,-24.658717042518965,-10.686505703797154,-19.563434321671416,-10.437432173717603,71.72799999994459
312828.0727,-19.875502706516063,-8.591334592506458,-15.520027975078618,-8.091710130002959,71.72899999999208
312828.0737,-14.870527891664656,-6.487855801402709,-11.38924861825255,-5.748222774162735,71.72999999998137
312828.0747,-9.715152353612492,-4.383926403349932,-7.207431435218065,-3.412705205671073,71.73099999997066
312828.0757,-4.471765595909383,-2.2788952149044306,-3.0004601366460406,-1.0801480081523722,71.73199999995995
312828.0767,0.8041729628842078,-0.16716540710378022,1.2125846729918766,1.2610081506786492,71.73299999994924
312828.0777,6.061294887944957,1.9577409044684924,5.4150510498325515,3.6240394053067337,71.73399999999674
312828.0787,11.24914528049649,4.099070487564575,9.588145579421592,6.018993076531677,71.73499999998603
312828.0797,16.315151891818203,6.253136412044684,13.70671274136797,8.448162047153149,71.73599999997532
312828.0807,21.202198582894233,8.406439914421512,17.735869471240004,10.90246613759856,71.73699999996461
312828.0817,25.847185606522363,10.533948286563673,21.628910967918777,13.359134650918136,71.7379999999539
312828.0827,30.18084373672818,12.598744260988875,25.326772942966652,15.780953258071884,71.7390000000014
312828.0837,34.12892568210887,14.553124767716247,28.759176431363237,18.117182112475028,71.73999999999069
312828.0847,37.61474127873545,16.341081293887495,31.847409676684855,20.306085816828354,71.74099999997998
312828.0857,40.56284875152354,17.901954626986115,34.50853434290137,22.278855840581926,71.74199999996927
312828.0867,42.903578646914355,19.174937143703392,36.6606567774312,23.964567763594157,71.74299999995856
312828.0877,44.57796378095332,20.10400771467445,38.22879354022596,25.29571267040709,71.74399999994785
312828.0887,45.54258834712467,20.64283633008376,39.15079469542444,26.213784009082975,71.74499999999534
312828.0897,45.7738584755027,20.75919236893928,39.382774646767444,26.674393665744642,71.74599999998463
312828.0907,45.27123634153425,20.43843229357326,38.90353964355436,26.651434320981956,71.74699999997392
312828.0917,44.05906659869417,19.685725294250265,37.71758932621009,26.139894784383927,71.74799999996321
312828.0927,42.18674895059502,18.526790891102703,35.85639788944612,25.15706187629187,71.7489999999525
312828.0937,39.72716173353125,17.007059409036874,33.377835851395865,23.741993890464872,71.75
312828.0947,36.77340350192312,15.189311228328197,30.36376073365264,21.953311778792514,71.75099999998929
312828.0957,33.43407675823512,13.149989724917322,26.915967896370304,19.865509200364645,71.75199999997858
312828.0967,29.827474623857988,10.97450247600477,23.150835683928854,17.56411648495858,71.75299999996787
312828.0977,26.07513394918218,8.751914234193405,19.193108439816694,15.140153620463863,71.75399999995716
312828.0987,22.295277045332142,6.569485074984027,15.16932683688187,12.684364296405889,71.75499999994645
312828.0997,18.59667320395789,4.5075135867787175,11.201431748538454,10.281731878093195,71.75599999999395
312828.1007,15.073409700124882,2.634907870340072,7.401034873672746,8.00673879025505,71.75699999998324
312828.1017,11.800974273803888,1.0058305744408222,3.864770747435894,5.919747746941488,71.75799999997253
312828.1027,8.833925926288757,-0.34234384008161667,0.6710292685890615,4.0647654118263405,71.75899999996182
312828.1037,6.205280670005809,-1.3896500002503203,-2.1217723993108613,2.468708571099555,71.7599999999511
312828.1047,3.927578460302411,-2.1327573702192812,-4.475370345903608,1.1421439985555466,71.7609999999986
312828.1057,1.9954426699432075,-2.5829580777140175,-6.370424494665157,0.08133079444023761,71.76199999998789
312828.1067,0.38930926050106074,-2.763186091232153,-7.80414350464741,-0.7287278333262639,71.76299999997718
312828.1077,-0.9200977465873947,-2.7044197859238763,-8.787123366741532,-1.31060573390032,71.76399999996647
312828.1087,-1.9670251975386401,-2.441865641830204,-9.339813785553492,-1.6905787070287464,71.76499999995576
312828.1097,-2.7861736162104864,-2.0113254393782865,-9.489036075686112,-1.8949870120052217,71.76599999994505
312828.1107,-3.4088532180057336,-1.446112950249559,-9.264940810764188,-1.9472274406033938,71.76699999999255
312828.1117,-3.860177763522842,-0.774812951842188,-8.69871738777011,-1.865684694325588,71.76799999998184
312828.1127,-4.157540511049501,-0.020073259912475938,-7.821259645368102,-1.662798127546727,71.76899999997113
312828.1137,-4.310472816918477,0.8014999196317912,-6.662863537617674,-1.3453267069364658,71.76999999996042
312828.1147,-4.3218335471267615,1.6783991734160353,-5.253898439760199,-0.915736175701219,71.77099999994971
312828.1157,-4.1901319088916775,2.602400317625768,-3.6262673706688155,-0.37450233869006294,71.7719999999972
312828.1167,-3.9126624053176853,3.5661480874468183,-1.8153668191325874,0.27698334251452306,71.7729999999865
312828.1177,-3.4890410172925996,4.560486446149676,0.13781470427066275,1.033293722500979,71.77399999997579
312828.1187,-2.9246856549004416,5.571909036084772,2.1848508376662847,1.8820518671540756,71.77499999996508
312828.1197,-2.2337862679406686,6.580496688411263,4.268661511535912,2.801630373673577,71.77599999995437
312828.1207,-1.4413607690302037,7.558660128108826,6.323246181435133,3.759814294441112,71.77700000000186
312828.1217,-0.5840872204358063,8.47092173797473,8.27458857678288,4.713681440053194,71.77799999999115
312828.1227,0.2902687457420609,9.274858815518154,10.042829590320977,5.6108277742009385,71.77899999998044
312828.1237,1.124862404579057,9.92320334918959,11.545662609236386,6.391922428502071,71.77999999996973
312828.1247,1.8570892673766966,10.366962879904653,12.70276126134891,6.994430982900593,71.78099999995902
312828.1257,2.422943644055881,10.559306891198785,13.440918228843966,7.3572119621724745,71.78199999994831
312828.1267,2.7620229206819187,10.459865909617948,13.69946947482829,7.425583856552695,71.78299999999581
312828.1277,2.8226995675451048,10.039026494935722,13.435512522528816,7.156389839092359,71.7839999999851
312828.1287,2.5669450220722196,9.281781778255915,12.628408299223494,6.522562607018109,71.78499999997439
312828.1297,1.9743029454318786,8.190717461045095,11.283087020530765,5.516715914238819,71.78599999996368
312828.1307,1.0445735385793424,6.787776225394664,9.431758276013149,4.153361104355193,71.78699999995297
312828.1317,-0.2011197968070218,5.114544092829175,7.133747686248962,2.469460312320059,71.78800000000047
312828.1327,-1.7210651111305841,3.2309314007030383,4.473336736929185,0.5231728243262023,71.78899999998976
312828.1337,-3.4555145802226535,1.2122668002591672,1.5556548151221257,-1.6091860080472198,71.78999999997905
312828.1347,-5.330898932854696,-0.8550287306853628,-1.4991528171193527,-3.8377882478037133,71.79099999996834
312828.1357,-7.265385037920006,-2.8788836683323886,-4.563096814789261,-6.065201618207282,71.79199999995762
312828.1367,-9.175322222249148,-4.767716878908984,-7.508340004413931,-8.19310018107649,71.79299999994691
312828.1377,-10.982027038036195,-6.436784561196963,-10.215414231055316,-10.129230600664824,71.79399999999441
312828.1387,-12.618310134789184,-7.814207366246847,-12.581016896717529,-11.79405145400194,71.7949999999837
312828.1397,-14.034157759331588,-8.846166829559785,-14.524765190742665,-13.12648025525864,71.79599999997299
312828.1407,-15.20104415910017,-9.500822185460184,-15.994360077192562,-14.088252056268315,71.79699999996228
312828.1417,-16.114464518260895,-9.770602394287645,-16.96873541540952,-14.666508813320695,71.79799999995157
312828.1427,-16.79443096781967,-9.672664641828165,-17.458929598927686,-14.874389894870957,71.79899999999907
312828.1437,-17.283852797022863,-9.24746733654938,-17.50660357962077,-14.749567397259964,71.79999999998836
312828.1447,-17.64490983387967,-8.555568385882886,-17.18032350930999,-14.350849406333088,71.80099999997765
312828.1457,-17.95370765162646,-7.672913269146367,-16.56991106997278,-13.75314338946126,71.80199999996694
312828.1467,-18.293658057369395,-6.685007899530093,-15.779323272995214,-13.041214830081497,71.80299999995623
312828.1477,-18.748143756607764,-5.680466366631709,-14.918641848425777,-12.302779738902888,71.80399999994552
312828.1487,-19.393091343077394,-4.744474550465114,-14.09581977910162,-11.621524188731282,71.80499999999302
312828.1497,-20.29008571118249,-3.952712614237065,-13.408843214254626,-11.0706445269662,71.8059999999823
312828.1507,-21.4806107882979,-3.3662324271892152,-12.938920310383288,-10.70744851457086,71.8069999999716
312828.1517,-22.981900668041426,-3.0276945576959404,-12.745209164842814,-10.569455498945423,71.80799999996088
312828.1527,-24.78474126461001,-2.9592423033523847,-12.86145443086177,-10.672292612960884,71.80899999995017
312828.1537,-26.853389005926907,-3.162139324327736,-13.294729851404439,-11.009517313153204,71.80999999999767
312828.1547,-29.127586079747655,-3.6181370428261843,-14.026297880905693,-11.5543200946834,71.81099999998696
312828.1557,-31.526468761568527,-4.292383115175254,-15.014414946160146,-12.26289156134366,71.81199999997625
312828.1567,-33.954003318220586,-5.137547410951246,-16.198748382725125,-13.079091050679141,71.81299999996554
312828.1577,-36.305457726505935,-6.098739493694941,-17.505943239850982,-13.93994332066651,71.81399999995483
312828.1587,-38.474338295028886,-7.118730868780773,-18.855795101251882,-14.781425446125038,71.81500000000233
312828.1597,-40.35919498486293,-8.14298148381074,-20.16745548350269,-15.543993604522417,71.81599999999162
312828.1607,-41.86972936484515,-9.124003853786936,-21.365120861571242,-16.177339403708267,71.81699999998091
312828.1617,-42.93172099271938,-10.024675894200621,-22.382731398616105,-16.643953345491436,71.8179999999702
312828.1627,-43.49041297733045,-10.820227073723649,-23.16732274307615,-16.9211998944736,71.81899999995949
312828.1637,-43.512152925500935,-11.49876047246038,-23.680821621675527,-17.00176173601084,71.81999999994878
312828.1647,-42.98425602290665,-12.060322132510095,-23.900238545270533,-16.89247505398094,71.82099999999627
312828.1657,-41.913226003076396,-12.514674177690924,-23.816372684654244,-16.611736995174248,71.82199999998556
312828.1667,-40.32162095472674,-12.878055513926068,-23.431289147306078,-16.185805490031395,71.82299999997485
312828.1677,-38.243969979285495,-13.16931130336364,-22.754943643430998,-15.644416954487056,71.82399999996414
312828.1687,-35.72222262400029,-13.405830651306411,-21.801403206098932,-15.016209172758861,71.82499999995343
312828.1697,-32.801239116098195,-13.599745757231641,-20.585137741578666,-14.324449246079215,71.82600000000093
312828.1707,-29.524803997181845,-13.754814232990112,-19.11783400527557,-13.58352911510068,71.82699999999022
312828.1717,-25.932572160765652,-13.864332887872795,-17.406114265442366,-12.796607932216213,71.82799999997951
312828.1727,-22.05824257690038,-13.910323587530923,-15.450434070917316,-11.954660032294646,71.8289999999688
312828.1737,-17.929113052117536,-13.8641006740377,-13.245298521326328,-11.037041572730969,71.82999999995809
312828.1747,-13.567013783254943,-13.68818796488848,-10.780788139085963,-10.013532614690018,71.83099999994738
312828.1757,-8.990463989028504,-13.339415529662322,-8.04523891567771,-8.847659974795071,71.83199999999488
312828.1767,-4.217759962236556,-12.772905822495497,-5.028791080602703,-7.500974499067675,71.83299999998417
312828.1777,0.7294019623588588,-11.946567099031721,-1.7274205881312799,-5.937857383032392,71.83399999997346
312828.1787,5.822227399253451,-10.8256582232459,1.8529938145419185,-4.1303733934634295,71.83499999996275
312828.1797,11.021526413523437,-9.386978061098896,5.693030798585142,-2.0626797508579644,71.83599999995204
312828.1807,16.27525859978179,-7.6222655124615635,9.756945656641584,0.2654612837294184,71.83699999999953
312828.1817,21.5172835594409,-5.540469403478024,13.991105349934145,2.8364344452786288,71.83799999998882
312828.1827,26.667562484016287,-3.1686535754078995,18.32388512279587,5.614036838959256,71.83899999997811
312828.1837,31.633913175033786,-0.5514310151553742,22.66713597607951,8.544361603055641,71.8399999999674
312828.1847,36.315265344997336,2.251040887153368,26.919183945878252,11.55825103137728,71.8409999999567
312828.1857,40.60621076557543,5.166337419529378,30.969176366679257,14.575121556966032,71.84199999994598
312828.1867,44.40250873942204,8.11403182479556,34.70246127871836,17.50783369062109,71.84299999999348
312828.1877,47.60710465731624,11.01057515454984,38.006586338338224,20.268182617608566,71.84399999998277
312828.1887,50.13615817570024,13.774364192978435,40.77744257368387,22.772528942445874,71.84499999997206
312828.1897,51.92456387399338,16.33055943470537,42.925061843311845,24.947079207750978,71.84599999996135
312828.1907,52.930482557626874,18.615245673126413,44.378606292335576,26.732362905054362,71.84699999995064
312828.1917,53.13848233222141,20.57859697452918,45.09016038038629,28.086532751987548,71.84799999999814
312828.1927,52.5610074312143,22.18680848004395,45.037043951897665,28.987229862586275,71.84899999998743
312828.1937,51.238038117291296,23.422679364859476,44.22249768315009,29.431893565985526,71.84999999997672
312828.1947,49.23496284132494,24.28486216504102,42.67473705484566,29.436543313986217,71.850999999966
312828.1957,46.638839102642734,24.7859205483563,40.4445136604539,29.033202801276026,71.8519999999553
312828.1967,43.55335728917454,24.949447955659718,37.60144936629968,28.26626014323072,71.85299999994459
312828.1977,40.09292911599113,24.80658261169911,34.2295074429968,27.188150726237648,71.85399999999208
312828.1987,36.376389081826254,24.392302230998837,30.422025993341187,25.854802321116594,71.85499999998137
312828.1997,32.520817580557754,23.741889927554425,26.27675727791872,24.32129039497649,71.85599999997066
312828.2007,28.635966473172488,22.887930967986073,21.891330664226597,22.638114904478666,71.85699999995995
312828.2017,24.81969528999533,21.858131692514874,17.359490103755277,20.848432328687263,71.85799999994924
312828.2027,21.154716414285154,20.67415441486044,12.76835658780267,18.9864664947343,71.85899999999674
312828.2037,17.70681183211065,19.351545559974806,8.196842638822629,17.07719029909429,71.85999999998603
312828.2047,14.524536051616305,17.900710759631355,3.7152125616193503,15.137231263614648,71.86099999997532
312828.2057,11.640274462952629,16.328772842134214,-0.6143470850967262,13.176821266961449,71.86199999996461
312828.2067,9.072398252839356,14.642048784086843,-4.7363939313847006,11.202498358083753,71.8629999999539
312828.2077,6.828158746069126,12.848810103168402,-8.600462403574355,9.220187849511275,71.8640000000014
312828.2087,4.906905409055793,10.961955388981448,-12.159235578142424,7.238249267031257,71.86499999999069
312828.2097,3.303198384277399,9.001227623282725,-15.367030032756723,5.270079515660798,71.86599999997998
312828.2107,2.0094193992019123,6.994652552216608,-18.178924543758534,3.335910633622759,71.86699999996927
312828.2117,1.0175605635048615,4.97895354059037,-20.550781157782694,1.463528073316273,71.86799999995856
312828.2127,0.3199809235725358,2.9988053246107773,-22.440293764009677,-0.31224615414182993,71.86899999994785
312828.2137,-0.09094590397197123,1.1049132608048609,-23.80906654126668,-1.9513238330786062,71.86999999999534
312828.2147,-0.22422716235782886,-0.648966425270389,-24.625586510064604,-3.411250507545865,71.87099999998463
312828.2157,-0.09248701603365037,-2.2098293431917,-24.868825673366537,-4.650978564767873,71.87199999997392
312828.2167,0.28527524027634277,-3.5297127707482603,-24.532102998251382,-5.635147780871407,71.87299999996321
312828.2177,0.880806224246246,-4.570068267395456,-23.626766762639953,-6.338433537698196,71.8739999999525
312828.2187,1.6540405664939084,-5.305782955817592,-22.185232169504964,-6.749492045689122,71.875
312828.2197,2.55129861117193,-5.728428119964373,-20.262931899390452,-6.874048309209444,71.87599999998929
312828.2207,3.50461893791044,-5.848368665686833,-17.938807887762145,-6.736735610493938,71.87699999997858
312828.2217,4.43250603163848,-5.695459487124567,-15.314085679640744,-6.38139969701502,71.87799999996787
312828.2227,5.242239921780667,-5.318176597572804,-12.509218440003396,-5.869717207104871,71.87899999995716
312828.2237,5.833739105050781,-4.7811707717356615,-9.65905280899217,-5.278133462079448,71.87999999994645
312828.2247,6.104805603915241,-4.161376268764625,-6.906437790664355,-4.693284835363377,71.88099999999395
312828.2257,5.957427625214334,-3.5429431957745656,-4.394654535449601,-4.206220092090973,71.88199999998324
312828.2267,5.304686414534256,-3.0113761668269743,-2.2591738600922313,-3.905858847591284,71.88299999997253
312828.2277,4.0777228871456535,-2.647343022957932,-0.6193366471660184,-3.872211367222611,71.88399999996182
312828.2287,2.2321763534186694,-2.5206574704441875,0.429409476394899,-4.169923547825883,71.8849999999511
312828.2297,-0.2464823972609633,-2.684934377677846,0.8221003488745968,-4.842699653565563,71.8859999999986
312828.2307,-3.3392377955727657,-3.1733662201747936,0.5291266460600599,-5.909093594743797,71.88699999998789
312828.2317,-6.991837544898505,-3.995978124436445,-0.4410390202749075,-7.360052393207469,71.88799999997718
312828.2327,-11.11537143261272,-5.138595347635665,-2.0415252081504476,-9.158452443699353,71.88899999996647
312828.2337,-15.589191778459844,-6.563612143046467,-4.189235823809073,-11.240703155918865,71.88999999995576
312828.2347,-20.266057360929334,-8.212498114137503,-6.769401722861755,-13.520318654332087,71.89099999994505
312828.2357,-24.97920009002725,-10.0098314070757,-9.642209158585956,-15.893192304092643,71.89199999999255
312828.2367,-29.550854084128133,-11.868520883905491,-12.651041586371099,-18.244166070348893,71.89299999998184
312828.2377,-33.801664615275506,-13.695783323993183,-15.631746692365695,-20.45438008150921,71.89399999997113
312828.2387,-37.560320657941084,-15.399385303298288,-18.422264940331576,-22.408826831492195,71.89499999996042
312828.2397,-40.67273610761499,-16.893647492840042,-20.871935753904253,-24.003524498772165,71.89599999994971
312828.2407,-43.01014266156891,-18.104742263721867,-22.84983397252293,-25.151765374326335,71.8969999999972
312828.2417,-44.47554821856412,-18.97488999441082,-24.251578616970935,-25.788984062174514,71.8979999999865
312828.2427,-45.00814997997852,-19.465167783025844,-25.00418972186738,-25.875917261496877,71.89899999997579
312828.2437,-44.5854587502267,-19.55677569447124,-25.06873458593771,-25.399880360371245,71.89999999996508
312828.2447,-43.22307497480396,-19.250747478597585,-24.440687099273426,-24.374151242608583,71.90099999995437
312828.2457,-40.97224121932182,-18.566231323185566,-23.148106404344247,-22.8356131803539,71.90200000000186
312828.2467,-37.91546371688433,-17.53758859337037,-21.24790788190842,-20.840951560835386,71.90299999999115
312828.2477,-34.16063269559901,-16.210653348336372,-18.820635944399605,-18.461810551965637,71.90399999998044
312828.2487,-29.834165959260208,-14.63855423525305,-15.964243075162104,-15.779385911182437,71.90499999996973
312828.2497,-25.07374529986343,-12.877518277673719,-12.787425773780793,-12.878953334023656,71.90599999995902
312828.2507,-20.02120821959685,-10.983052293983903,-9.403063060248858,-9.844806958779463,71.90699999994831
312828.2517,-14.816100531599465,-9.006835487758998,-5.922249317998032,-6.756013467986713,71.90799999999581
312828.2527,-9.590295739614605,-6.994563168600494,-2.449317437291462,-3.6832814830217497,71.9089999999851
312828.2537,-4.463955619136565,-4.984866629328324,0.9218788013064193,-0.6871149116913442,71.90999999997439
312828.2547,0.4570431106110905,-3.009309973645064,4.110298910425094,2.182723820062887,71.91099999996368
312828.2557,5.082243533713672,-1.0933440187702277,7.0486898494284524,4.886554569263571,71.91199999995297
312828.2567,9.336472341919958,0.742007313614894,9.683359185847886,7.393161086338279,71.91300000000047
312828.2577,13.158714584720183,2.478030755663225,11.973016679145168,9.677543831880508,71.91399999998976
312828.2587,16.50035886769666,4.096123686329648,13.88702833309375,11.718429592708608,71.91499999997905
312828.2597,19.32320661126058,5.575860900991807,15.403459193677326,13.495935049447064,71.91599999996834
312828.2607,21.597627262757626,6.893643777819142,16.507268814184275,14.989748646705184,71.91699999995762
312828.2617,23.301186233057766,8.022176826256299,17.188968853097055,16.178121790895748,71.91799999994691
312828.2627,24.417980711887058,8.930917621130687,17.443962597183795,17.037854559245645,71.91899999999441
312828.2637,24.938801073819853,9.587529136994736,17.27267187700765,17.54533412345828,71.9199999999837
312828.2647,24.86210564624186,9.960240785401842,16.68143101454646,17.678549566510945,71.92099999997299
312828.2657,24.19566877657587,10.020909015926215,15.684004477999196,17.419879130146445,71.92199999996228
312828.2667,22.958650773547795,9.748472554766703,14.30347889403701,16.759338963297434,71.92299999995157
312828.2677,21.18375603121814,9.13243173245906,12.57420328604664,15.697907879896883,71.92399999999907
312828.2687,18.919102032871113,8.175953440987623,10.54341308560717,14.25050893583347,71.92499999998836
312828.2697,16.229422450408702,6.898216845998182,8.272178733425767,12.448240092649884,71.92599999997765
312828.2707,13.19627300100018,5.33566966250186,5.835369004811981,10.339502509225836,71.92699999996694
312828.2717,9.916995101752343,3.541955992907552,3.3204082532108115,7.989771116761866,71.92799999995623
312828.2727,6.502311270892814,1.5863960613619688,0.8247268818945831,5.479878947855869,71.92899999994552
312828.2737,3.072565686844671,-0.44896567972144397,-1.5480566641549065,2.9028318007407985,71.92999999999302
312828.2747,-0.2472309959135029,-2.4735878568906595,-3.693040715741961,0.3593187820183343,71.9309999999823
312828.2757,-3.3332567899977836,-4.393649134386852,-5.509717820928097,-2.04777795083942,71.9319999999716
312828.2767,-6.069224573242577,-6.117862703300244,-6.908003442019238,-4.219458453380163,71.93299999996088
312828.2777,-8.352733282948316,-7.563423930005868,-7.814124849185083,-6.066774085962444,71.93399999995017
312828.2787,-10.101105805415047,-8.661596395245658,-8.175855514096156,-7.516569207249712,71.93499999999767
312828.2797,-11.25621248163956,-9.362456789022454,-7.966606746738905,-8.516293400366262,71.93599999998696
312828.2807,-11.787845482904203,-9.638379399815616,-7.187963847390579,-9.037449595488452,71.93699999997625
312828.2817,-11.695319481735982,-9.485941306544857,-5.8703726917618395,-9.077353491319904,71.93799999996554
312828.2827,-11.007118339117275,-8.926060996865155,-4.071834012109278,-8.659022435350238,71.93899999995483
312828.2837,-9.778572712564472,-8.002334060610231,-1.8746328061483921,-7.829174233215379,71.94000000000233
312828.2847,-8.087724084622545,-6.7776859508880944,0.6196966870990314,-6.654483038348452,71.94099999999162
312828.2857,-6.029690505746748,-5.32960904139234,3.2968106934444545,-5.216394787696245,71.94199999998091
312828.2867,-3.709982980241812,-3.7443755658001234,6.036910378820813,-3.604933827408431,71.9429999999702
312828.2877,-1.2373159018123758,-2.110707809952674,8.722433017732785,-1.9120230418581345,71.94399999995949
312828.2887,1.283499086079699,-0.5134336504521064,11.245464578677355,-0.2248831886162416,71.94499999994878
312828.2897,3.7579937498972282,0.9723452696032554,13.514276391523298,1.3799310628124322,71.94599999999627
312828.2907,6.10729672344582,2.2860937699100647,15.458460600084674,2.8413601187622666,71.94699999998556
312828.2917,8.27178606584957,3.385304211967519,17.032259042815326,4.117140046570427,71.94799999997485
312828.2927,10.21287307623621,4.247316845385212,18.2158372718722,5.18532204284804,71.94899999996414
312828.2937,11.912819735365877,4.869386657358409,19.014435282145996,6.043921523257155,71.94999999995343
312828.2947,13.372670933097481,5.267041794247011,19.45551264720413,6.70877848349589,71.95100000000093
312828.2957,14.608553401029994,5.470930852316408,19.584180996153968,7.209873187123562,71.95199999999022
312828.2967,15.646740155763222,5.522488933444057,19.45736497073352,7.586480006730931,71.95299999997951
312828.2977,16.517988674411203,5.468853220842546,19.13724037048527,7.8816445190772555,71.9539999999688
312828.2987,17.251722899041024,5.357518882157599,18.684555340839832,8.136525349887282,71.95499999995809
312828.2997,17.870637889646343,5.231240160419684,18.152442132228078,8.385147752167194,71.95599999994738
312828.3007,18.386260878504483,5.123648711052914,17.581273297712634,8.650070267243443,71.95699999999488
312828.3017,18.79590800322592,5.055985114622279,16.99501249913439,8.939373655494501,71.95799999998417
312828.3027,19.08134108634807,5.0352275916354285,16.399366290305938,9.245251544082382,71.95899999997346
312828.3037,19.209266201838048,5.053765103311798,15.781872953400427,9.544327361078388,71.95999999996275
312828.3047,19.133640679674876,5.090613320591014,15.11388367760532,9.799656846120213,71.96099999995204
312828.3057,18.799584009982834,5.114025463306094,14.354216952610106,9.96421537932148,71.96199999999953
312828.3067,18.148536747898145,5.085219505014241,13.454115149937968,9.985529599742197,71.96299999998882
312828.3077,17.124193994905504,4.962840841289606,12.363016797138018,9.811006335764633,71.96399999997811
312828.3087,15.6786671120702,4.707714615636613,11.034589399595736,9.3934485574976,71.9649999999674
312828.3097,13.778305535151153,4.2874202537213195,9.43245172976105,8.69623355664958,71.9659999999567
312828.3107,11.408641594791328,3.6802439925374184,7.535052158720562,7.697663865239947,71.96699999994598
312828.3117,8.578001787404803,2.878130641450128,5.33925664443713,6.394082795188446,71.96799999999348
312828.3127,5.319450018126512,1.8883567945695052,2.8623275532934875,4.801465790648031,71.96899999998277
312828.3137,1.690880076436223,0.733774177110343,0.14212992925377535,2.955344315259098,71.96999999997206
312828.3147,-2.226758608389601,-0.5483886976041077,-2.7644300632140557,0.9090765675698183,71.97099999996135
312828.3157,-6.332951998384489,-1.9090395027446705,-5.784565286271161,-1.2693663390166494,71.97199999995064
312828.3167,-10.512530075194888,-3.2907978901083332,-8.834051989000768,-3.5017938553950847,71.97299999999814
312828.3177,-14.641575234655873,-4.6322837143547275,-11.822531958660354,-5.704959153035478,71.97399999998743
312828.3187,-18.59383546410563,-5.872704341570978,-14.659177443654011,-7.796017916006621,71.97499999997672
312828.3197,-22.247118365771488,-6.956306198844055,-17.258204662275865,-9.697791533516453,71.975999999966
312828.3207,-25.489163241145622,-7.836277405337029,-19.543753023180713,-11.343374286437555,71.9769999999553
312828.3217,-28.22255664832243,-8.477750590276498,-21.453725017362665,-12.679699361333348,71.97799999994459
312828.3227,-30.36836440375947,-8.859651208683601,-22.94229756351552,-13.669790169909643,71.97899999999208
312828.3237,-31.868288421650615,-8.975256806728556,-23.980957172398604,-14.293559913268087,71.97999999998137
312828.3247,-32.68530594032963,-8.831464415649224,-24.55806397197321,-14.54716961811769,71.98099999997066
312828.3257,-32.80289627033504,-8.446893128998541,-24.677097781494478,-14.4410980109933,71.98199999995995
312828.3267,-32.223091289934324,-7.849063783128441,-24.353868042937567,-13.997201142890313,71.98299999994924
312828.3277,-30.963687481090986,-7.070985967227081,-23.61306564891553,-13.245133177003934,71.98399999999674
312828.3287,-29.05501951223594,-6.147535565514615,-22.48458910298706,-12.218552995549425,71.98499999998603
312828.3297,-26.536712575734818,-5.112018564094011,-21.000084919036933,-10.951549219357105,71.98599999997532
312828.3307,-23.454801931463244,-3.993287980472446,-19.1901024623234,-9.475678474264111,71.98699999996461
312828.3317,-19.859537216328228,-2.813713773700106,-17.082181148845482,-7.817932566722329,71.9879999999539
312828.3327,-15.804084217545736,-1.5882076309012916,-14.700071996656979,-5.999838156639894,71.9890000000014
312828.3337,-11.34420961685497,-0.32438590536853906,-12.064158331318389,-4.03775939131047,71.98999999999069
312828.3347,-6.538898601864874,0.9761729132251097,-9.192996510106104,-1.9443337722229872,71.99099999997998
312828.3357,-1.4517259513339684,2.3157417850510424,-6.105762038017766,0.2691610489883536,71.99199999996927
312828.3367,3.8473077004356946,3.6975997235974907,-2.8252737177166836,2.5898229140329243,71.99299999995856
312828.3377,9.27983927337752,5.122873294782767,0.6188095124819589,4.999914468722562,71.99399999994785
312828.3387,14.757506767849915,6.587450407329546,4.187059210749668,7.473853711011091,71.99499999999534
312828.3397,20.181003553081826,8.079350675648639,7.82804330148083,9.975824084866492,71.99599999998463
312828.3407,25.440159135725168,9.57689480033264,11.477156145803255,12.45836811780333,71.99699999997392
312828.3417,30.41528698284073,11.04793691371781,15.056782089184477,14.86223438569289,71.99799999996321
312828.3427,34.97991372159316,12.450316481993111,18.477930914518875,17.117622699268388,71.9989999999525
312828.3437,39.00485908689592,13.733560904226886,21.64333456185575,19.146829237654668,72.0
312828.3447,42.36348683216582,14.841739046482527,24.4518420617609,20.86814623505086,72.00099999998929
312828.3457,44.937808606317404,15.717242853118272,26.803809191848035,22.20073459629043,72.00199999997858
312828.3467,46.62500983505525,16.305171428187695,28.60706515891706,23.070076345200146,72.00299999996787
312828.3477,47.34389095598284,16.55792014298008,29.782962402503134,23.413538612268805,72.00399999995716
312828.3487,47.040687488417674,16.439543928738505,30.271985528111866,23.185549952375606,72.00499999994645
312828.3497,45.69375254874873,15.929472686538375,30.038415067585152,22.361906838386023,72.00599999999395
312828.3507,43.31665490855276,15.02520724077158,29.07361005246217,20.94279218932151,72.00699999998324
312828.3517,39.959359085686295,13.743711887005214,27.397584357609254,18.95419312706131,72.00799999997253
312828.3527,35.707301483704796,12.121336051297765,25.058695327274382,16.447542090462647,72.00899999996182
312828.3537,30.678345060199725,10.212231715144531,22.131426011291435,13.497561098222858,72.0099999999511
312828.3547,25.0177690443029,8.085372110171821,18.712409140539716,10.198448567287363,72.0109999999986
312828.3557,18.89161375877615,5.820407275830136,14.914995991095982,6.658696419207484,72.01199999998789
312828.3567,12.478838376707477,3.5027007319610983,10.86280177658843,2.9949480114219065,72.01299999997718
312828.3577,5.962848487540316,1.2179681201856738,6.682748852355764,-0.6746071225407668,72.01399999996647
312828.3587,-0.47699876922924495,-0.9530243290818906,2.498171119104401,-4.2367659402253945,72.01499999995576
312828.3597,-6.673306495811745,-2.9392499626081623,-1.5774666462057483,-7.589245960785417,72.01599999994505
312828.3607,-12.477416651124127,-4.683298120784587,-5.445741554861386,-10.645553276455722,72.01699999999255
312828.3617,-17.764608977494184,-6.144021790438188,-9.026950792847211,-13.338418843054153,72.01799999998184
312828.3627,-22.437415996125793,-7.297758701674836,-12.262050509683776,-15.621572774461098,72.01899999997113
312828.3637,-26.426917604363627,-8.138063870857373,-15.112774937552956,-17.469782415396452,72.01999999996042
312828.3647,-29.692056490115906,-8.674032837332092,-17.560026250385807,-18.877241738859418,72.02099999994971
312828.3657,-32.217186606367505,-8.927427842264,-19.600787096592526,-19.854551588265824,72.0219999999972
312828.3667,-34.00821537113373,-8.928931012595235,-21.2439441340849,-20.4246578548437,72.0229999999865
312828.3677,-35.08781225730331,-8.713928317740535,-22.505509101745034,-20.618205575935395,72.02399999997579
312828.3687,-35.490221653006564,-8.31826782864339,-23.403774411093266,-20.46881241709264,72.02499999996508
312828.3697,-35.25623040776886,-7.774431666582457,-23.954937913635185,-20.008760708888413,72.02599999995437
312828.3707,-34.42879947488129,-7.1085132985797825,-24.1696764376313,-19.265553627055144,72.02700000000186
312828.3717,-33.049778797778664,-6.338305102521567,-24.05104504100109,-18.259683512702622,72.02799999999115
312828.3727,-31.15799409423529,-5.472683816796906,-23.59393848980239,-17.003828315107732,72.02899999998044
312828.3737,-28.788836385209766,-4.512345074685232,-22.78618677342496,-15.503538679048184,72.02999999996973
312828.3747,-25.975315573721378,-3.4517961051006947,-21.611183486732944,-13.759318405269152,72.03099999995902
312828.3757,-22.750374847972765,-2.282381893777622,-20.051781537986002,-11.769850671281826,72.03199999994831
312828.3767,-19.150119458964696,-0.9960079407361511,-18.095051047219922,-9.535996428737251,72.03299999999581
312828.3777,-15.217505775628018,0.4108565228060032,-15.737393346255317,-7.065102384873323,72.0339999999851
312828.3787,-11.005975299667456,1.9333492793541092,-12.98945287234806,-4.375112954489524,72.03499999997439
312828.3797,-6.582509887959941,3.5550074090044204,-9.88027097323693,-1.4979880981275282,72.03599999996368
312828.3807,-2.029630012362799,5.245576963331939,-6.460182480345344,1.5180133228613943,72.03699999995297
312828.3817,2.554046561261736,6.96014390403831,-2.802062338325454,4.607522418476108,72.03800000000047
312828.3827,7.0549317276468155,8.63976654033802,0.9993242361888464,7.688921268363099,72.03899999998976
312828.3837,11.34736112506028,10.213646116084188,4.829942370860839,10.666916054997602,72.03999999997905
312828.3847,15.298160129344849,11.60272240505537,8.560971241954228,13.43669579230789,72.04099999996834
312828.3857,18.772614807729802,12.724439589190924,12.054868675327063,15.889393011080891,72.04199999995762
312828.3867,21.6414308917902,13.498308030288014,15.172584012053129,17.918430374259504,72.04299999994691
312828.3877,23.788150358477278,13.851801474842024,17.781374530982422,19.426242449796856,72.04399999999441
312828.3887,25.1164295976099,13.726085258657655,19.762617661879275,20.33081410701574,72.0449999999837
312828.3897,25.55657219036429,13.081073708395717,21.019003163152103,20.571481061570623,72.04599999997299
312828.3907,25.070754604923764,11.89936423493451,21.480537121855217,20.113493831259696,72.04699999996228
312828.3917,23.656480824118923,10.188687184324488,21.10888850471614,18.950948664580736,72.04799999995157
312828.3927,21.34794321296256,7.982635919771838,19.899749640238717,17.107828268798762,72.04899999999907
312828.3937,18.21513877715057,5.339589179856828,17.883051101274315,14.63705824279704,72.04999999998836
312828.3947,14.360776382371975,2.3398937052096946,15.121053002984517,11.617656580632316,72.05099999997765
312828.3957,9.915194123627098,-0.9184751312450984,11.704511660495013,8.150217240856342,72.05199999996694
312828.3967,5.029669756257158,-4.3254273836167565,7.747276353757046,4.351109153266251,72.05299999995623
312828.3977,-0.13136424137580233,-7.7650025857930824,3.379791271867139,0.34587602773947895,72.05399999994552
312828.3987,-5.398607582827863,-11.121842797861104,-1.2579482577740146,-3.7376196296075714,72.05499999999302
312828.3997,-10.606059939567304,-14.287383375362301,-6.023414650713522,-7.775757884577733,72.0559999999823
312828.4007,-15.598476815614584,-17.165286480727747,-10.778003577472209,-11.65492187494642,72.0569999999716
312828.4017,-20.2376019402996,-19.67572128846277,-15.3924692430358,-15.276041671959774,72.05799999996088
312828.4027,-24.406790122064844,-21.758208445581808,-19.751004762078196,-18.557633248480702,72.05899999995017
312828.4037,-28.013791846367816,-23.372883421851277,-23.75378293628624,-21.43719602795692,72.05999999999767
312828.4047,-30.99164453566141,-24.50018056297518,-27.317935130506946,-23.87099335634624,72.06099999998696
312828.4057,-33.297788404024786,-25.139082753314128,-30.37710432336923,-25.832394408031,72.06199999997625
312828.4067,-34.911680578586115,-25.30420696331545,-32.879846935329645,-27.30908846407121,72.06299999996554
312828.4077,-35.83130485989394,-25.022091834127355,-34.7872630242449,-28.29958041486522,72.06399999995483
312828.4087,-36.06905471515359,-24.327111076827297,-36.07029569796644,-28.8094304839182,72.06500000000233
312828.4097,-35.64749682978927,-23.25745091240114,-36.70715243599024,-28.847706701262457,72.06599999999162
312828.4107,-34.595499857434326,-21.851560415429994,-36.68126279577928,-28.424075599424643,72.06699999998091
312828.4117,-32.94514121685619,-20.14541412962629,-35.98010315502024,-27.546869830997373,72.0679999999702
312828.4127,-30.729692066068026,-18.17082429583094,-34.59509879301053,-26.222350124335176,72.06899999995949
312828.4137,-27.982839136156795,-15.954916209044475,-32.52266954028698,-24.455235820381194,72.06999999994878
312828.4147,-24.739146896787187,-13.520747387161286,-29.76633264841371,-22.250427928177853,72.07099999999627
312828.4157,-21.035610768960655,-10.888922944165927,-26.339631570640712,-19.615706624131924,72.07199999998556
312828.4167,-16.914017629540897,-8.079948784607073,-22.269537395731913,-16.565065954506856,72.07299999997485
312828.4177,-12.423727523090477,-5.116982076205667,-17.599883868421404,-13.122264419378663,72.07399999996414
312828.4187,-7.624430811462117,-2.0285930580017073,-12.39435679358758,-9.324129829573913,72.07499999995343
312828.4197,-2.5884240618439565,1.1488519983449266,-6.738569127531387,-5.2231646614409115,72.07600000000093
312828.4207,2.5980130675612347,4.369539693081257,-0.7408140986532351,-0.8890536079088852,72.07699999999022
312828.4217,7.83447277049352,7.577568628529214,5.468804933268428,3.59122709187803,72.07799999997951
312828.4227,13.007716397799253,10.707492613191185,11.741027282893594,8.11486812581524,72.0789999999688
312828.4237,17.994477333252586,13.686098023745467,17.91186586808149,12.566271927585554,72.07999999995809
312828.4247,22.665675159603772,16.435334883208768,23.808641515107418,16.82154592884051,72.08099999994738
312828.4257,26.89179508756494,18.876197068594863,29.25728601942671,20.754159835824254,72.08199999999488
312828.4267,30.549055979115757,20.93324179322367,34.09044553991836,24.241360438520566,72.08299999998417
312828.4277,33.52589406263221,22.539362740985933,38.155821521142606,27.170851918018055,72.08399999997346
312828.4287,35.72923753817602,23.64039267390803,41.3241409982282,29.447209227475355,72.08499999996275
312828.4297,37.09004527816372,24.199114035728215,43.496156794668536,30.9975011359412,72.08599999995204
312828.4307,37.56763140178771,24.198300015030494,44.608140558117036,31.775657413150583,72.08699999999953
312828.4317,37.152392315749296,23.64248962906958,44.635442422207646,31.765216129483637,72.08799999998882
312828.4327,35.86668497451879,22.55831089213983,43.59384032896989,30.980222647549972,72.08899999997811
312828.4337,33.76376202549604,20.993295377082504,41.538576034513355,29.464208777518405,72.0899999999674
312828.4347,30.924836111422003,19.013262937665647,38.561157563693875,27.287343881596247,72.0909999999567
312828.4357,27.454505872574853,16.698483875606513,34.78418262235072,24.54200395949715,72.09199999994598
312828.4367,23.474914704603744,14.138934921602502,30.35458831811023,21.33713534842066,72.09299999999348
312828.4377,19.119116802261154,11.429044473155237,25.43584596565695,17.791884381966362,72.09399999998277
312828.4387,14.52418362347498,8.662363963922656,20.199685909133372,14.029014451646324,72.09499999997206
312828.4397,9.824592228996456,5.926602106415098,14.817950912349234,10.168633049716403,72.09599999996135
312828.4407,5.146394521588877,3.299417219662696,9.455137514993687,6.322703969429161,72.09699999995064
312828.4417,0.6025777355486258,0.8452841636782849,4.262097601654982,2.590729043298056,72.09799999999814
312828.4427,-3.710099357650937,-1.386355563289385,-0.6287534650567921,-0.9431410498131108,72.09899999998743
312828.4437,-7.712660513169108,-3.361578505502971,-5.106527646222662,-4.211453684311804,72.09999999997672
312828.4447,-11.34388234710604,-5.061149136944809,-9.083222222958677,-7.163298827889615,72.100999999966
312828.4457,-14.558860649604501,-6.478550769564866,-12.49347110333516,-9.762835998946017,72.1019999999553
312828.4467,-17.32648460913562,-7.61715923280612,-15.292953461911985,-11.986810714813439,72.10299999994459
312828.4477,-19.62622863754796,-8.486917175735979,-17.455828863795034,-13.821455356148698,72.10399999999208
312828.4487,-21.44472525730367,-9.100905716641897,-18.97163098960657,-15.259214384864798,72.10499999998137
312828.4497,-22.772587176560418,-9.47220813929777,-19.84206779573219,-16.29573195103233,72.10599999997066
312828.4507,-23.601902006450416,-9.611417822225569,-20.07814408563054,-16.92749174811645,72.10699999995995
312828.4517,-23.92473375299576,-9.525064040979512,-19.69794743039508,-17.150409806018082,72.10799999994924
312828.4527,-23.732840380052313,-9.215122757750924,-18.725328801805507,-16.959560136952472,72.10899999999674
312828.4537,-23.018669082342225,-8.679655863240294,-17.18957716265962,-16.350073331520345,72.10999999998603
312828.4547,-21.777535436866373,-7.914494144005639,-15.126046733177335,-15.319103824401102,72.11099999997532
312828.4557,-20.0107451724668,-6.915759572686662,-12.577561588490042,-13.868627575013614,72.11199999996461
312828.4567,-17.729293063168146,-5.6829235968619995,-9.596308775363172,-12.008722294173548,72.1129999999539
312828.4577,-14.957685373281976,-4.222030135058258,-6.245850277713411,-9.760908649451059,72.1140000000014
312828.4587,-11.737389854339948,-2.5486821193838374,-2.6028446222957906,-7.161101099171453,72.11499999999069
312828.4597,-8.12942559181454,-0.6904020225173216,1.2419247424526116,-4.261734772405342,72.11599999997998
312828.4607,-4.215664156655947,1.3119708799096552,5.183564985149194,-1.1326990200219222,72.11699999996927
312828.4617,-0.09851867333109811,3.404095545892305,9.104390685364013,2.1391868564564653,72.11799999995856
312828.4627,4.101160847205002,5.519289834930496,12.876673523644598,5.452284510702246,72.11899999994785
312828.4637,8.248002345681014,7.581038145837144,16.36681063495632,8.693809452468868,72.11999999999534
312828.4647,12.197680007598942,9.506711960559912,19.440745671003334,11.744884991089243,72.12099999998463
312828.4657,15.803814702650639,11.212243725519254,21.970334150133507,14.486652431231867,72.12199999997392
312828.4667,18.92574509482812,12.61739131998812,23.840225866323532,16.806995624787653,72.12299999996321
312828.4677,21.436605909040065,13.65115982452567,24.954754272442315,18.60735939059206,72.1239999999525
312828.4687,23.231096146204155,14.256916620228925,25.24428480959299,19.8091093860958,72.125
312828.4697,24.232320430597348,14.396748410642125,24.67048585965459,20.35889947415949,72.12599999998929
312828.4707,24.397141860191503,14.054663800687216,23.23004737424496,20.23258040117266,72.12699999997858
312828.4717,23.719590318463137,13.23833775127851,20.956478558849255,19.43729492145011,72.12799999996787
312828.4727,22.23201711134745,11.979216103983225,17.919758231830674,18.011549454303236,72.12899999995716
312828.4737,20.00386210066284,10.33093818861068,14.22377713578884,16.023217831722626,72.12999999994645
312828.4747,17.138087683548154,8.366180318317422,10.00168577082405,13.565603620119425,72.13099999999395
312828.4757,13.765518321090543,6.172159288232021,5.40942857781588,10.75184828568112,72.13199999998324
312828.4767,10.037488544490502,3.8451501665748817,0.6178904516673658,7.7081084695997655,72.13299999997253
