TimeStamp,ECR,FCR,ECU,FCU,time_index
312812.3437,-55.69055633561837,-15.926678406817329,1.5780940783586983,-5.671344021832387,56.0
312812.3447,-62.039903815111856,-29.670693526742163,-7.436222543463074,-24.767712833616077,56.00099999998929
312812.3457,-67.65503912680501,-43.330040409052174,-17.157800569820374,-43.89795412361604,56.00199999997858
312812.3467,-72.30031479040673,-56.40142934021445,-27.26302791036398,-62.34855988771549,56.00299999996787
312812.3477,-75.77492169957185,-68.40224200679437,-37.4200707426094,-79.43367949403996,56.00399999995716
312812.3487,-77.91959852783116,-78.88791239638317,-47.30014433791322,-94.52019497566091,56.00499999994645
312812.3497,-78.62142053859735,-87.46750392876095,-56.58841741706561,-107.05011379591436,56.005999999993946
312812.3507,-77.8166111566036,-93.81694306441254,-64.99424502834982,-116.55948314345666,56.006999999983236
312812.3517,-75.49139875989388,-97.68947680385946,-72.26043774554792,-122.69320506393835,56.007999999972526
312812.3527,-71.68100662496025,-98.92303933430895,-78.17128923022348,-125.21532366018347,56.008999999961816
312812.3537,-66.46691595718353,-97.44433747363594,-82.55910331683326,-124.01455549091574,56.009999999951106
312812.3547,-59.972582087453105,-93.26959164655145,-85.30898950910007,-119.1050338171085,56.0109999999986
312812.3557,-52.35781477405429,-86.5019952747077,-86.36173549790087,-110.62242875891495,56.01199999998789
312812.3567,-43.812058009165305,-77.3260771995757,-85.71461937487436,-98.81578185162854,56.01299999997718
312812.3577,-34.546825416898706,-65.99926568800615,-83.42009341445093,-84.03554903864803,56.01399999996647
312812.3587,-24.7875660845642,-52.8410553094966,-79.58235451904069,-66.71847600870778,56.01499999995576
312812.3597,-14.765253171583883,-38.220266118853324,-74.35191053348127,-47.37003027904973,56.01599999994505
312812.3607,-4.7080032293287255,-22.54095473848417,-67.91835159800323,-26.545182937193953,56.01699999999255
312812.3617,5.166954136906191,-6.227585831015108,-60.50163493094529,-4.828367905504894,56.01799999998184
312812.3627,14.660631880513217,10.289902916242491,-52.34228230735949,17.18655261591966,56.01899999997113
312812.3637,23.59864792366796,26.59051129472633,-43.69096409511166,38.91552090097703,56.01999999996042
312812.3647,31.836296263665858,42.27546212010835,-34.79799453455879,59.801984573716894,56.02099999994971
312812.3657,39.26206679714823,56.979820917656355,-25.9032837283521,79.33243132093502,56.021999999997206
312812.3667,45.79941186204296,70.3819964970269,-17.227278204837674,97.04924574541263,56.022999999986496
312812.3677,51.406635710011436,82.21078234527697,-8.96337210750245,112.56052142757217,56.023999999975786
312812.3687,56.07487980961771,92.24973302984283,-1.2721861207124925,125.54662225806517,56.024999999965075
312812.3697,59.824287941314665,100.33881882202256,5.722004711561198,135.7634570925488,56.025999999954365
312812.3707,62.69855409089653,106.37345747225662,11.932553051373853,143.04260236252182,56.02700000000186
312812.3717,64.75817482809227,110.30117506942538,17.309444379525647,147.2885691872369,56.02799999999115
312812.3727,66.07283645164966,112.11628796530348,21.836195801928962,148.47365511479842,56.02899999998044
312812.3737,66.71345542161657,111.85311453143723,25.52496749219633,146.63093646329636,56.02999999996973
312812.3747,66.74444864368412,109.57830950390276,28.410332636710656,141.84603692040108,56.03099999995902
312812.3757,66.21682965909376,105.38295700400307,30.542246305714524,134.2483449761248,56.03199999994831
312812.3767,65.16270185686376,99.37505567819962,31.978807100827265,124.00234285295227,56.03299999999581
312812.3777,63.59164794337166,91.67297871088338,32.77941208013617,111.29965199449049,56.0339999999851
312812.3787,61.48939751270009,82.40039440348392,32.99886345463228,96.35229761095438,56.03499999997439
312812.3797,58.81899731453437,71.68299518394338,32.68289709919126,79.38755370681424,56.03599999996368
312812.3807,55.52452146238656,59.647213674051415,31.865474318721837,60.64456038311249,56.03699999995297
312812.3817,51.537154667958646,46.42091639330996,30.568019538496497,40.372719902333195,56.038000000000466
312812.3827,46.783276567486624,32.13587377326959,28.800610594542928,18.83169196486224,56.038999999989755
312812.3837,41.1939866526845,16.93162555677039,26.564949976988927,-3.707362297680954,56.039999999979045
312812.3847,34.71535447730893,0.9602093724607235,23.85878032378919,-26.95977857563051,56.040999999968335
312812.3857,27.318574259567843,-15.608888275693918,20.681270616953654,-50.625217318854006,56.041999999957625
312812.3867,19.009159108954616,-32.5842537523473,17.038803816297293,-74.38595096951094,56.042999999946915
312812.3877,9.834335671209372,-49.74922891615508,12.950551713142094,-97.90622202748777,56.04399999999441
312812.3887,-0.11210279717588718,-66.8603722631879,8.453233930708873,-120.83320440316261,56.0449999999837
312812.3897,-10.688062028285438,-83.64818566049608,3.6045255915271563,-142.79996521336608,56.04599999997299
312812.3907,-21.70488577219523,-99.82041214020977,-1.5153026552647895,-163.4306428730346,56.04699999996228
312812.3917,-32.93265908908274,-115.06799160874893,-6.803767653042837,-182.34784498039755,56.04799999995157
312812.3927,-44.10888169505786,-129.07352367231638,-12.138646677038597,-199.1820446056688,56.04899999999907
312812.3937,-54.9500344235066,-141.52185053800085,-17.38240816220337,-213.5825366676074,56.04999999998836
312812.3947,-65.1653058767755,-152.11215925884872,-22.388277290117127,-225.22932773378963,56.05099999997765
312812.3957,-74.47154035388013,-160.57083135713665,-27.007449358547426,-233.84519158883134,56.05199999996694
312812.3967,-82.60833205264716,-166.66415587292508,-31.09684275813537,-239.20704436667458,56.05299999995623
312812.3977,-89.35213894261966,-170.20998116329199,-34.52671800810644,-241.15578675974942,56.05399999994552
312812.3987,-94.52833029118626,-171.08741730890893,-37.18748726282784,-239.60383023765104,56.054999999993015
312812.3997,-98.02021444280977,-169.24381399760938,-38.99510164197431,-234.5396658484971,56.055999999982305
312812.4007,-99.77430980203223,-164.6984206084452,-39.89452704045348,-226.02903774602316,56.056999999971595
312812.4017,-99.80140608624394,-157.54237193446204,-39.86099216379732,-214.21253275082663,56.057999999960884
312812.4027,-98.17329235418111,-147.93491537267437,-38.89889978314468,-199.2996709995029,56.058999999950174
312812.4037,-95.01537600672754,-136.0960807242144,-37.03851435327824,-181.5598572019262,56.05999999999767
312812.4047,-90.49575350598279,-122.29626766820682,-34.330755097573764,-161.31080266428748,56.06099999998696
312812.4057,-84.81158984626366,-106.84346479138071,-30.84061251772957,-138.90523207213994,56.06199999997625
312812.4067,-78.1738936123611,-90.06899682789302,-26.6398493055748,-114.71682684882829,56.06299999996554
312812.4077,-70.79191686231141,-72.31280724136417,-21.799729114359714,-89.12641512980687,56.06399999995483
312812.4087,-62.858450445930806,-53.90931143362097,-16.384529379881094,-62.50939046651409,56.06500000000233
312812.4097,-54.53722071760048,-35.17479885089326,-10.446534625697753,-35.225228519562314,56.06599999999162
312812.4107,-45.95342713254567,-16.3972247453637,-4.023078534069708,-7.609782258499326,56.06699999998091
312812.4117,-37.18820510046567,2.170973854692285,2.8639828308798267,20.02921230651664,56.0679999999702
312812.4127,-28.27747577147468,20.316660392062133,10.206211581323503,47.413274245010925,56.06899999995949
312812.4137,-19.21528129879932,37.866287001961226,18.004035493243432,74.29111284568731,56.06999999994878
312812.4147,-9.961331415479773,54.682885257292774,26.260041816939417,100.43379721932531,56.070999999996275
312812.4157,-0.4521366778713981,70.66022316778607,34.97067802591198,125.62784190003975,56.071999999985565
312812.4167,9.385194665786646,85.7148147858373,44.11709527222378,149.66707185565127,56.072999999974854
312812.4177,19.617640313274748,99.77662813894942,53.655982409965304,172.3442337142907,56.073999999964144
312812.4187,30.290697702444916,112.77942057874607,63.51127622639929,193.44333598815462,56.074999999953434
312812.4197,41.4138578784385,124.65163235630591,73.56759259422951,212.7336288430284,56.07600000000093
312812.4207,52.94832409436545,135.30869117586198,83.66610657269598,229.9659809341783,56.07699999999022
312812.4217,64.79799807262553,144.64743174883742,93.60342706040261,244.87219184147799,56.07799999997951
312812.4227,76.8044960395222,152.54313031729222,103.13377958224531,257.16751446722475,56.0789999999688
312812.4237,88.74664073727182,158.84941476227985,111.97454989287664,266.55637709033994,56.07999999995809
312812.4247,100.34453284484022,163.4010589635864,119.81497460399633,272.74101580245764,56.08099999994738
312812.4257,111.26796537165839,166.01942871598337,126.32751666452762,275.4324800170796,56.08199999999488
312812.4267,121.14863614895818,166.5201371886977,131.18125504485673,274.36327854362054,56.08299999998417
312812.4277,129.59536120889467,164.72230836752252,134.05646729346915,269.30080790523226,56.08399999997346
312812.4287,136.2113142738438,160.45874953421915,134.65950307968288,260.0606578561105,56.08499999996275
312812.4297,140.61222588443772,153.58630459362863,132.7370420685973,246.51892342573422,56.08599999995204
312812.4307,142.44447264831837,143.99569807227192,128.0888990080616,228.62276246222996,56.086999999999534
312812.4317,141.40206717152142,131.620277359361,120.57867432723022,206.39860952004324,56.087999999988824
312812.4327,137.2417094618148,116.44320494353497,110.14173538674507,179.95767205883075,56.088999999978114
312812.4337,129.79526206222664,98.5028253728534,96.79023272401449,149.49857023895936,56.089999999967404
312812.4347,118.97924111157609,77.89611329958849,80.6150854477876,115.30721226363605,56.09099999995669
312812.4357,104.80114967741996,54.78027874699727,61.78508804735301,77.75419906057652,56.09199999994598
312812.4367,87.36269477674524,29.372744890965542,40.543476626085585,37.2902040910081,56.09299999999348
312812.4377,66.86010547744925,1.9498071522161546,17.202428944565245,-5.560139462357978,56.09399999998277
312812.4387,43.58189155789133,-27.155679453334898,-7.863952004181549,-50.20529955949183,56.09499999997206
312812.4397,17.90444219982277,-57.55725824002396,-34.22761204749758,-95.99437196423915,56.09599999996135
312812.4407,-9.714138750675174,-88.81822312688676,-61.41497393879696,-142.22471947193043,56.09699999995064
312812.4417,-38.74162381108317,-120.45523474689146,-88.91542687259007,-188.14955045874768,56.09799999999814
312812.4427,-68.5804447882834,-151.94221930422705,-116.18963658795496,-232.985472283403,56.09899999998743
312812.4437,-98.57756105379515,-182.71472755306726,-142.6776085453821,-275.9202661746355,56.09999999997672
312812.4447,-128.03543808768006,-212.17507669527416,-167.80660933900833,-316.1213155978188,56.10099999996601
312812.4457,-156.22427402271478,-239.6987085703779,-190.99920100379123,-352.74525300777344,56.1019999999553
312812.4467,-182.39568552271305,-264.64225411039325,-211.68174860220878,-384.9494480069438,56.102999999944586
312812.4477,-205.79808234228062,-286.3537824728947,-229.29380708694993,-411.90592789350586,56.103999999992084
312812.4487,-225.6939122213803,-304.18562616262403,-243.29876879245498,-432.81819311304844,56.10499999998137
312812.4497,-241.37884197648003,-317.5100114251388,-253.19605543155237,-446.94116915526166,56.10599999997066
312812.4507,-252.20276274883182,-325.7374952719899,-258.53497375312526,-453.6042372460678,56.10699999995995
312812.4517,-257.5922814445999,-328.3379336097992,-258.9301355389236,-452.2369324222819,56.10799999994924
312812.4527,-257.0741074148884,-324.863402555454,-254.07809061761765,-442.396520229536,56.10899999999674
312812.4537,-250.2984891781645,-314.97219496972883,-243.77456111559778,-423.79629782324247,56.10999999998603
312812.4547,-237.06162848379867,-298.45274607585577,-227.93142365107485,-396.33314821798905,56.11099999997532
312812.4557,-217.32582551684695,-275.2461340609354,-206.59239057972692,-360.112641855414,56.11199999996461
312812.4567,-191.2360131825215,-245.46567801146736,-179.94621549738173,-315.46985569749444,56.1129999999539
312812.4577,-159.13133765633796,-209.41213407356418,-148.33621015956172,-262.98408617034045,56.1140000000014
312812.4587,-121.55054616384437,-167.5830806279627,-112.26492047022688,-203.48577731052373,56.11499999999069
312812.4597,-79.2301515605682,-120.67528441060612,-72.3929703056204,-138.05426665782696,56.11599999997998
312812.4607,-33.09464772781951,-69.57914228483587,-29.531336870781573,-68.0053546431211,56.116999999969266
312812.4617,15.761567470718955,-15.364679492571229,15.37334510983242,5.1317959133482605,56.117999999958556
312812.4627,66.10046851423006,40.740970687772766,61.26046298231125,79.64835749433628,56.118999999947846
312812.4637,116.57432409163575,97.38420908897454,106.98368291497137,153.69946653324135,56.11999999999534
312812.4647,165.7662579078878,153.12287065563882,151.34495894820603,225.35653571730012,56.12099999998463
312812.4657,212.23602827303705,206.4700878174488,193.13308263973792,292.6664729032793,56.12199999997392
312812.4667,254.56926077394476,255.9424576855198,231.16523436400053,353.715585938211,56.12299999996321
312812.4677,291.42811437389537,300.1105773840233,264.3297534147346,406.69562323002725,56.1239999999525
312812.4687,321.6012156608925,337.6498410968586,291.6282009408082,449.9692043573753,56.125
312812.4697,344.05066752829697,367.3893356189915,312.214757404323,482.13184352502196,56.12599999998929
312812.4707,357.954027972828,388.35672876565525,325.4310766676144,502.0678617586833,56.12699999997858
312812.4717,362.73935476635137,399.81720972997175,330.8349061189878,508.99771280957657,56.12799999996787
312812.4727,358.11170851717606,401.3047987608495,328.2210634946793,502.51459641345514,56.12899999995716
312812.4737,344.06988076531906,392.6446768588555,317.63371753647306,482.6086783719345,56.12999999994645
312812.4747,320.91254236413573,373.9655730061799,299.36932851990935,449.67775340884043,56.130999999993946
312812.4757,289.2334658821872,345.7016640002721,273.970040906932,404.52374545374397,56.131999999983236
312812.4767,249.905939560743,308.58386797887744,242.2077584121946,348.33501245297356,56.132999999972526
312812.4777,204.05693651637725,263.6208268222344,205.05954741484302,282.65498218331163,56.133999999961816
312812.4787,153.03201120767255,212.0702573170012,163.67538644898943,209.33816796073637,56.134999999951106
312812.4797,98.352249136498,155.40169230925497,119.33958991797022,130.49507854186282,56.1359999999986
312812.4807,41.66488286500271,95.25192086443636,73.42747033412259,48.42792919631744,56.13699999998789
312812.4817,-15.310600529065887,33.37466417565229,27.358957527205497,-34.440630307070364,56.13799999997718
312812.4827,-70.83890257816259,-28.413811532525106,-17.449037182698678,-115.64333696064483,56.13899999996647
312812.4837,-123.22589579573676,-88.29134283144951,-59.629736509359,-192.7461263470562,56.13999999995576
312812.4847,-170.87415708448586,-144.4869357592436,-97.91140513870712,-263.42534362528045,56.14099999994505
312812.4857,-212.33515778164335,-195.3364274326488,-131.15851577269777,-325.54181724416844,56.14199999999255
312812.4867,-246.3563724348743,-239.33498929127163,-158.40784368433563,-377.2093946077979,56.14299999998184
312812.4877,-271.9217780247543,-275.18483620653615,-178.8984018721044,-416.8557461506107,56.14399999997113
312812.4887,-288.28446757897296,-301.83666426695515,-192.09439235706498,-443.2735125797699,56.14499999996042
312812.4897,-294.99038603072734,-318.5235338263354,-197.70061990778726,-455.660188071993,56.14599999994971
312812.4907,-291.8925009035563,-324.78613778287917,-195.6700797360164,-453.645488365773,56.146999999997206
312812.4917,-279.15503555769146,-320.48864276619923,-186.20368020660294,-437.3053355571542,56.147999999986496
312812.4927,-257.24770864544087,-305.82455791773947,-169.74228806884224,-407.1619901362731,56.148999999975786
312812.4937,-226.93023135029244,-281.3123673304742,-146.95148302505743,-364.17026534317534,56.149999999965075
312812.4947,-189.22760620187907,-247.78095294105051,-118.69957948988953,-309.69016015056144,56.150999999954365
312812.4957,-145.39704110306243,-206.34512941668493,-86.02961758616755,-245.44663690562402,56.15200000000186
312812.4967,-96.88753406697977,-158.37190555715236,-50.12614603618357,-173.47764052430503,56.15299999999115
312812.4977,-45.293393439716354,-105.43837157286627,-12.277720880905752,-96.07180141886221,56.15399999998044
312812.4987,7.696868601187041,-49.2823813358278,26.1638698261985,-15.697577746030177,56.15499999996973
312812.4997,60.354697614157864,8.252554183953178,63.82657063257754,65.0741320840914,56.15599999995902
312812.5007,110.96704939030927,65.27652951624496,99.3620631725158,143.65164467592317,56.15699999994831
312812.5017,157.8916199208189,119.91485265069682,131.48960660613955,217.50597257574523,56.15799999999581
312812.5027,199.61003463524816,170.37005650857637,159.03846860998843,284.25356626894194,56.1589999999851
312812.5037,234.77731969194372,214.98229518631874,180.98767807920626,341.73569480113235,56.15999999997439
312812.5047,262.2660656052718,252.28609030871525,196.50183213709494,388.09185603458957,56.16099999996368
312812.5057,281.2038277883215,281.0614431560763,204.96172417861055,421.8246982547188,56.16199999995297
312812.5067,291.002489089702,300.3774481722981,205.98863427979174,441.85410729459034,56.163000000000466
312812.5077,291.3785342750782,309.62673397404535,199.4612449773998,447.5583699030795,56.163999999989755
312812.5087,282.36345216000285,308.5493171877941,185.52431844885186,438.8006642527197,56.164999999979045
312812.5097,264.30378227427866,297.2447773478023,164.588496532079,415.93954834029404,56.165999999968335
312812.5107,237.85065192057894,276.17203948226796,137.320859929907,379.8226087987712,56.166999999957625
312812.5117,203.938996577278,246.13647357164115,104.62620024710135,331.76298448689244,56.167999999946915
312812.5127,163.75701026466083,208.26447265699764,67.61930702369447,273.4990753182483,56.16899999999441
312812.5137,118.7067198866872,163.9661375824784,27.588936894262016,207.13836757542336,56.1699999999837
312812.5147,70.35690512012432,114.88715809803,-14.04550405959238,135.0869296575792,56.17099999997299
312812.5157,20.389879612220135,62.85141835351175,-55.78318986933387,59.96673159167213,56.17199999996228
312812.5167,-29.456102720341377,9.796250628192887,-96.09533695601203,-15.476509060339094,56.17299999995157
312812.5177,-77.44686198555449,-42.297403828318174,-133.4809735743942,-88.47178016448561,56.17399999999907
312812.5187,-121.91264925579036,-91.47741038915012,-166.52291863368393,-156.32398335300968,56.17499999998836
312812.5197,-161.30671831557376,-135.89275071827007,-193.94178673490472,-216.51411248301255,56.17599999997765
312812.5207,-194.26001231244055,-173.86298089576223,-214.64584621177352,-266.7945217961912,56.17699999996694
312812.5217,-219.6299722033132,-203.94213876333507,-227.77466569252593,-305.27546873414764,56.17799999995623
312812.5227,-236.5416574585933,-224.97455967479732,-232.73469036220615,-330.4993491181963,56.17899999994552
312812.5237,-244.41962459943696,-236.1403276571217,-229.22518450320447,-341.4994411159195,56.179999999993015
312812.5247,-243.0093275394692,-236.98845830084286,-217.25334979056936,-337.8405286846273,56.180999999982305
312812.5257,-232.38717430321063,-227.4563673920578,-197.1378625503612,-319.6394654824316,56.181999999971595
312812.5267,-212.95878394442923,-207.874707439779,-169.50054753791744,-287.56453847367555,56.182999999960884
312812.5277,-185.44541982646052,-178.95723081154375,-135.24639810515964,-242.81336120140452,56.183999999950174
312812.5287,-150.85901389308253,-141.77593808064336,-95.53263909379802,-187.06992910050738,56.18499999999767
312812.5297,-110.46662353247052,-97.72236657339062,-51.72798583318699,-122.44235941598444,56.18599999998696
312812.5307,-65.74556067885831,-48.45643987969495,-5.3636582816128495,-51.38367213738133,56.18699999997625
312812.5317,-18.330785545280943,4.155191571097451,41.92195538334785,23.401295718516856,56.18799999996554
312812.5327,30.04354956471041,58.10895892485195,88.44284147492007,99.05914852898535,56.18899999995483
312812.5337,77.60629921252256,111.33964100967562,132.52681092612696,172.6972308718395,56.19000000000233
312812.5347,122.61301734000303,161.79817788693532,172.57650320794914,241.49457912964112,56.19099999999162
312812.5357,163.40883633946402,207.52902325566262,207.1276346264711,302.8100759940731,56.19199999998091
312812.5367,198.48825297090414,246.7440516623247,234.90231874970496,354.28348831713663,56.1929999999702
312812.5377,226.54965112327935,277.89018043982105,254.85550644447386,393.92538185346723,56.19399999995949
312812.5387,246.54257777584476,299.70812107258365,266.2128816491625,420.19238396629135,56.19499999994878
312812.5397,257.7060433467363,311.28002729545216,268.49889086974133,432.0448822053015,56.195999999996275
312812.5407,259.59643098812927,312.0642413905582,261.5539629712297,428.98497276145184,56.196999999985565
312812.5417,252.10396025984798,301.9158372895327,245.54037498648682,411.0732751294874,56.197999999974854
312812.5427,235.4570473494814,281.09219940522746,220.9366244445358,378.92407367576016,56.198999999964144
312812.5437,210.21432471853814,250.24343942930145,188.52056600149595,333.6790994617194,56.199999999953434
312812.5447,177.2445157699213,210.38801980841998,149.34194886614918,276.9610945601939,56.20100000000093
312812.5457,137.69479281895286,162.87450328947637,104.68534258785036,210.80907679118806,56.20199999999022
312812.5467,92.94866713678763,109.33086504457506,56.024754883281574,137.59791906950534,56.20299999997951
312812.5477,44.574855702504685,51.603271077941855,4.971520278683685,59.94545167603078,56.2039999999688
312812.5487,-5.731072190153681,-8.31337102752258,-46.78273280842277,-19.38923137859074,56.20499999995809
312812.5497,-56.21015720278839,-68.35045885470007,-97.52605123517785,-97.6122446448891,56.20599999994738
312812.5507,-105.10626522827678,-126.44347520016821,-145.58695561074137,-172.0019575129098,56.20699999999488
312812.5517,-150.732531572344,-180.60950345257496,-189.3939006475136,-240.01237924634003,56.20799999998417
312812.5527,-191.53543005055732,-229.02145490783715,-227.53123568258547,-299.3687780187929,56.20899999997346
312812.5537,-226.15388172328912,-270.07607322463105,-258.78958044419267,-348.15172046767685,56.20999999996275
312812.5547,-253.47094287183052,-302.45298637235607,-282.20868284520344,-384.8661650323816,56.21099999995204
312812.5557,-272.6558466373541,-325.1623967788834,-297.111054344377,-408.49283352725763,56.211999999999534
312812.5567,-283.1945163838151,-337.57942993366885,-303.1249836193406,-418.5198036073103,56.212999999988824
312812.5577,-284.9071143527624,-339.46368906985094,-300.19590663069977,-414.95308586307516,56.213999999978114
312812.5587,-277.95172310790537,-330.96317155446314,-288.5855517736106,-398.3058423552368,56.214999999967404
312812.5597,-262.81385947284883,-312.6023682069392,-268.8587687917473,-369.56683144518263,56.21599999995669
312812.5607,-240.28216465031332,-285.25506146886755,-241.85847040011052,-330.1495848435894,56.21699999994598
312812.5617,-211.41126812414598,-250.10302929573035,-208.66964238942336,-281.8246918910959,56.21799999999348
312812.5627,-177.47345122411022,-208.58251319263934,-170.57388404724423,-226.63833764193802,56.21899999998277
312812.5637,-139.90130182905864,-162.3208846937673,-128.99639680047298,-166.82087212469304,56.21999999997206
312812.5647,-100.22401871754114,-113.06641039182709,-85.44771606296385,-104.6896404402665,56.22099999996135
312812.5657,-60.00036070082016,-62.614341520385246,-41.46275301781911,-42.55054784885163,56.22199999995064
312812.5667,-20.75141687580595,-12.732717379535117,1.4601417529512506,17.397147446204507,56.22299999999814
312812.5677,16.10361564246347,34.90874077365519,41.917376160089674,73.14853351507382,56.22399999998743
312812.5687,49.30562602469094,78.80345979457833,78.65300000722037,122.9693898266135,56.22499999997672
312812.5697,77.80507012824783,117.66374328176761,110.60397872295624,165.45796487188352,56.22599999996601
312812.5707,100.80053520640946,150.4650819928991,136.93596811633194,199.58976766060186,56.2269999999553
312812.5717,117.76479115429262,176.4773554392178,157.0682073555358,224.74386418341743,56.227999999944586
312812.5727,128.45741611766277,195.28193879267124,170.6867226710906,240.7101397868331,56.228999999992084
312812.5737,132.92380754687693,206.77446838507285,177.74564154811605,247.67795983042362,56.22999999998137
312812.5747,131.4811045533962,211.1537466248987,178.45701755179263,246.207575875894,56.23099999997066
312812.5757,124.69220896474717,208.89793879361628,173.2701217250468,237.186429560832,56.23199999995995
312812.5767,113.32966084022773,200.72979064990696,162.8416341932781,221.77315633429657,56.23299999994924
312812.5777,98.33156724140345,187.57304574056215,147.99854249461856,201.33255315398742,56.23399999999674
312812.5787,80.75207856377011,170.50254354546001,129.6958032501963,177.36502870011745,56.23499999998603
312812.5797,61.70904380543346,150.69062414060335,108.97094293998279,151.4340971751386,56.23599999997532
312812.5807,42.33145540369544,129.35245357785732,86.8977635669534,125.09531757723536,56.23699999996461
312812.5817,23.70912722329262,107.69272912164443,64.54119090372969,99.82974309753014,56.2379999999539
312812.5827,6.846756827197853,86.8559465868128,42.91507554494069,76.98446469252544,56.2390000000014
312812.5837,-7.375866553544752,67.88204205505501,22.9444544644402,57.72225156518362,56.23999999999069
312812.5847,-18.23620106192826,51.668790342007426,5.4334307247101465,42.98165622314098,56.24099999997998
312812.5857,-25.193014681169156,38.941887391680595,-8.960540349096018,33.44831046717497,56.241999999969266
312812.5867,-27.901826650364,30.23319665717586,-19.74553218922969,29.537535412125802,56.242999999958556
312812.5877,-26.2218268372087,25.86723004292349,-26.607100393634624,31.38786126836638,56.243999999947846
312812.5887,-20.214754071718545,25.95558578444773,-29.413496830712077,38.86462973058313,56.24499999999534
312812.5897,-10.136515881200356,30.398794948463937,-28.214555523775697,51.57255098187832,56.24599999998463
312812.5907,3.577458311625617,38.894842979584595,-23.234818410988634,68.87591410151585,56.24699999997392
312812.5917,20.332023656830085,50.95353238721999,-14.861561290335263,89.9250977924217,56.24799999996321
312812.5927,39.39615407576173,65.91582886043133,-3.6284144239186054,113.68808084924018,56.2489999999525
312812.5937,59.929724598332776,82.977370763264,9.8047401003401,138.98578307966022,56.25
312812.5947,81.01227378367408,101.21540117504183,24.674956175537552,164.5302460958931,56.25099999998929
312812.5957,101.67292665336252,119.61847981895156,40.14191758953598,188.96485568593783,56.25199999997858
312812.5967,120.92081994152954,137.11842656625106,55.315616307195235,210.90598061692805,56.25299999996787
312812.5977,137.77552223706988,152.62401812778833,69.28553406548693,228.98552846048497,56.25399999995716
312812.5987,151.29706116836314,165.05598889225902,81.15085864244416,241.8939765305999,56.25499999994645
312812.5997,160.61524255456595,173.3828656819507,90.05124331846659,248.42341407512149,56.255999999993946
312812.6007,164.95796342038147,176.65709186259576,95.19755847187464,247.51003010862502,56.256999999983236
312812.6017,163.6781805421989,174.0507739289684,95.90199233812096,238.27531038610698,56.257999999972526
312812.6027,156.27910521016776,164.8902259773916,91.60674375236235,220.06498775326648,56.258999999961816
312812.6037,142.43706691497675,148.68831327625512,81.91042803925586,192.48455137758128,56.259999999951106
312812.6047,122.02134348753435,125.17342893102186,66.59120640809617,155.42989644221814,56.2609999999986
312812.6057,95.11011670941159,94.31380320720758,45.6255692039157,109.11152305758557,56.26199999998789
312812.6067,62.00160611576788,56.33576899458911,19.201673699372513,54.07060606523052,56.26299999997718
312812.6077,23.219384167742284,11.73461189566562,-12.273825197678914,-8.814714499423065,56.26399999996647
312812.6087,-20.48909597065116,-38.72326307347096,-48.176395400086356,-78.33430828180778,56.26499999995576
312812.6097,-68.1616084122226,-94.0079041241049,-87.67243960125859,-152.96347047708127,56.26599999994505
312812.6107,-118.63852718705917,-152.84385885894406,-129.73675012434558,-230.8935006428893,56.26699999999255
312812.6117,-170.58877650476148,-213.7390051670564,-173.17869269969808,-310.07558538981743,56.26799999998184
312812.6127,-222.544271429529,-275.02397207345916,-216.67678000908384,-388.2774464515731,56.26899999997113
312812.6137,-272.94229885424943,-334.9013938133965,-258.82083421790634,-463.1514779215664,56.26999999996042
312812.6147,-320.1747924247692,-391.5036567638712,-298.1604685842652,-532.3123492012787,56.27099999994971
312812.6157,-362.6429607319726,-442.9572327834573,-333.2581739895593,-593.4213473579842,56.271999999997206
312812.6167,-398.81527402047203,-487.4511853541075,-362.7449104317096,-644.2741291360675,56.272999999986496
312812.6177,-427.2864392600474,-523.3070270201862,-385.3758082802785,-682.8881004852615,56.273999999975786
312812.6187,-446.83473188004075,-549.0468340122843,-400.0834074783825,-707.5853841187393,56.274999999965075
312812.6197,-456.4749336122884,-563.4564152314331,-406.0258264190681,-717.0673054994411,56.275999999954365
312812.6207,-455.50416942121115,-565.6404064078503,-402.62736877240434,-710.4765419123817,56.27700000000186
312812.6217,-443.53815080339433,-555.0664224666849,-389.60934863577677,-687.4435377162699,56.27799999999115
312812.6227,-420.53571353018384,-531.5958447258289,-367.0093333230715,-648.1144729937357,56.27899999998044
312812.6237,-386.8100678749307,-495.49942370184647,-335.1875488545059,-593.1589464066269,56.27999999996973
312812.6247,-343.02582890841353,-447.45660953789024,-294.8198352037907,-523.7565442425271,56.28099999995902
312812.6257,-290.1816235147912,-388.5383363522449,-246.87723733942883,-441.5625524833609,56.28199999994831
312812.6267,-229.57883176164066,-320.1738326421612,-192.59302879609785,-348.65415606928053,56.28299999999581
312812.6277,-162.77776167128138,-244.10285222764253,-133.4186391075985,-247.45948663072917,56.2839999999851
312812.6287,-91.54322715951282,-162.3154648917858,-70.97054845221436,-140.67275850730366,56.28499999997439
312812.6297,-17.782052496235764,-76.9821639725186,-6.970681179294979,-31.159414730372276,56.28599999996368
312812.6307,56.52457462319958,9.622499841032141,56.81685760729646,78.14435323351941,56.28699999995297
312812.6317,129.39076115945477,95.19929023993444,118.6497217068919,184.33317022761887,56.288000000000466
312812.6327,198.89441172847353,177.50314037329295,176.86900486705508,284.63067510562416,56.288999999989755
312812.6337,263.24157298105206,254.4181168716872,229.95594868447714,376.4802419508435,56.289999999979045
312812.6347,320.82394932609856,324.0254496447487,276.581336299934,457.6246747600602,56.290999999968335
312812.6357,370.26739385548933,384.66206790905426,315.6457248473936,526.1720529652176,56.291999999957625
312812.6367,410.4697527365972,434.9676782169625,346.3092435299848,580.6457415901002,56.292999999946915
312812.6377,440.6270707432667,473.91908079119617,368.010293153853,620.0174619419839,56.29399999999441
312812.6387,460.2478030510084,500.8510982479168,380.47308206341376,643.7231845554325,56.2949999999837
312812.6397,469.155279701389,515.4641404808935,383.704481706857,651.6624001918465,56.29599999997299
312812.6407,467.4791964204172,517.8190120489259,377.9811488326279,644.1820023572806,56.29699999996228
312812.6417,455.6373302095182,508.3200539523399,363.82821668960827,622.0465450282982,56.29799999995157
312812.6427,434.3089828698662,487.68808119357107,341.9910919151937,586.3970062204334,56.29899999999907
312812.6437,404.40183467689235,456.92482348629784,313.4020058795663,538.7003909364026,56.29999999998836
312812.6447,367.01394932619496,417.2707023655232,279.1429685886846,480.69255874931343,56.30099999997765
312812.6457,323.3926252154126,370.1577966273909,240.40667813521924,414.31658564200916,56.30199999996694
312812.6467,274.8916595524905,317.15977943870547,198.45677369671395,341.6587980694796,56.30299999995623
312812.6477,222.92840744248483,259.9404787965597,154.58861305016842,264.8843844565716,56.30399999994552
312812.6487,168.941805906509,200.2025437282459,110.0915344709405,186.1742300531653,56.304999999993015
312812.6497,114.35231873337533,139.63751552298166,66.21335286160507,107.66436586642895,56.305999999982305
312812.6507,60.52456362543051,79.87842614107407,24.127660858931886,31.38919505196616,56.306999999971595
312812.6517,8.733223227483892,22.455888657853972,-15.095629752138063,-40.77052436213371,56.307999999960884
312812.6527,-39.86727637865775,-31.24148577220405,-50.51615799457923,-107.13409793971095,56.308999999950174
312812.6537,-84.2689128219778,-80.0016133000606,-81.34508856321044,-166.26096441805856,56.30999999999767
312812.6547,-123.63167637385132,-122.81775643035316,-106.96289218291516,-216.98372692513786,56.31099999998696
312812.6557,-157.30029937200933,-158.91106041468473,-126.93261993792248,-258.4335030707708,56.31199999997625
312812.6567,-184.81578345014344,-187.74630646646014,-141.0083474109775,-290.0570048151627,56.31299999996554
312812.6577,-205.9214337590726,-209.04047435615328,-149.13847024283953,-311.62484011116123,56.31399999995483
312812.6587,-220.5631698178386,-222.76382919341853,-151.46357346904054,-323.23065387174836,56.31500000000233
312812.6597,-228.88398267983794,-229.1334064665711,-148.30868452924756,-325.28090676101215,56.31599999999162
312812.6607,-231.2125526378227,-228.59896800633445,-140.16985945520216,-318.4753295990491,56.31699999998091
312812.6617,-228.04622847546077,-221.821735464142,-127.69524118609158,-303.7783829365965,56.3179999999702
312812.6627,-220.02878881637972,-209.64646686120903,-111.66095842245419,-282.3823811836055,56.31899999995949
312812.6637,-207.9236425703267,-193.06771008353263,-92.94248642247985,-255.66328702643847,56.31999999994878
312812.6647,-192.58335835832193,-173.191325388368,-72.48234625654635,-225.13051843358915,56.320999999996275
312812.6657,-174.9166194552351,-151.19259594295252,-51.25525234628065,-192.3724092905824,56.321999999985565
312812.6667,-155.85385919054903,-128.27242086711883,-30.232005982769792,-158.9991991703838,56.322999999974854
312812.6677,-136.31292334683462,-105.61319221944237,-10.343554412179609,-126.58557624758203,56.323999999964144
312812.6687,-117.16611832274127,-84.33598429233798,7.5533239171652715,-96.61484557888745,56.324999999953434
312812.6697,-99.20993190757206,-65.46062584365997,22.707294656518812,-70.42673762011798,56.32600000000093
312812.6707,-83.13856132180172,-49.87008650353443,34.499424678612236,-49.17071322892282,56.32699999999022
312812.6717,-69.52216300101271,-38.280397967482514,42.46475461352658,-33.76637470978299,56.32799999997951
312812.6727,-58.79046982482812,-31.217065382738795,46.30769358923179,-24.87227800913867,56.3289999999688
312812.6737,-51.22212835256269,-28.99862554308018,45.9107546917009,-22.86408378142688,56.32999999995809
312812.6747,-46.939817316494036,-31.72769899339887,41.33647466819234,-27.822610961632083,56.33099999994738
312812.6757,-45.91094412849493,-39.28958499316937,32.82267442046993,-39.53199025123772,56.33199999999488
312812.6767,-47.95349923610077,-51.358180294335966,20.771495382456692,-57.48777671149675,56.33299999998417
312812.6777,-52.746492882078314,-67.4087783431333,5.73287362745573,-80.91458427825465,56.33399999997346
312812.6787,-59.84431096017305,-86.73713174487335,-11.616721982724775,-108.79255700923925,56.33499999996275
312812.6797,-68.69430325431016,-108.48403768623811,-30.499362021612292,-139.8917916982118,56.33599999995204
312812.6807,-78.65694740224185,-131.66462732321236,-50.063575031394336,-172.81366772992186,56.336999999999534
312812.6817,-89.02799820874091,-155.20149505541733,-69.41416011200462,-206.03791249258344,56.337999999988824
312812.6827,-99.06211361569974,-177.96077872561546,-87.64298874474123,-237.9741228370223,56.338999999978114
312812.6837,-107.99752436068471,-198.7902836316056,-103.85995765155319,-267.0163648507096,56.339999999967404
312812.6847,-115.08136533540362,-216.55872063854414,-117.22332458902486,-291.5993790978119,56.34099999995669
312812.6857,-119.59529935607561,-230.1950947045888,-126.9687197893535,-310.25482516527376,56.34199999994598
312812.6867,-120.88103210987121,-238.7272333568286,-132.4361691804307,-321.6659124333511,56.34299999999348
312812.6877,-118.36524216052844,-241.3183895513813,-133.0944890497353,-324.7186936155432,56.34399999998277
312812.6887,-111.58334171810975,-237.30079980029404,-128.56241873000405,-318.5482583057868,56.34499999997206
312812.6897,-100.20135877767258,-226.20504044566283,-118.62585656394505,-302.57807248084146,56.34599999996135
312812.6907,-84.03511030686606,-207.78401873513857,-103.25056703849242,-276.55078365606386,56.34699999995064
312812.6917,-63.06574265252583,-182.03047712436222,-82.58974775814396,-240.54896479622457,56.34799999999814
312812.6927,-37.450671790024224,-149.1869929131194,-56.985897990827226,-195.00451303652264,56.34899999998743
312812.6937,-7.528981544810319,-109.747630408573,-26.966527876129636,-140.69575507597105,56.34999999997672
312812.6947,26.179554320024895,-64.45065269730144,6.766602963464269,-78.73173521613504,56.35099999996601
312812.6957,62.98246474393894,-14.262021014278712,43.35482419660694,-10.523661506230406,56.3519999999553
312812.6967,102.0299473746805,39.65020970880875,81.80632229646669,62.255960719003404,56.352999999944586
312812.6977,142.33761448844666,95.95006873072614,121.0258922263693,137.7253985734145,56.353999999992084
312812.6987,182.81622178931502,153.17545191425125,159.84990893817337,213.85528246158344,56.35499999998137
312812.6997,222.30755541815893,209.78611321046682,197.08543224508486,288.53750670361154,56.35599999997066
312812.7007,259.62523283100717,264.216085796343,231.55205905451916,359.65877983922223,56.35699999995995
312812.7017,293.59879533128264,314.92844198503235,262.12488566531886,425.17583016891257,56.35799999994924
312812.7027,323.11916658115626,360.4700886207484,287.77676421572755,483.1890807011103,56.35899999999674
312812.7037,347.1833507796556,399.5242020482906,307.6179519464043,532.0115796173229,56.35999999998603
312812.7047,364.9361678682959,430.957946779964,320.9312742588943,570.2301178495694,56.36099999997532
312812.7057,375.70688355666357,453.8632982819558,327.2010594851142,596.7557831213494,56.36199999996461
312812.7067,379.0387912181064,467.5890966106994,326.13435304262345,610.8616766936368,56.3629999999539
312812.7077,374.7101320550529,471.76287805419946,317.67327051499143,612.2061306165099,56.3640000000014
312812.7087,362.745180369937,466.3015420043174,301.99778407096113,600.8404752125513,56.36499999999069
312812.7097,343.41484445149626,451.41047874006244,279.5187283405533,577.2011769665072,56.36599999997998
312812.7107,317.22670597511757,427.571374915345,250.86132905472772,542.0869494956785,56.366999999969266
312812.7117,284.905003436075,395.5194898050407,216.84006628720098,496.62218700959465,56.367999999958556
312812.7127,247.36161854167094,356.2117202440082,178.42614969774158,442.2087348497295,56.368999999947846
312812.7137,205.65961130994106,310.7872128040451,136.70927392773388,380.46855478446537,56.36999999999534
312812.7147,160.9712373747478,260.5226111620007,92.85561134870912,313.1802312182164,56.37099999998463
312812.7157,114.53264447102983,206.7842256820827,48.0641668599334,242.21247610289444,56.37199999997392
312812.7167,67.59756812407535,150.9794708620169,3.5236541158567776,169.45781458407887,56.37299999996321
312812.7177,21.392323183843963,94.5098339767467,-39.62804731918761,96.76947212654088,56.3739999999525
312812.7187,-22.925777542412714,38.72742399751594,-80.34002092478238,25.904151102225836,56.375
312812.7197,-64.30473930694471,-15.103178578939593,-117.67853147251057,-41.52709414516657,56.37599999998929
312812.7207,-101.8274952880872,-65.83646782017837,-150.85025663049996,-104.09826519340653,56.37699999997858
312812.7217,-134.73384129266736,-112.47012692275662,-179.21793069621285,-160.59715195502122,56.37799999996787
312812.7227,-162.43423761243986,-154.16138363678834,-202.3082931888626,-210.04311499283943,56.37899999995716
312812.7237,-184.51553437318617,-190.2357677133997,-219.8127125652466,-251.69430366082068,56.37999999994645
312812.7247,-200.7391572092695,-220.1888755994571,-231.58128234417507,-285.0452886147889,56.380999999993946
312812.7257,-211.03270413675676,-243.6821171560961,-237.61153352413606,-309.81657283463375,56.381999999983236
312812.7267,-215.47622483051111,-260.5336904349829,-238.03314989852038,-325.93779316506703,56.382999999972526
312812.7277,-214.28466051748788,-270.7061874618409,-233.09019651656118,-333.52661451384125,56.383999999961816
312812.7287,-207.78800580101048,-274.29226944199206,-223.12237036883488,-332.8653435026941,56.384999999951106
312812.7297,-196.41071212551634,-271.49976621368245,-208.54666060061442,-324.3771527231043,56.3859999999986
312812.7307,-180.65169525730462,-262.6373638983208,-189.84057704623913,-308.6035285660828,56.38699999998789
312812.7317,-161.06605411500084,-248.10176681025578,-167.5277931227709,-286.18416386950275,56.38799999997718
312812.7327,-138.24928113702472,-228.36688202417585,-142.1666814674576,-257.84004928903875,56.38899999996647
312812.7337,-112.82437621551026,-203.97520956927343,-114.34183198417267,-224.36001809941575,56.38999999995576
312812.7347,-85.43190105500915,-175.53126217647974,-84.65826768864387,-186.5905139378926,56.39099999994505
312812.7357,-56.722662647879865,-143.69651921557357,-53.73774805790059,-145.42792380661388,56.39199999999255
312812.7367,-27.35242448250513,-109.18516955307015,-22.216302264508787,-101.81248765484162,56.39299999998184
312812.7377,2.0221624923462027,-72.75974071338054,9.258011622457188,-56.72258998645776,56.39399999997113
312812.7387,30.747322848318078,-35.22566143671763,40.02815726271213,-11.168175131902917,56.39499999996042
312812.7397,58.176524412402664,2.57613414075355,69.43293099234951,33.81789053275237,56.39599999994971
312812.7407,83.6762527027606,39.77928621786157,96.8142894412219,77.19146953411348,56.396999999997206
312812.7417,106.63379199826058,75.5052436326535,121.52766592653386,117.91244926074857,56.397999999986496
312812.7427,126.4673395694588,108.87980500257191,142.95540092642764,154.9639085593047,56.398999999975786
312812.7437,142.6384633578223,139.05276829487505,160.52303629788858,187.37493713139884,56.399999999965075
312812.7447,154.66658679135227,165.22014175120628,173.71785508889974,214.2464527029978,56.400999999954365
312812.7457,162.14488056106265,186.64805618673205,182.10872479322532,234.77897190265278,56.40200000000186
312812.7467,164.75669037414102,202.69727135080794,185.3660534379497,248.30098596111205,56.40299999999115
312812.7477,162.29145641041504,212.8470100849629,183.2805192936005,254.29639846098263,56.40399999998044
312812.7487,154.65900062685802,216.7167970460001,175.7792007791697,252.429414439911,56.40499999996973
312812.7497,141.90107861614416,214.08502701521562,162.93781671593447,242.56533047745168,56.40599999995902
312812.7507,124.19920974653235,204.90313420709387,144.98798065026185,224.7858539759993,56.40699999994831
312812.7517,101.87799975061891,189.3044623234547,122.31865853588474,199.39785616646347,56.40799999999581
312812.7527,75.4034331546744,167.60722223322188,95.47137058810695,166.93480924438165,56.4089999999851
312812.7537,45.375913237427845,140.31124285945864,65.12906432165295,128.15054112268055,56.40999999997439
312812.7547,12.518136733984788,108.08854292879032,32.09897342032678,84.00532876988845,56.41099999996368
312812.7557,-22.341817709880875,71.7680505640408,-2.709865753064104,35.6447131837454,56.41199999995297
312812.7567,-58.29155763365589,32.31505282541761,-38.313469117001254,-15.628268263656945,56.413000000000466
312812.7577,-94.35877968606671,-9.193846678954818,-73.68294031153492,-68.3864893740931,56.413999999989755
312812.7587,-129.53806268119249,-51.599354441433896,-107.77636710542404,-121.1166662743119,56.414999999979045
312812.7597,-162.8190547866465,-93.69072692149456,-139.57122589790004,-172.26059520992735,56.415999999968335
312812.7607,-193.2150743757058,-134.23864826050436,-168.09599802000565,-220.25844452099167,56.416999999957625
312812.7617,-219.79121523812037,-172.02881267967993,-192.45983504699453,-263.59286500342034,56.417999999946915
312812.7627,-241.69115777139362,-205.89535127421013,-211.8793017158883,-300.83273572409774,56.41899999999441
312812.7637,-258.1620200737026,-234.75332951570414,-225.70145144600795,-330.675434956424,56.4199999999837
312812.7647,-268.57671794407776,-257.62962632207916,-233.42272676150287,-351.986603611572,56.42099999997299
312812.7657,-272.4534241598033,-273.6915754744089,-234.70340229863245,-363.8364405096385,56.42199999996228
312812.7667,-269.4718126045996,-282.2727976369047,-229.37748241115918,-365.5316293320327,56.42299999995157
312812.7677,-259.48583495518386,-282.89567413747017,-217.45811513160498,-356.6420461093914,56.42399999999907
312812.7687,-242.5328060965337,-275.2899157422858,-199.13868274002834,-337.02143913840763,56.42499999998836
312812.7697,-218.8385749064022,-259.4066699770478,-174.78977709560556,-306.82132034642876,56.42599999997765
312812.7707,-188.81854063691748,-235.4276022280265,-144.9522727581488,-266.49737130695314,56.42699999996694
312812.7717,-153.07425677371666,-203.76839422973893,-110.32668594783702,-216.80776212817906,56.42799999995623
312812.7727,-112.38536060769741,-165.07614396416207,-71.75896938582815,-158.80291955054903,56.42899999994552
312812.7737,-67.6965936987409,-120.22023654388875,-30.222860058830456,-93.80647031178067,56.429999999993015
312812.7747,-20.099748682623524,-70.27639505746058,13.201114366390868,-23.38733010011884,56.430999999982305
312812.7757,29.189500973335253,-16.503816377729787,57.34984141390647,50.67679661227697,56.431999999971595
312812.7767,78.85975863385045,39.68445455375667,101.0048474353208,126.4439058106181,56.432999999960884
312812.7777,127.53670116237556,96.75746854196905,142.92223601024386,201.85921511175783,56.433999999950174
312812.7787,173.8199144797297,153.1078765836922,181.86489238343856,274.81240279198977,56.43499999999767
312812.7797,216.32290165446426,207.09792117172157,216.63633400084603,343.1989192368096,56.43599999998696
312812.7807,253.71513833707203,257.10854647131794,246.1154067859198,404.983445411041,56.43699999997625
312812.7817,284.7648222301332,301.59001159965806,269.29085600943415,458.2633678768494,56.43799999996554
312812.7827,308.38078804323675,339.11221176238587,285.2946586862427,501.33002853760354,56.43899999995483
312812.7837,323.65195579822665,368.41281802742054,293.4329088892694,532.7255018831884,56.44000000000233
312812.7847,329.8826619536774,388.4413488777893,293.2130121486181,551.2927574997683,56.44099999999162
312812.7857,326.62229657587153,398.39738884558585,284.36597920528646,556.2172772701489,56.44199999998091
312812.7867,313.6878354708348,397.76136733378615,266.86271605851977,547.0585035971402,56.4429999999702
312812.7877,291.17810644073,386.31659290632643,240.9233837426008,523.7698791360331,56.44399999995949
312812.7887,259.47894982982064,364.1615876221938,207.01913920955832,486.70667707565786,56.44499999994878
312812.7897,219.25880628236672,331.7121608337779,165.86585489048306,436.621288321639,56.445999999996275
312812.7907,171.4546666224344,289.6930783186375,118.40973219190086,374.64610177069335,56.446999999985565
312812.7917,117.24872583872629,239.11959640245513,65.8050544903851,302.26456148736406,56.447999999974854
312812.7927,58.03647152021863,181.2695192265428,9.384648754098874,221.27138861380033,56.448999999964144
312812.7937,-4.61271485420976,117.64678119215293,-49.37607655454167,133.72329963213153,56.449999999953434
312812.7947,-69.00107543802424,49.93784112713847,-108.9003919941018,41.881825195882804,56.45100000000093
312812.7957,-133.35252509870998,-20.037609542016014,-167.5554762832217,-51.84996981733118,56.45199999999022
312812.7967,-195.86550419077403,-90.37997921774456,-223.7001409215187,-144.99494333476687,56.45299999997951
312812.7977,-254.76684641044616,-159.16543187550786,-275.7334983738783,-235.0715371319164,56.4539999999688
312812.7987,-308.36488850973666,-224.5021423075824,-322.1430067264021,-319.6636777088302,56.45499999995809
312812.7997,-355.10013196219137,-284.58547668644917,-361.5503673732957,-396.48901039999186,56.45599999994738
312812.8007,-393.591906468039,-337.7505189713983,-392.75384710054914,-463.46365440352344,56.45699999999488
312812.8017,-422.6796681890638,-382.52049190280144,-414.7657324709072,-518.7617866348255,56.45799999998417
312812.8027,-441.45777817754043,-417.6497724583612,-426.8437927099601,-560.8685003203585,56.45899999997346
312812.8037,-449.302835953326,-442.1603671571275,-428.5158179292457,-588.6245354900046,56.45999999996275
312812.8047,-445.8928789824837,-455.37088679593336,-419.5965045142796,-601.26164239318,56.46099999995204
312812.8057,-431.21799303928367,-456.9172404991911,-400.19617281770365,-598.4275183996494,56.461999999999534
312812.8067,-405.582106153606,-446.7644556260176,-370.72101994734294,-580.1994599019965,56.462999999988824
312812.8077,-369.5959578175579,-425.2092255118277,-331.86483019174943,-547.0861000880709,56.463999999978114
312812.8087,-324.16144516316314,-392.8729946635656,-284.5922863592376,-500.0168675835347,56.464999999967404
312812.8097,-270.447749882879,-350.68561404678496,-230.11424617098822,-440.3191037918635,56.46599999995669
312812.8107,-209.85984482531535,-299.85983908642237,-169.85556739561017,-369.6831180711852,56.46699999994598
312812.8117,-144.00016772060874,-241.85719885263953,-105.41628085982383,-290.11583418455433,56.46799999999348
312812.8127,-74.62443011103313,-178.34603211172,-38.52711725491845,-203.8840774851755,56.46899999998277
312812.8137,-3.5926991387036744,-111.15275635713736,28.999414632599088,-113.44895336218372,56.46999999997206
312812.8147,67.18295662185797,-42.2076981671245,95.32103194215337,-21.393152562270412,56.47099999996135
312812.8157,135.79283506382922,26.512946636104125,158.6192607929044,69.65663546769709,56.47199999995064
312812.8167,200.38445870068676,93.0472516754578,217.15299879347162,157.10973808293866,56.47299999999814
312812.8177,259.2163354147535,155.5078755572452,269.3104093232831,238.49128426240338,56.47399999998743
312812.8187,310.7090135942653,212.1405471635432,313.6575058430596,311.51900638808416,56.47499999997672
312812.8197,353.4918516306612,261.37870442339386,348.98184770036676,374.17432942351525,56.47599999996601
312812.8207,386.4440018239883,301.89234338460716,374.329889641965,424.76516140081975,56.4769999999553
312812.8217,408.72824165855326,332.62929148345694,389.0367028172947,461.9780607273903,56.477999999944586
312812.8227,419.81646978714093,352.84735676107636,392.74701002790226,484.91782567183805,56.478999999992084
312812.8237,419.5059162743243,362.13611545819265,385.4267446832168,493.1330130625793,56.47999999998137
312812.8247,407.9253909947211,360.4274717607921,367.3646420729832,486.62642508035884,56.48099999997066
312812.8257,385.53120300610925,347.99453985074433,339.1636928632618,465.8501797808964,56.48199999995995
312812.8267,353.09271805023513,325.4388417327649,301.722621408866,431.685575497627,56.48299999994924
312812.8277,311.667870514783,293.6662650055392,256.2078847455815,385.40854420654983,56.48399999999674
312812.8287,262.56929847991887,253.85266284108405,204.01701138443616,328.6420382603762,56.48499999998603
312812.8297,207.32211318428767,207.4003844962147,146.73440200898588,263.297185149571,56.48599999997532
312812.8307,147.6146340215949,155.8873806764129,86.08098696462558,191.50545615061884,56.48699999996461
312812.8317,85.24370336848379,101.01081814136191,23.85936848575808,115.54441103685562,56.4879999999539
312812.8327,22.056428700078502,44.527349021993274,-38.10374017527332,37.75979112005104,56.4890000000014
312812.8337,-40.10963003735022,-11.807697313493508,-98.0158396745309,-39.5131699068835,56.48999999999069
312812.8347,-99.48571297213418,-66.2999043102745,-154.17573254571414,-114.02636554153477,56.49099999997998
312812.8357,-154.42842333973343,-117.37191349915977,-205.0273823026454,-183.69064467466913,56.491999999969266
312812.8367,-203.4715445312695,-163.61406123678557,-249.20863608601093,-246.64036199165147,56.492999999958556
312812.8377,-245.37121649792383,-203.8276934041929,-285.5930642516646,-301.2884937308636,56.493999999947846
312812.8387,-279.14282415756463,-237.05967104602865,-313.32340603373854,-346.3705708718791,56.49499999999534
312812.8397,-304.0882749349135,-262.6269676807026,-331.83541507684737,-380.976151811019,56.49599999998463
312812.8407,-319.8127309745931,-280.13068964906057,-340.8712621732027,-404.5670666829972,56.49699999997392
312812.8417,-326.2302961412883,-289.45930346939474,-340.4820607191007,-416.9821928871823,56.49799999996321
312812.8427,-323.5586172728225,-290.7813063103651,-331.0195152035262,-418.4290424357579,56.4989999999525
312812.8437,-312.3028195225501,-284.5280047426112,-313.11713352080005,-409.4629332093723,56.5
312812.8447,-293.22963247582805,-271.3674514387391,-287.66186744972305,-390.9549565382759,56.50099999998929
312812.8457,-267.33295349764904,-252.17091064724073,-255.75742954255907,-364.0503241924503,56.50199999997858
312812.8467,-235.7924166909011,-227.9734662298046,-218.68085781508887,-330.11896452902454,56.50299999996787
312812.8477,-199.92677355396586,-199.93054105977706,-177.83414426194875,-290.70043099959855,56.50399999995716
312812.8487,-161.144034262518,-169.27215967619813,-134.6928964485505,-247.4452829370356,56.50499999994645
312812.8497,-120.89036231433937,-137.2567593873161,-90.75405638817654,-202.05510078925045,56.505999999993946
312812.8507,-80.59966265658915,-105.12624644503398,-47.48465740123108,-156.2232134453255,56.506999999983236
312812.8517,-41.64566330451061,-74.06381642633136,-6.273464167189458,-111.57805631566337,56.507999999972526
312812.8527,-5.29807719655254,-45.15582832325697,31.61287369694451,-69.63086109845123,56.508999999961816
312812.8537,27.315837082151496,-19.35875906750416,65.06780097143563,-31.729119342089284,56.509999999951106
312812.8547,55.24329951000089,2.5280111832306673,93.17593342757934,0.9830200038729078,56.5109999999986
312812.8557,77.73091744841139,19.883104391239385,115.2365329455756,27.59654707458336,56.51199999998789
312812.8567,94.24208862266164,32.27751351260201,130.77901686580998,47.46098991942859,56.51299999997718
312812.8577,104.46679524536036,39.48242748758672,139.57045022888684,60.199085659121614,56.51399999996647
312812.8587,108.32393891540256,41.470685921041394,141.6152459433433,65.71263049254551,56.51499999995576
312812.8597,105.9565762193736,38.41217729202576,137.14752763587546,64.17962414110623,56.51599999994505
312812.8607,97.72058016131952,30.663596629737945,126.61678826532587,56.04300734545529,56.51699999999255
312812.8617,84.16737434029896,18.753048827375906,110.66760501446382,41.99145236017241,56.51799999998184
312812.8627,66.02147046455417,3.3600310228301944,90.11425252526618,22.932812105538787,56.51899999997113
312812.8637,44.15359308070759,-14.708638170047006,65.91110061806772,-0.039029775073947184,56.51999999996042
312812.8647,19.55020723854097,-34.54634352511419,39.11969962864046,-25.683032637084793,56.52099999994971
312812.8657,-6.719715945165494,-55.177016697297674,10.873457291254553,-52.654587896013375,56.521999999997206
312812.8667,-33.53984659197749,-75.5876157895534,-17.659194392038067,-79.55268107041266,56.522999999986496
312812.8677,-59.782692214347655,-94.76199854976029,-45.31224791519249,-104.96935229003782,56.523999999975786
312812.8687,-84.34596061500292,-111.71537570420207,-70.95928833818215,-127.54005622144172,56.524999999965075
312812.8697,-106.18818629895696,-125.5284540092394,-93.54947546655922,-145.99341426776988,56.525999999954365
312812.8707,-124.36269613951585,-135.38030423764786,-112.14142198075874,-159.1987712610167,56.52700000000186
312812.8717,-138.04897484569761,-140.57892824531447,-125.93403852820579,-166.2099279023249,56.52799999999115
312812.8727,-146.58048905117658,-140.5884634107764,-134.29341697820863,-166.3034311229014,56.52899999998044
312812.8737,-149.46804929000854,-135.0519639504413,-136.7748446896613,-159.00987820895278,56.52999999996973
312812.8747,-146.41784053574503,-123.80874734808815,-133.139096472041,-144.1368351927926,56.53099999995902
312812.8757,-137.34334219348662,-106.90539824232529,-123.362246511182,-121.7821900559121,56.53199999994831
312812.8767,-122.37049328667888,-84.59968575852255,-107.63838694846999,-92.33705630103891,56.53299999999581
312812.8777,-101.83564095226683,-57.35687314991005,-86.3748363768012,-56.47770653723927,56.5339999999851
312812.8787,-76.27603936866662,-25.838175486532755,-60.179668904921236,-15.14643725639578,56.53499999997439
312812.8797,-46.41293668732559,9.118558263548588,-29.8416860693578,30.478272209329415,56.53599999996368
312812.8807,-13.127589661686722,46.52551304386116,3.6967221458298036,79.02146349957631,56.53699999995297
312812.8817,22.569134667034106,85.27814047148327,39.37304133601794,128.9599501686845,56.538000000000466
312812.8827,59.5725915226003,124.1938242579752,76.043301337485,178.67736280890168,56.538999999989755
312812.8837,96.72434792576028,162.05453351140056,112.52452257459575,226.52386132212612,56.539999999979045
312812.8847,132.8547957190588,197.65176405571953,147.6392581681393,270.8781024216721,56.540999999968335
312812.8857,166.82666146153016,229.8318903911657,180.26036842466226,310.2088765827823,56.541999999957625
312812.8867,197.57757455021567,257.5399669813859,209.35407467277585,343.13378156378576,56.542999999946915
312812.8877,224.15983743109652,279.8600374432955,234.01935425752546,368.4723873838818,56.54399999999441
312812.8887,245.77562601082158,296.050137281067,253.5218634604692,385.2915697236626,56.5449999999837
312812.8897,261.80603432210427,305.57040589037064,267.3208077874342,392.9410356239798,56.54599999997299
312812.8907,271.8326573873857,308.1030450547148,275.08750883814014,391.0775191152584,56.54699999996228
312812.8917,275.65076494291486,303.5632557232687,276.7148255333402,379.67665970934814,56.54799999995157
312812.8927,273.27353476640997,292.10072876729356,272.3170501019768,359.0321627099906,56.54899999999907
312812.8937,264.92726168525667,274.09173136955303,262.2203866912038,329.7424429795094,56.54999999998836
312812.8947,251.03790833689985,250.12229000600152,246.94460137967448,292.6855383413733,56.55099999997765
312812.8957,232.20978775153182,220.9633957663728,227.17687581406486,248.9836121962048,56.55199999996694
312812.8967,209.19753951062984,187.53952312457378,203.73927469980117,199.95881826488633,56.55299999995623
312812.8977,182.87285875529653,150.89203905970206,177.55152723316846,147.08265067985033,56.55399999994552
312812.8987,154.18764493530068,112.13927155122354,149.59100847195762,91.92113419682546,56.554999999993015
312812.8997,124.1353462528367,72.43509760858763,120.85188076718887,36.07831424301535,56.555999999982305
312812.9007,93.71228495650409,32.92790069989679,92.30531807925466,-18.859515135610522,56.556999999971595
312812.9017,63.880663554641835,-5.2783583355597985,64.86259531756588,-71.37654834271711,56.557999999960884
312812.9027,35.53478402732969,-41.15940267951783,39.3425953052845,-120.07512005949245,56.558999999950174
312812.9037,9.471776911000756,-73.80093743656866,16.44498691933145,-163.7165559529833,56.55999999999767
312812.9047,-13.632147025028905,-102.42299694320101,-3.270018422402456,-201.2539066846871,56.56099999998696
312812.9057,-33.23922376497618,-126.39769381072416,-19.394795416763998,-231.85569239937328,56.56199999997625
312812.9067,-48.961068252657476,-145.26007267973202,-31.68015500668921,-254.92024614877366,56.56299999996554
312812.9077,-60.56295828943421,-158.71211510806074,-40.03410760297374,-270.08070119124017,56.56399999995483
312812.9087,-67.96171689489248,-166.62026168647134,-44.51405229889939,-277.20109704075725,56.56500000000233
312812.9097,-71.21770911324239,-169.00709917781668,-45.313179596131626,-276.3644629705086,56.56599999999162
312812.9107,-70.5216985911948,-166.03809265394565,-42.742094197354554,-267.85405861589845,56.56699999998091
312812.9117,-66.17749232884952,-158.00441648639784,-37.206822439246395,-252.1291957927281,56.5679999999702
312812.9127,-58.58143441733527,-145.30304770194076,-29.18446349602439,-229.797223731233,56.56899999995949
312812.9137,-48.19988859840064,-128.41532761864312,-19.197774643496334,-201.5833258245023,56.56999999994878
312812.9147,-35.54587387492268,-107.88517281134229,-7.789950812594675,-168.29974846103545,56.570999999996275
312812.9157,-21.155987440779764,-84.29802742252296,4.499228570598161,-130.81596525065788,56.571999999985565
312812.9167,-5.568666872488081,-58.26150197588535,17.154851020839633,-90.03108178886657,56.572999999974854
312812.9177,10.69528714522762,-30.38844875537379,29.705068495177933,-46.849520910906584,56.573999999964144
312812.9187,27.149178935463993,-1.2829931519369981,41.7354051387874,-2.1607146058899476,56.574999999953434
312812.9197,43.353333903540694,28.47021054101528,52.89877873567092,43.17681153170022,56.57600000000093
312812.9207,58.924147214200815,58.31348442030884,62.92108874644727,88.34691793573627,56.57699999999022
312812.9217,73.53918574246049,87.72061809548295,71.60246968894646,132.5831713868816,56.57799999997951
312812.9227,86.93849403344504,116.1987775091885,78.81453712067396,175.17255697377664,56.5789999999688
312812.9237,98.92246458826163,143.28842328600894,84.49415165622314,215.45634203455154,56.57999999995809
312812.9247,109.34680860092877,168.56193182861543,88.63438327436151,252.82898307167795,56.58099999994738
312812.9257,118.11529453617821,191.62164871044132,91.27346555476984,286.73601183754147,56.58199999999488
312812.9267,125.17100151376974,212.09807443273382,92.4825830687673,316.67179753878065,56.58299999998417
312812.9277,130.48685956928495,229.6487925097819,92.35333471491059,342.1779670027878,56.58399999997346
312812.9287,134.05622132771714,243.95860979714124,90.98566526031443,362.8430889148024,56.58499999996275
312812.9297,135.88413561538835,254.74120405415172,88.47696430864828,378.30401199373347,56.58599999995204
312812.9307,135.9798827306401,261.7423817733652,84.91290672322438,388.2490129822635,56.586999999999534
312812.9317,134.3511954798813,264.7448589687909,80.3604631026513,392.4226814312954,56.587999999988824
312812.9327,131.00044248529014,263.57430632044986,74.86335533412637,390.6322649375379,56.588999999978114
312812.9337,125.92290284010255,258.1062621730936,68.44008147156036,382.7550367602767,56.589999999967404
312812.9347,119.10712409785364,248.27342222496148,61.08449486284926,368.746137700272,56.59099999995669
312812.9357,110.53723607740135,234.07276784545675,52.768800253897915,348.6462893208334,56.59199999994598
312812.9367,100.19699493503263,215.57199494312474,43.4487270061301,322.58877326170983,56.59299999999348
312812.9377,88.07525606342216,192.91474647496463,33.070556201522514,290.8051134942421,56.59399999998277
312812.9387,74.17251870661369,166.324224740386,21.579611839173207,253.62897322824145,56.59499999997206
312812.9397,58.50814624067826,136.1048532049422,8.929773165002286,211.49787254923442,56.59599999996135
312812.9407,41.127839979238736,102.64176010967847,-4.906477709985071,164.95243395575918,56.59699999995064
312812.9417,22.11092796958481,66.39795719118698,-19.927993167451568,114.63296028324218,56.59799999999814
312812.9427,1.5770219852087426,27.909178653596143,-36.09542839390986,61.27323613241263,56.59899999998743
312812.9437,-20.308403733654757,-12.223576434455492,-53.32280109050157,5.691517167662679,56.59999999997672
312812.9447,-43.32994701180177,-53.343691979301106,-71.47070166359875,-51.22126706566873,56.60099999996601
312812.9457,-67.22013405781573,-94.75061631106624,-90.34168993109607,-108.51601704736822,56.6019999999553
312812.9467,-91.65955982962322,-135.7133789610231,-109.67836357959199,-165.20254031045974,56.602999999944586
312812.9477,-116.27960440076706,-175.48570607325186,-129.16450004449015,-220.26900691301114,56.603999999992084
312812.9487,-140.66792006889045,-213.3224572356282,-148.42955440616436,-272.70351385789036,56.60499999998137
312812.9497,-164.37675935936213,-248.49705970907016,-167.056641790868,-321.51739630244725,56.60599999997066
312812.9507,-186.9340646936998,-280.31956083285706,-184.59394797883635,-365.76981225620517,56.60699999995995
312812.9517,-207.8570722453305,-308.1548563181481,-200.56930480499125,-404.59300127237685,56.60799999994924
312812.9527,-226.66800456450792,-331.44058457420255,-214.5074495191884,-437.21748398494776,56.60899999999674
312812.9537,-242.9112508183333,-349.7041111436063,-225.94927448229154,-462.99633953257785,56.60999999998603
312812.9547,-256.171273723802,-362.57797084990483,-234.4721820902572,-481.42758606259827,56.61099999997532
312812.9557,-266.09035294325247,-369.81309774321375,-239.71050665650097,-492.17361126178355,56.61199999996461
312812.9567,-272.38518977594987,-371.28916395851917,-241.37486594907352,-495.0765708004721,56.6129999999539
312812.9577,-274.8613693884487,-367.02137686615447,-239.26927322602336,-490.16870650982423,56.6140000000014
312812.9587,-273.4247133088797,-357.1631560458103,-233.30488483405574,-477.67664333755107,56.61499999999069
312812.9597,-268.08866083317815,-342.0042312428534,-223.50938233230042,-458.01890986116183,56.61599999997998
312812.9607,-258.9769925310834,-321.96386928082694,-210.03118922671467,-431.7961902565806,56.616999999969266
312812.9617,-246.32144574222016,-297.57914723650674,-193.13799197346034,-399.7741478860419,56.617999999958556
312812.9627,-230.4540587512281,-269.4884318597017,-173.2093580709877,-362.85904657174257,56.618999999947846
312812.9637,-211.79440006514366,-238.41048787455955,-150.72360066168127,-322.06681293086683,56.61999999999534
312812.9647,-190.83217064870695,-205.119903638238,-126.23940498086766,-278.4866042087764,56.62099999998463
312812.9657,-168.10598625975706,-170.41977260864329,-100.37308088018426,-233.24033976399573,56.62199999997392
312812.9667,-144.17942954353705,-135.1127833951601,-73.77261102237725,-187.4399887232485,56.62299999996321
312812.9677,-119.61568393235423,-99.97203102284386,-47.089901775711915,-142.14465127494407,56.6239999999525
312812.9687,-94.95220364694505,-65.71295136918916,-20.952793147723025,-98.3196013920378,56.625
312812.9697,-70.67692148125697,-32.96778786481484,4.061568746281342,-56.79945674769005,56.62599999998929
312812.9707,-47.207440707232834,-2.2639185490018874,27.45045463288973,-18.25749905805959,56.62699999997858
312812.9717,-24.874499403164094,25.992796890007543,48.804996494457,16.81711225935234,56.62799999996787
312812.9727,-3.910743116969622,51.52873880504044,67.82424377646134,48.13289458695714,56.62899999995716
312812.9737,15.55448873291914,74.20672081617167,84.32306392105998,75.59953048729022,56.62999999994645
312812.9747,33.49404291211948,94.02341748961783,98.23351520425932,99.32102711172982,56.630999999993946
312812.9757,49.97559174716501,111.10017172857684,109.59973946769321,119.57888376826884,56.631999999983236
312812.9767,65.14853378735604,125.66770578981247,118.56683509188845,136.80619192573073,56.632999999972526
312812.9777,79.22603256641587,138.0456088955366,125.36454610492282,151.5541255472836,56.633999999961816
312812.9787,92.46338289109568,148.61777009846364,130.28691454543886,164.45272305637462,56.634999999951106
312812.9797,105.13412157530804,157.80514766228052,133.66926847273572,176.16818570149795,56.6359999999986
312812.9807,117.50542610203289,166.03740158142122,135.8640429095022,187.35910001158496,56.63699999998789
312812.9817,129.81436287215044,173.72495635642804,137.2169493196557,198.6340243377774,56.63799999997718
312812.9827,142.24645784644164,181.23300605265206,138.04492328306517,210.51276200818083,56.63899999996647
312812.9837,154.9178763104301,188.8588290001504,138.61710018922648,223.39338768023615,56.63999999995576
312812.9847,167.86223230888066,196.81355722452264,139.13981228331627,237.5267195392261,56.64099999994505
312812.9857,181.02272467123632,205.2092626506797,139.7462897120453,252.99946581791204,56.64199999999255
312812.9867,194.24994150461748,214.05189850685804,140.49140892963263,269.7267524095833,56.64299999998184
312812.9877,207.30531558262572,223.24029218251366,141.35149044992113,287.45419423082905,56.64399999997113
312812.9887,219.8698749071406,232.57104723895466,142.22882970327842,305.76914142535776,56.64499999996042
312812.9897,231.55763822681857,241.7488981492737,142.96037164840664,324.12024490396425,56.64599999994971
312812.9907,241.93277190001567,250.40178975709296,143.32972889605048,341.84407188012136,56.646999999997206
312812.9917,250.529463679934,258.0997386983464,143.08160551276674,358.1971825039493,56.647999999986496
312812.9927,256.87338586454456,264.3763858629127,141.93762888328158,372.391867529949,56.648999999975786
312812.9937,260.50361359170955,268.75207211713945,139.61260789972056,383.63365030587227,56.649999999965075
312812.9947,260.99392698223454,270.75726362138255,135.8303191060899,391.1586723974902,56.650999999954365
312812.9957,257.97254677110976,269.9552130244985,130.3380599750827,394.2692016213663,56.65200000000186
312812.9967,251.1395170775909,265.96285930371397,122.91938329711397,392.36570859030746,56.65299999999115
312812.9977,240.28113922981194,258.46912952060035,113.40461983532889,384.9742327491311,56.65399999998044
312812.9987,225.28105995419273,247.24999570570458,101.6789889541537,371.76807802170094,56.65499999996973
312812.9997,206.12780984772013,232.1798441494237,87.6882715734785,352.5832174035416,56.65599999995902
312813.0007,182.9187605009892,213.23891783967272,71.44216255230705,327.42712197356894,56.65699999994831
312813.0017,155.86061114398345,190.51678272907816,53.01552102288264,296.4810425602491,56.65799999999581
312813.0027,125.26662268557983,164.2119347985795,32.547793116118896,260.0960456363753,56.6589999999851
312813.0037,91.55088737084003,134.62780078963686,10.240893216639163,218.7833280665383,56.65999999997439
312813.0047,55.21995898495076,102.16548793568663,-13.644196363893649,173.19950275695376,56.66099999996368
312813.0057,16.862178008597848,67.31370744617934,-38.79190131297577,124.12765902328158,56.66199999995297
312813.0067,-22.864982854512988,30.636336227662994,-64.83746954045382,72.45506210136502,56.663000000000466
312813.0077,-63.24924498846274,-7.241903194111071,-91.373256064859,19.14837353704613,56.663999999989755
312813.0087,-103.53923103304739,-45.651166836447636,-117.95586866613463,-34.77274202719579,56.664999999979045
312813.0097,-142.96127008856467,-83.89315321676096,-144.11419977587846,-88.26279774161003,56.665999999968335
312813.0107,-180.7370125298136,-121.25826178370053,-169.35837639395297,-140.27768100259027,56.666999999957625
312813.0117,-216.10154488837603,-157.04282103017007,-193.18963493260875,-189.80115435752282,56.667999999946915
312813.0127,-248.3216605013834,-190.56598165636032,-215.11107433738087,-235.8700136546486,56.66899999999441
312813.0137,-276.7138983843294,-221.18589011407323,-234.63916541484306,-277.59732166879445,56.6699999999837
312813.0147,-300.6619187875866,-248.3147795805398,-251.31580707544754,-314.1932035446552,56.67099999997299
312813.0157,-319.63274828523964,-271.4326419839646,-264.72063310513147,-344.98276401318395,56.67199999996228
312813.0167,-333.191409216059,-290.09917955245777,-274.48319827270467,-369.42076883326814,56.67299999995157
312813.0177,-341.01345566740633,-303.9637802996079,-280.2946207952043,-387.10282697137103,56.67399999999907
312813.0187,-342.89497611179496,-312.7733202621154,-281.91823726327135,-397.77291649622384,56.67499999998836
312813.0197,-338.7596927878524,-316.3776654570495,-279.1988399482594,-401.3272142057101,56.67599999997765
312813.0207,-328.6628873631088,-314.732825345996,-272.07011434084484,-397.81431177598046,56.67699999996694
312813.0217,-312.79200470487325,-307.9017917468254,-260.5599717512977,-387.4320220974726,56.67799999995623
312813.0227,-291.4639217555987,-296.05317558156355,-244.79356905544728,-370.5210888164829,56.67899999994552
312813.0237,-265.11900444644675,-279.4578207588465,-224.99391393030191,-347.55619958927184,56.679999999993015
312813.0247,-234.3121995629334,-258.4836223938042,-201.48005703278795,-319.1347596679313,56.680999999982305
312813.0257,-199.7015088466471,-233.58879959158844,-174.6629612290933,-285.96390010317333,56.681999999971595
312813.0267,-162.03426037799585,-205.31386798559623,-145.0392033579273,-248.84617083560005,56.682999999960884
312813.0277,-122.13162234794726,-174.27252444462485,-113.18270105127402,-208.66430481175368,56.683999999950174
312813.0287,-80.87179626340533,-141.14159999827427,-79.73466529416844,-166.36534169273966,56.68499999999767
312813.0297,-39.1722848102572,-106.65016487416807,-45.391962740927234,-122.94428018285407,56.68599999998696
312813.0307,2.028437307913159,-71.56779230540886,-10.894038418290911,-79.42730169211143,56.68699999997625
312813.0317,41.78960131029659,-36.691917890590354,22.991489677176194,-36.854492298373735,56.68799999996554
312813.0327,79.18700236015206,-2.8341814409968857,55.48448513516244,3.7380976950732996,56.68899999995483
312813.0337,113.33193421587653,29.19438027968809,85.8091320221501,41.33726130644501,56.69000000000233
312813.0347,143.39013585568577,58.59940033065835,113.21187931811886,74.97250283465223,56.69099999999162
312813.0357,168.60068873720033,84.62055310058875,136.98036398268505,103.73708653199749,56.69199999998091
312813.0367,188.29476645013128,106.55016716398202,156.46310201616024,126.81025199716991,56.6929999999702
312813.0377,201.91406163119626,123.75286982567681,171.08962121711951,143.4803940028337,56.69399999995949
312813.0387,209.02860353947125,135.6858802777447,180.3905703070583,153.16877614820103,56.69499999994878
312813.0397,209.35354390158219,141.9193823108102,184.01718952412426,155.45309905596804,56.695999999996275
312813.0407,202.7643428795001,142.15622634331208,181.7593836164188,150.08999866500272,56.696999999985565
312813.0417,189.30964854788286,136.25005283347468,173.5615169434997,137.03533450176855,56.697999999974854
312813.0427,169.2210507592548,124.22081324325057,159.53496959973143,116.46096746287598,56.698999999964144
312813.0437,142.91882207577893,106.2666069256489,139.96646875439106,88.76664481229568,56.699999999953434
312813.0447,111.01275077867662,82.77076531215562,115.32125292178532,54.585625049650886,56.70100000000093
312813.0457,74.2972361688773,54.30320638920293,86.24024588328213,14.782798358797393,56.70199999999022
312813.0467,33.73996136981214,21.615254625331545,53.530612786380445,-29.55570758242171,56.70299999997951
312813.0477,-9.536315996170469,-14.372630145320827,18.149338344343125,-77.14210779181555,56.7039999999688
312813.0487,-54.279016368317365,-52.59045757280177,-18.82020564928095,-126.51596921957503,56.70499999995809
312813.0497,-99.13783725908905,-91.8455252814286,-56.198366725181515,-176.08239787800292,56.70599999994738
312813.0507,-142.70310514809532,-130.8559403569265,-92.74526592658091,-224.1586228017614,56.70699999999488
312813.0517,-183.5493767264623,-168.28993933982895,-127.20169013797006,-269.0276647388851,56.70799999998417
312813.0527,-220.28289188647892,-202.80973104586516,-158.33336226539424,-308.9972816532147,56.70899999997346
312813.0537,-251.59113284048772,-233.11826350841548,-184.97683742885826,-342.4619578371354,56.70999999996275
312813.0547,-276.292470599911,-258.007064586756,-206.08506424073013,-367.965380268172,56.71099999995204
312813.0557,-293.38370669118314,-276.40314425094465,-220.7705422066474,-384.26065023144196,56.711999999999534
312813.0567,-302.0832632725491,-287.412888559708,-228.34401152067952,-390.3654275809183,56.712999999988824
312813.0577,-301.867849690824,-290.3609275706651,-228.34673479428153,-385.60930746939437,56.713999999978114
312813.0587,-292.500639858709,-284.82212140451935,-220.57466832672904,-369.67098330021616,56.714999999967404
312813.0597,-274.04932502277495,-270.64507288324353,-205.0931622576094,-342.6031438171282,56.71599999995669
312813.0607,-246.8928437789973,-247.96592752664438,-182.24125599712065,-304.8435666852121,56.71699999994598
312813.0617,-211.71611082349014,-217.21164270101212,-152.62512340192328,-257.2114783022478,56.71799999999348
312813.0627,-169.49263694075,-179.09237376790222,-117.10074267010233,-200.88891702264002,56.71899999998277
312813.0637,-121.45552026506319,-134.58311012775212,-76.74638799781741,-137.3875280660291,56.71999999997206
312813.0647,-69.05785673941844,-84.89517132105462,-32.82603265412151,-68.50189538952637,56.72099999996135
312813.0657,-13.924131170884626,-31.43861707417913,13.254812744291202,3.7488580956960664,56.72199999995064
312813.0667,42.20542147643443,24.222987792823517,59.99895241262047,77.18892912991994,56.72299999999814
312813.0677,97.53517654850097,80.42370147750935,105.87092610936158,149.5604505460299,56.72399999998743
312813.0687,150.27670221676505,135.45025283863959,149.35174436679182,218.60187151037624,56.72499999997672
312813.0697,198.71100710201756,187.59891167173163,188.99267241000547,282.12696316691097,56.72599999996601
312813.0707,241.24797186720937,235.2320611532712,223.46590223522963,338.10132012536917,56.7269999999553
312813.0717,276.48068213955264,276.83242406086134,251.61016400265856,384.7133854685203,56.727999999944586
312813.0727,303.23268322594527,311.05305231478036,272.4696285780845,420.4373189375945,56.728999999992084
312813.0737,320.5965606454683,336.7614188613466,285.32482013135046,444.08543335635244,56.72999999998137
312813.0747,327.9626864791006,353.0762343604735,289.71466520608834,454.84841593573765,56.73099999997066
312813.0757,325.0374304106657,359.39592929437225,285.44922539882145,452.32209796319285,56.73199999995995
312813.0767,311.85058754523067,355.41807567958284,272.6130684457937,436.52010644623414,56.73299999994924
312813.0777,288.75219728587047,341.1493537516906,251.55960383844342,407.8722937682692,56.73399999999674
312813.0787,256.3992984144894,316.90598285273484,222.89702556362118,367.20936905846645,56.73499999998603
312813.0797,215.73347106003274,283.30482113614516,187.46675372280822,315.7346257686463,56.73599999997532
312813.0807,167.95024936368938,241.24558876128887,146.31544286302702,254.98405826807146,56.73699999996461
312813.0817,114.46164908471626,191.8848814246912,100.66172879242163,186.77647731752373,56.7379999999539
312813.0827,56.85314788025406,136.60281663224015,51.8589244409046,113.15546785702128,56.7390000000014
312813.0837,-3.1635070128773966,76.96329826058708,1.3548607551207417,36.32518616340714,56.73999999999069
312813.0847,-63.800295031401006,14.669001667942403,-49.349984374533925,-41.41792495523565,56.74099999997998
312813.0857,-123.24438841822338,-48.48772165066044,-98.74500139808518,-117.75540394375645,56.741999999969266
312813.0867,-179.70980361924785,-110.67673847737977,-145.35162288663955,-190.41695152371722,56.742999999958556
312813.0877,-231.48800638310968,-170.08347425223818,-187.7642460125596,-257.24852299643993,56.743999999947846
312813.0887,-276.9962882538274,-224.96228443753034,-224.6890547910786,-316.2764273225038,56.74499999999534
312813.0897,-314.8227747992849,-273.68839231516904,-254.9799349906813,-365.76565001018594,56.74599999998463
312813.0907,-343.766964039415,-314.80689723214164,-277.67069888132676,-404.2707606525568,56.74699999997392
312813.0917,-362.8747336854908,-347.07735271297514,-292.0028502444785,-430.67793393982186,56.74799999996321
312813.0927,-371.4668080671285,-369.51244674108557,-297.4481331608552,-444.2368100339024,56.7489999999525
312813.0937,-369.15975216316633,-381.40939809285857,-293.72513467648406,-444.5811528940907,56.75
312813.0947,-355.8786733609116,-382.3728230427226,-280.80926609998903,-431.7375399820133,56.75099999998929
312813.0957,-331.8609720898744,-372.32803338465067,-258.9355437731831,-406.12163822476674,56.75199999997858
312813.0967,-297.650697294431,-351.52400243010095,-228.59373773885926,-368.5219897511046,56.75299999996787
312813.0977,-254.08333355328895,-320.52557759668156,-190.5156607232092,-320.07164189562275,56.75399999995716
312813.0987,-202.26116893275352,-280.19491704052257,-145.65462874214367,-262.20839813064646,56.75499999994645
312813.0997,-143.51975509363785,-231.66256755288546,-95.15742990496226,-196.62492234657668,56.755999999993946
312813.1007,-79.38635617444417,-176.28905972732076,-40.32947432314396,-125.21037499754677,56.756999999983236
312813.1017,-11.531667802875312,-115.61834770261983,17.405855590750445,-49.98566870945954,56.757999999972526
312813.1027,58.283553870380416,-51.32483546456987,76.5523037210239,26.965226170207956,56.758999999961816
312813.1037,128.26500819967254,14.843919633495641,135.5886472322502,103.56524723770433,56.759999999951106
312813.1047,196.6423405829458,81.12647985417382,193.01754908495943,177.81266885411173,56.7609999999986
312813.1057,261.72531275008197,145.80628997662743,247.41336078209162,247.84519427380016,56.76199999998789
312813.1067,321.95635127189666,207.26743379383703,297.4668542659595,311.9970666017199,56.76299999997718
312813.1077,375.9572917033041,264.04501538653756,342.0249521072137,368.84685631371514,56.76399999996647
312813.1087,422.5683798670112,314.8680582042265,380.12373210248245,417.2540211251845,56.76499999995576
312813.1097,460.87795128558525,358.69319861858344,411.0132979175134,456.3828864936818,56.76599999994505
312813.1107,490.24166617550685,394.72793446825654,434.17351469974307,485.7133314500375,56.76699999999255
312813.1117,510.2907046102864,422.4427440624435,449.32008341322364,505.0381471418329,56.76799999998184
312813.1127,520.9288924981574,441.5719825546235,456.4009400956786,514.4477224364604,56.76899999997113
312813.1137,522.3192984088369,452.10405300320923,455.58348290061775,514.3033589018021,56.76999999996042
312813.1147,514.8613775598265,454.26190111775225,447.23361630194404,505.2010851843157,56.77099999994971
312813.1157,499.1602076954741,448.47536060755107,431.88802548728694,487.928292060042,56.771999999997206
312813.1167,475.98973174575957,435.3472503944896,410.2214261924468,463.4158158789597,56.772999999986496
312813.1177,446.25217026061154,415.6153733195359,383.0107538593796,432.688241307488,56.773999999975786
312813.1187,410.93587739356525,390.1126749627708,351.0983470035149,396.8151669953298,56.774999999965075
312813.1197,371.07388208868184,359.72778731511886,315.3561383084417,356.8659845588794,56.775999999954365
312813.1207,327.7051857460316,325.3680118268572,276.65269818032306,313.8703778645744,56.77700000000186
312813.1217,281.8405935259169,287.92650573894963,235.8246935592245,268.786281770081,56.77799999999115
312813.1227,234.4344618710437,248.25504850816162,193.65395211513137,222.47648093792728,56.77899999998044
312813.1237,186.36327992997465,207.14331150896354,150.85088724952263,175.69441911730416,56.77999999996973
312813.1247,138.4115019419002,165.30506756687993,108.04457516275596,129.07916885541644,56.78099999995902
312813.1257,91.2645475223717,123.37129173544679,65.77931541273334,83.15892183174861,56.78199999994831
312813.1267,45.50842217008431,81.88965390730424,24.517083136557794,38.36183839501024,56.78299999999581
312813.1277,1.635012281977675,41.32951619140185,-15.355077314607053,-4.967326899214053,56.7839999999851
312813.1287,-39.94819754419898,2.0912464586384694,-53.51393892622963,-46.54670489596502,56.78499999997439
312813.1297,-78.9054349419907,-35.48154014866446,-89.68664977426282,-86.13493673184709,56.78599999996368
312813.1307,-114.95850851645817,-71.08828966672189,-123.63641367870375,-123.50899853966577,56.78699999995297
312813.1317,-147.87272901891507,-104.45782538008902,-155.14869861189143,-158.4441540789518,56.788000000000466
312813.1327,-177.44423218906473,-135.33600622510176,-184.01923200183128,-190.6977088693345,56.788999999989755
312813.1337,-203.48981499277818,-163.475850410902,-210.04481251846036,-219.99787738725462,56.789999999979045
312813.1347,-225.84008858964697,-188.63096555457528,-233.0176746373164,-246.03863265417604,56.790999999968335
312813.1357,-244.33639803752504,-210.55279835824194,-252.72380890469148,-268.48091736188644,56.791999999957625
312813.1367,-258.83158886187056,-228.99186742052655,-268.9452930311178,-286.9600928855609,56.792999999946915
312813.1377,-269.1943430826779,-243.70279850716415,-281.4663527196911,-301.09902333103355,56.79399999999441
312813.1387,-275.31648956292605,-254.45266796128132,-290.08257118579417,-310.52577078316693,56.7949999999837
312813.1397,-277.1224397122084,-261.031899753481,-294.6124243627652,-314.89454568031425,56.79599999997299
312813.1407,-274.5797285465215,-263.2667734855988,-294.91015195418146,-313.90833663491605,56.79699999996228
312813.1417,-267.70956499317543,-261.03249716103727,-290.87889392821006,-307.3415521401892,56.79799999995157
312813.1427,-256.5963183074212,-254.26578536715832,-282.483031805705,-295.06104708854735,56.79899999999907
312813.1437,-241.39498514503853,-242.97595858119092,-269.7587705532131,-277.0440732564019,56.79999999998836
312813.1447,-222.33588137781848,-227.25373270821657,-252.82216883565812,-253.39196720067346,56.80099999997765
312813.1457,-199.72606378106974,-207.2770826801522,-231.8740548032911,-224.33874394948393,56.80199999996694
312813.1467,-173.9472830806751,-183.3138173370874,-207.20152824081276,-190.2541657209124,56.80299999995623
312813.1477,-145.45057192663003,-155.72076872605436,-179.17602150968946,-151.64126295172994,56.80399999994552
312813.1487,-114.7478490485158,-124.93975037846141,-148.24814457740197,-109.12866139260838,56.804999999993015
312813.1497,-82.40114661702899,-91.49065107151002,-114.9397492537842,-63.458379219535466,56.805999999982305
312813.1507,-49.01021970675793,-55.962182843027115,-79.83379529290517,-15.469975194674223,56.806999999971595
312813.1517,-15.19936079111102,-19.00088156660248,-43.562674239790866,33.91796302152343,56.807999999960884
312813.1527,18.395785805230208,18.701039073807443,-6.795642422100264,83.72800537252935,56.808999999950174
312813.1537,51.14072844012965,56.41844871483865,29.774061963895985,132.94486183071203,56.80999999999767
312813.1547,82.41345430915901,93.40627221033726,65.44197689966288,180.53646800243195,56.81099999998696
312813.1557,111.61430914832086,128.91243149455772,99.50477970634725,225.47471589769776,56.81199999997625
312813.1567,138.17440759093867,162.1906902929693,131.27216708529994,266.75561820793274,56.81299999996554
312813.1577,161.56278056817848,192.5134905333023,160.0783297062483,303.41891454114045,56.81399999995483
312813.1587,181.2926494059987,219.18498164442187,185.29322411227523,334.56728784998523,56.81500000000233
312813.1597,196.92732868277358,241.55449200664717,206.3339091707529,359.38543285389966,56.81599999999162
312813.1607,208.0862849965795,259.03066313725134,222.67620596109617,377.15919125228817,56.81699999998091
312813.1617,214.45181056350182,271.09635927091847,233.86685606642246,387.29484015842075,56.8179999999702
312813.1627,215.7766144587993,277.3242860404214,239.53620090169568,389.3384035842436,56.81899999995949
312813.1637,211.89240676748096,277.3930202895492,239.41120050235781,382.9945777257065,56.81999999994878
312813.1647,202.7192777016556,271.10289522640215,233.32837828257595,368.14455478611234,56.820999999996275
312813.1657,188.27538718078105,258.39093310579244,221.24604778865117,344.8617384882358,56.821999999985565
312813.1667,168.6862157514778,239.34380519759253,203.25497925002443,313.4241097356721,56.822999999974854
312813.1677,144.1924194020388,214.20765772968724,179.58652677752588,274.3218618212791,56.823999999964144
312813.1687,115.15520838614906,183.3935988897418,150.61718522795897,228.2589116603715,56.824999999953434
312813.1697,82.05815509428841,147.47771315814524,116.86859494813814,176.14702542548116,56.82600000000093
312813.1707,45.504439222857144,107.19466159440161,79.00216883838152,119.09157811826272,56.82699999999022
312813.1717,6.208759003132068,63.42423455824423,37.80777464495034,58.36838628322532,56.82799999997951
312813.1727,-35.0165379548984,17.170629194198256,-5.813749281715886,-4.608414131075378,56.8289999999688
312813.1737,-77.28114554458335,-30.46530021619047,-50.87405906332986,-68.32686484507745,56.82999999995809
312813.1747,-119.64190047477605,-78.3200614824741,-96.32612781969615,-131.22484177892898,56.83099999994738
312813.1757,-161.13242118025212,-125.20655397938607,-141.097370655146,-191.74304518888124,56.83199999999488
312813.1767,-200.7959820821777,-169.95639775413227,-184.1256291126439,-248.3809659649348,56.83299999998417
312813.1777,-237.71996340455306,-211.46349149274963,-224.39626316555479,-299.7530675138302,56.83399999997346
312813.1787,-271.0699660292377,-248.7264943541181,-260.97839925920965,-344.6421893282278,56.83499999996275
312813.1797,-300.12156400040516,-280.8878443368805,-293.05831519408144,-382.0471440720495,56.83599999995204
312813.1807,-324.28770089083537,-307.267009983774,-319.9680192536084,-411.221659090899,56.836999999999534
312813.1817,-343.13992487094134,-327.38592458803583,-341.20730309019575,-431.7022033465987,56.837999999988824
312813.1827,-356.42199275190427,-340.98496097039583,-356.4579048346663,-443.32282251528596,56.838999999978114
312813.1837,-364.05483481055927,-348.02834577304145,-365.5888886355873,-446.2158429779709,56.839999999967404
312813.1847,-366.1324280058433,-348.6985491908886,-368.6528972951303,-440.7981505522055,56.84099999995669
312813.1857,-362.9087345627683,-343.37987450517454,-365.87352602232113,-427.7436427644039,56.84199999994598
312813.1867,-354.7764793637316,-332.632161700323,-357.6246530153648,-407.9433292870178,56.84299999999348
312813.1877,-342.2391146224563,-317.15615940268236,-344.403100897329,-382.45534842583936,56.84399999998277
312813.1887,-325.87780737302734,-297.7526607252587,-326.7964489406839,-352.4478177424606,56.84499999997206
312813.1897,-306.31564384928123,-275.2778995676759,-305.44813298600326,-319.13789366521024,56.84599999996135
312813.1907,-284.1814440142608,-250.5979332600959,-281.0221313060149,-283.7306425022455,56.84699999995064
312813.1917,-260.07560113095775,-224.54477723936404,-254.16952617174795,-247.3613057296912,56.84799999999814
312813.1927,-234.54020171345448,-197.87690480337415,-225.49905233946487,-211.04427752566016,56.84899999998743
312813.1937,-208.035352026635,-171.24639237582232,-195.5534091881247,-175.63162361966312,56.84999999997672
312813.1947,-180.92316450065337,-145.17450494087063,-164.79265012789568,-141.78329679532678,56.85099999996601
312813.1957,-153.46027925033394,-120.03691618775096,-133.5854094045766,-109.95039932640762,56.8519999999553
312813.1967,-125.79915950488885,-96.05909080684013,-102.20812827357322,-80.3719692783251,56.852999999944586
312813.1977,-97.99775697708326,-73.3216740111844,-70.8518487845238,-53.08489287743486,56.853999999992084
312813.1987,-70.03654576844521,-51.775087199389056,-39.63560202910744,-27.94573385986278,56.85499999998137
312813.1997,-41.84141823602553,-31.261965488572848,-8.624971054971205,-4.662579939505098,56.85599999997066
312813.2007,-13.310561183302587,-11.54563071342967,22.145910225644634,17.165519179914146,56.85699999995995
312813.2017,15.656788776305417,7.657501236445174,52.650831111138785,38.00427994427706,56.85799999994924
312813.2027,45.13186483969198,26.643814411930563,82.84837498734422,58.33796472640658,56.85899999999674
312813.2037,75.13020939013181,45.688899461280485,112.66097742337134,78.62402923322006,56.85999999998603
312813.2047,105.58962439843009,65.01651550311476,141.95770042879653,99.25120977351158,56.86099999997532
312813.2057,136.35365656383996,84.77186198830898,170.54189287016922,120.50324022686476,56.86199999996461
312813.2067,167.16159764980563,105.00054172422566,198.14448815945437,142.5299112899632,56.8629999999539
312813.2077,197.64550385002028,125.63417391714715,224.42325180245138,165.3266592030078,56.8640000000014
312813.2087,227.33426982636368,146.48318200370446,248.9678720027452,188.72334234224456,56.86499999999069
312813.2097,255.6643702131653,167.2368682053667,271.3104195359218,212.3823698721963,56.86599999997998
312813.2107,281.9965323922482,187.47052116244714,290.94041317124214,235.80591518600505,56.866999999969266
312813.2117,305.6373469356016,206.65900169140113,307.3235280195101,258.3515944063563,56.867999999958556
312813.2127,325.8646622864605,224.19602194376552,319.9228790780662,279.2557210538989,56.868999999947846
312813.2137,341.9555428365831,239.41817318190772,328.2217932307176,297.663055823571,56.86999999999534
312813.2147,353.21558013975994,251.6326578120305,331.7470339357794,312.6618411225962,56.87099999998463
312813.2157,359.00841486701336,260.1476282536535,330.09154223347383,323.3228252617813,56.87199999997392
312813.2167,358.7844287919961,264.30401297512697,322.9358819273636,328.74092223405165,56.87299999996321
312813.2177,352.1076789947767,263.50770415601943,310.067703643326,328.0781043519173,56.8739999999525
312813.2187,338.6802520592566,257.26098132143875,291.39865412345944,320.6060771346286,56.875
312813.2197,318.3633022496481,245.19204583045496,266.97824230509576,305.74723685681425,56.87599999998929
312813.2207,291.194100194677,227.08154343352479,237.00422888677093,283.1123671759106,56.87699999997858
312813.2217,257.3984610810341,202.8849632799163,201.82913530056555,252.53350532400765,56.87799999996787
312813.2227,217.39795420697627,172.74983337478128,161.9624820145086,214.09041848520263,56.87899999995716
312813.2237,171.81133427620412,137.0266986995918,118.0683802543645,168.12919725781137,56.87999999994645
312813.2247,121.44969653065118,96.27298319204444,70.95813302862007,115.2716144260495,56.880999999993946
312813.2257,67.30495950359553,51.24901215381583,21.57756750799476,56.41412816037774,56.881999999983236
312813.2267,10.531434012913714,2.9057141582825716,-29.01106534014769,-7.284263415780284,56.882999999972526
312813.2277,-47.57954779226114,-47.63616875858168,-79.65261883712174,-74.42568646405758,56.883999999961816
312813.2287,-105.63169445059414,-99.11516454445008,-129.1277766729327,-143.4084388030544,56.884999999951106
312813.2297,-162.16193339601367,-150.16583673728718,-176.18647469035523,-212.47271831893784,56.8859999999986
312813.2307,-215.68377076245622,-199.36218588620855,-219.58521113913457,-279.75573480891086,56.88699999998789
312813.2317,-264.73452908414123,-245.26621233782666,-258.1271229748181,-343.35432155966436,56.88799999997718
312813.2327,-307.9248101138455,-286.47977625215606,-290.70340718068,-401.3926288621282,56.88899999996647
312813.2337,-343.98823283671675,-321.6975718242734,-316.3344131271633,-452.09204267844143,56.88999999995576
312813.2347,-371.8292828582966,-349.7588148084846,-334.2085530127778,-493.840167685592,56.89099999994505
312813.2357,-390.5670062684959,-369.6951507129254,-343.7170972044962,-525.2555778032822,56.89199999999255
312813.2367,-399.5723096904807,-380.7723429142898,-344.48295823601876,-545.2450915806206,56.89299999998184
312813.2377,-398.4968001597505,-382.523503118422,-336.3817311853198,-553.0505839299376,56.89399999997113
312813.2387,-387.2914143917445,-374.7719776094338,-319.5535489038931,-548.2827943740284,56.89499999996042
312813.2397,-366.21353567795643,-357.6424865319031,-294.40471713377514,-530.940214680121,56.89599999994971
312813.2407,-335.8218552253811,-331.5597039037404,-261.5985955292154,-501.41190050849326,56.896999999997206
312813.2417,-296.958869953172,-297.2341274786944,-222.0357554802679,-460.4639052159665,56.897999999986496
312813.2427,-250.72157922094965,-255.63577719312195,-176.82403697190412,-409.20992298664856,56.898999999975786
312813.2437,-198.42160239624664,-207.9569320949324,-127.2397030621054,-349.06759217783116,56.899999999965075
312813.2447,-141.53654014032676,-155.5657215706155,-74.68140990256451,-281.7026877158904,56.900999999954365
312813.2457,-81.6549002878676,-99.95288433032937,-20.619133561298433,-208.96406865388713,56.90200000000186
312813.2467,-20.417266586447656,-42.67436244552681,33.459510261549404,-132.81269910018787,56.90299999999115
312813.2477,40.54342193186312,14.707417109496454,86.1029742211655,-55.248297539524856,56.90399999998044
312813.2487,99.659605872467,70.68071639695881,135.94695515529244,21.76282187456689,56.90499999996973
312813.2497,155.48215442995212,123.83743277386397,181.76065875862943,96.35536686798046,56.90599999995902
312813.2507,206.72637039999057,172.91947045809047,222.48610194115307,166.8252086134303,56.90699999994831
312813.2517,252.30907513525887,216.8566602207211,257.2688504746409,231.67968850558566,56.90799999999581
312813.2527,291.37548002220353,254.79491501945188,285.47912387156487,289.67641906521436,56.9089999999851
312813.2537,323.31518859057866,286.113924662893,306.72277782469894,339.8496506666022,56.90999999997439
312813.2547,347.76731665211014,310.4343109573086,320.84225302526585,381.5240155198567,56.91099999996368
312813.2557,364.61531913690123,327.61474096140114,327.9081153673276,414.31614290748274,56.91199999995297
312813.2567,373.97262935219203,337.73999055026815,328.2022693107443,438.12521962836706,56.913000000000466
312813.2577,376.1606161878998,341.1013332032193,322.1942748436898,453.1140138701249,56.913999999989755
312813.2587,371.6806261014277,338.1708809760671,310.5124211430696,459.68217088970647,56.914999999979045
312813.2597,361.18199153226476,329.57161978243715,293.9113007302776,458.43372185304764,56.915999999968335
312813.2607,345.4278610768893,316.0448656461397,273.2375927073204,450.14073434896505,56.916999999957625
312813.2617,325.2605568128775,298.41673989577356,249.39561942960506,435.7048980033926,56.917999999946915
312813.2627,301.5679179427898,277.56504552674204,223.31401328415487,416.1186136154098,56.91899999999441
312813.2637,275.2517813789884,254.3876559597491,195.91455031981167,392.4268763628069,56.9199999999837
312813.2647,247.19941578075733,229.7732350318239,168.08390871714562,365.6909503279631,56.92099999997299
312813.2657,218.25840155374078,204.57482552049564,140.64882444062636,336.9545566392732,56.92199999996228
312813.2667,189.21516632806896,179.58660015121836,114.35487102356166,307.21306756225226,56.92299999995157
312813.2677,160.7771665507723,155.5238836109583,89.84890488705575,277.3860310086598,56.92399999999907
312813.2687,133.5585643029675,133.0064370178645,67.66510211345394,248.29325048624833,56.92499999998836
312813.2697,108.06918675901368,112.54494809678232,48.214467352279065,220.63461011558863,56.92599999997765
312813.2707,84.70656588999456,94.53068214238431,31.777711145508814,194.9738492560764,56.92699999996694
312813.2717,63.7509212094933,79.22830413556039,18.501451093446445,171.72653578247662,56.92799999995623
312813.2727,45.36304527986238,66.77195926603223,8.397772210488927,151.15253653107885,56.92899999994552
312813.2737,29.585153811423147,57.16477350130821,1.3472575370695956,133.35331287046392,56.929999999993015
312813.2747,16.34484319138017,50.28198455782945,-2.8943523471298533,118.2743567055442,56.930999999982305
312813.2757,5.462335461752758,45.87791742205079,-4.685712510366232,105.7130113701057,56.931999999971595
312813.2767,-3.3388321200578535,43.59696454885789,-4.485542081634603,95.33178474636682,56.932999999960884
312813.2777,-10.417606478977119,42.98861414560444,-2.834436300555599,86.67705973126635,56.933999999950174
312813.2787,-16.197797254692954,43.52639431309771,-0.3330365152229066,79.20285027250296,56.93499999999767
312813.2797,-21.147335981811477,44.630378352903485,2.3829953861284925,72.29895828107747,56.93599999998696
312813.2807,-25.754964000830576,45.69264635969651,4.670494210900859,65.32258272683877,56.93699999997625
312813.2817,-30.505153487005483,46.10484431020458,5.9078398256872084,57.63214571011877,56.93799999996554
312813.2827,-35.85230335115489,45.286750552665225,5.524348344547423,48.62186046155785,56.93899999995483
312813.2837,-42.19544156473201,42.714576679117684,3.0286460716578736,37.755399788842446,56.94000000000233
312813.2847,-49.85478229271093,37.947617741306615,-1.9654264562401589,24.596951959768933,56.94099999999162
312813.2857,-59.05151074559495,30.65184252370141,-9.716829626797827,8.837988407304348,56.94199999998091
312813.2867,-69.89208978086106,20.61908758404838,-20.340600601440812,-9.681780971433222,56.9429999999702
312813.2877,-82.35819842096788,7.780690066683559,-33.79751980511867,-30.960528280983034,56.94399999995949
312813.2887,-96.30313189210199,-7.78534367107119,-49.89099273441487,-54.82841066771853,56.94499999994878
312813.2897,-111.45513300757122,-25.85419936991288,-68.27159128902798,-80.95013251526547,56.945999999996275
312813.2907,-127.42771086383728,-46.06132174928107,-88.4492686212882,-108.83596787481468,56.946999999985565
312813.2917,-143.73656543834431,-67.9164466572504,-109.81281179349877,-137.860755954165,56.947999999974854
312813.2927,-159.8223090231643,-90.82394611846944,-131.65565979669066,-167.289915517018,56.948999999964144
312813.2937,-175.07779052330974,-114.10845553874017,-153.20682269077773,-196.3111112458255,56.949999999953434
312813.2947,-188.87851646442022,-137.04443525825647,-173.66531963708576,-224.0698757019753,56.95100000000093
312813.2957,-200.6144475044237,-158.88808606895248,-192.236332845216,-249.70726776825296,56.95199999999022
312813.2967,-209.72134821721474,-178.9099071854885,-208.16716713353705,-272.397547996229,56.95299999997951
312813.2977,-215.70988899387797,-196.42616491180135,-220.78111864711457,-291.38387986175405,56.9539999999688
312813.2987,-218.190840827444,-210.827632053159,-229.50749008931362,-306.01022092735695,56.95499999995809
312813.2997,-216.8949561336561,-221.6041548332864,-233.90623368609295,-315.7478374831197,56.95599999994738
312813.3007,-211.68647304909442,-228.3638907604478,-233.6860392725083,-320.2152402062777,56.95699999999488
312813.3017,-202.56959161803587,-230.84641600123388,-228.7150892674229,-319.1907697265188,56.95799999998417
312813.3027,-189.68771804240706,-228.92929787297757,-219.02414632302066,-312.61752789993704,56.95899999997346
312813.3037,-173.3157254617645,-222.62813767052262,-204.80209224611858,-300.60081891984686,56.95999999996275
312813.3047,-153.84590433908951,-212.09048121911584,-186.38446750915855,-283.39870027230234,56.96099999995204
312813.3057,-131.76864268303487,-197.58434107539864,-164.23594060610614,-261.40661610364583,56.961999999999534
312813.3067,-107.6491609162582,-179.48235097934662,-138.92794117150933,-235.13736940289655,56.962999999988824
312813.3077,-82.10180960454375,-158.24276176429595,-111.11290159471856,-205.19786668631193,56.963999999978114
312813.3087,-55.76350983562307,-134.3885777219661,-81.496657477386,-172.26413089132112,56.964999999967404
312813.3097,-29.267873912428772,-108.48612106796803,-50.810554401583396,-137.05602614730458,56.96599999995669
312813.3107,-3.22139531530643,-81.12420596719656,-19.78470210446366,-100.31298306789208,56.96699999994598
312813.3117,21.81714283935791,-52.89491695709303,10.876379765969393,-62.77177518876583,56.96799999999348
312813.3127,45.35319958079757,-24.376740738303592,40.51474776371805,-25.14710319050918,56.96899999998277
312813.3137,66.96845497203213,3.879478830953747,68.5359893123577,11.884574958461384,56.96999999997206
312813.3147,86.32810037082795,31.361576855006135,94.42181333100612,47.697840170809904,56.97099999996135
312813.3157,103.18364010484675,57.604170464832265,117.73826382493776,81.72787874378139,56.97199999995064
312813.3167,117.37169076995521,82.19411929345979,138.13982557499594,113.4771715000414,56.97299999999814
312813.3177,128.8094785528232,104.77378334530587,155.3699141313214,142.51978594186403,56.97399999998743
312813.3187,137.4878626255488,125.04259229534307,169.25839160964202,168.50379302807275,56.97499999997672
312813.3197,143.46274838678028,142.75743746994672,179.7168188027084,191.1522886603292,56.97599999996601
312813.3207,146.84570237998105,157.7323257583637,186.7321450388125,210.2633898565342,56.9769999999553
312813.3217,147.79445436239794,169.8376090693588,190.35946039673843,225.70941929058117,56.977999999944586
312813.3227,146.50379188629734,178.99894526817275,190.71430740842143,237.43531713924017,56.978999999992084
312813.3237,143.19714452254672,185.19598170501234,187.96489287920667,245.4561555690792,56.97999999998137
312813.3247,138.1189461522939,188.46060561699576,182.32437843788205,249.85350635653407,56.98099999997066
312813.3257,131.52768106697965,188.8744991373547,174.04328345000596,250.77034825774882,56.98199999995995
312813.3267,123.68938528512956,186.5656870832568,163.40192495218173,248.40421175168152,56.98299999994924
312813.3277,114.87130420043323,181.70378220211103,150.7027595205939,242.9983485014175,56.98399999999674
312813.3287,105.33540874733332,174.49371549963723,136.2624875631066,234.8308744764163,56.98499999998603
312813.3297,95.33154294893684,165.16788025304453,120.40382984939123,224.20205235892712,56.98599999997532
312813.3307,85.09010547020772,153.97680118361566,103.44698034071395,211.42012578656602,56.98699999996461
312813.3317,74.81433865963747,141.1786430681649,85.70086372466608,196.7863651640664,56.9879999999539
312813.3327,64.67248725394671,127.0280706545913,67.45446161921046,180.58020055016277,56.9890000000014
312813.3337,54.79026961650458,111.76513873099464,48.968597629673546,163.04547186530394,56.98999999999069
312813.3347,45.24425169897249,95.60500493418323,30.46866861865947,144.37889625087934,56.99099999997998
312813.3357,36.05680583602115,78.72930107222763,12.138861199937729,124.72182106161817,56.991999999969266
312813.3367,27.193356850863108,61.27996138697446,-5.881612731783614,104.15619314547133,56.992999999958556
312813.3377,18.56255830100233,43.35618672402948,-23.499794546784873,82.70543619890391,56.993999999947846
312813.3387,10.01990220689806,25.0150290120621,-40.6674311605297,60.3406040479093,56.99499999999534
312813.3397,1.3750550958041559,6.275825580476379,-57.376438075681165,36.991793614421475,56.99599999998463
312813.3407,-7.5970518255304835,-12.871581322945856,-73.65142391039308,12.564388458541607,56.99699999997392
312813.3417,-17.141647602299408,-32.45521287266206,-89.53955857009733,-13.04070313694311,56.99799999996321
312813.3427,-27.50663375044299,-52.50657903584184,-105.09829567239015,-39.90401783664885,56.9989999999525
312813.3437,-38.92303765766906,-73.04448843106066,-120.38166457876714,-68.06321110875318,57.0
312813.3447,-51.584496009374746,-94.05816843715597,-135.42600969333552,-97.48912826505028,57.00099999998929
312813.3457,-65.62702371637803,-115.49094270960093,-150.23615952158096,-128.0640473342351,57.00199999997858
312813.3467,-81.11040641674295,-137.2257473114304,-164.77304522476317,-159.56382708621737,57.00299999996787
312813.3477,-98.00254446423338,-159.07370998970546,-178.94375352775862,-191.64553068195605,57.00399999995716
312813.3487,-116.1679721480999,-180.7668732983247,-192.59489299938463,-223.84182147615155,57.00499999994645
312813.3497,-135.36158367245406,-201.95592110663094,-205.50998236447444,-255.56306047756607,57.005999999993946
312813.3507,-155.2283294751718,-222.21348445669767,-217.4113455364698,-286.1075987032033,57.006999999983236
312813.3517,-175.30932015488122,-241.0432753004323,-227.96673478133619,-314.6802796918652,57.007999999972526
312813.3527,-195.05441144518466,-257.8949459993903,-236.80061733140556,-340.4186769028287,57.008999999961816
312813.3537,-213.84096498148685,-272.1842198001629,-243.50976934003833,-362.42611636951744,57.009999999951106
312813.3547,-230.99810890700232,-283.3175032044987,-247.68254165840278,-379.8101035062297,57.0109999999986
312813.3557,-245.83548130902483,-290.7198937408531,-248.92091079670348,-391.7244077309196,57.01199999998789
312813.3567,-257.67514735092635,-293.8652519255383,-246.86422002257174,-397.41277868122535,57.01299999997718
312813.3577,-265.8851538470759,-292.3068267960687,-241.21336182809281,-396.2520876203966,57.01399999996647
312813.3587,-269.91303523907584,-285.70681949196893,-231.75406308964617,-387.7926165517231,57.01499999995576
312813.3597,-269.31752075819463,-273.86324465981096,-218.37791415587498,-371.79326004845734,57.01599999994505
312813.3607,-263.79671817413725,-256.73250728590796,-201.09983555929503,-348.24956055034346,57.01699999999255
312813.3617,-253.211165053539,-234.44625195826882,-180.07080044469157,-317.41276199752673,57.01799999998184
312813.3627,-237.6003400732056,-207.32125841119742,-155.58482318276143,-279.7984299090723,57.01899999997113
312813.3637,-217.1915070616367,-175.86144428375414,-128.0794777318467,-236.18363488507077,57.01999999996042
312813.3647,-192.40011185854107,-140.7513830001258,-98.12951268292385,-187.59221346212502,57.02099999994971
312813.3657,-163.82135212322322,-102.84113814176527,-66.4334701621178,-135.26818386298058,57.021999999997206
312813.3667,-132.2129750521784,-63.122639220633204,-33.79357683972276,-80.63797954767922,57.022999999986496
312813.3677,-98.46980700164151,-22.69825824682184,-1.0895390836381778,-25.262742852781475,57.023999999975786
312813.3687,-63.5909595851179,17.257329420582415,30.752778672142178,29.21753518830932,57.024999999965075
312813.3697,-28.641065121171785,55.54052543644693,60.79650285562049,81.14576456999022,57.025999999954365
312813.3707,5.2927533702317895,90.96562050426901,88.13118278251467,128.9127475612262,57.02700000000186
312813.3717,37.14619822130359,122.41297113859532,111.91077961667743,171.02249974858788,57.02799999999115
312813.3727,65.92324267464674,148.87631327867174,131.39039055491034,206.15486590394315,57.02899999998044
312813.3737,90.73948344908092,169.5069348000335,145.95988647699207,233.22242625855952,57.02999999996973
312813.3747,110.86123097116624,183.6524982374217,155.1727402668325,251.41887788647176,57.03099999995902
312813.3757,125.73834086883255,190.8884951261571,158.76851833662965,260.2564188451644,57.03199999994831
312813.3767,135.02907601442837,191.04061817348534,156.6877906320763,259.5901450138343,57.03299999999581
312813.3777,138.61567229903235,184.1967432947671,149.07856975609613,249.6280675722788,57.0339999999851
312813.3787,136.6097422182044,170.70769980889054,136.2937981016189,230.92604133611678,57.03499999997439
312813.3797,129.34716187866,151.17654760752976,118.87983980548148,204.367623490355,57.03599999996368
312813.3807,117.37261958677092,126.43664491549397,97.55637691518301,171.12961816647527,57.03699999995297
312813.3817,101.41452709529662,97.51934766053513,73.188531450718,132.6347638127928,57.038000000000466
312813.3827,82.35147836053389,65.61270027301788,46.7524139407581,90.4936486911446,57.038999999989755
312813.3837,61.17185894750947,32.01292930305744,19.295614784198744,46.43846112553213,57.039999999979045
312813.3847,38.92854043542504,-1.9290887177066205,-8.105607782880279,2.2515681681133017,57.040999999968335
312813.3857,16.690822630175564,-34.863963818512154,-34.390540273820704,-40.30784974330834,57.041999999957625
312813.3867,-4.504097129014225,-65.49998437922602,-58.557668188315915,-79.57580954238838,57.042999999946915
312813.3877,-23.697846446286814,-92.65681434652446,-79.70584939253806,-114.05097542002987,57.04399999999441
312813.3887,-40.05362031128672,-115.31427062529166,-97.07120783551979,-142.4545886936229,57.0449999999837
312813.3897,-52.892983155965815,-132.65399678199478,-110.05815080711702,-163.78030394332788,57.04599999997299
312813.3907,-61.725070274042146,-144.09219320047347,-118.26318131738606,-177.33185810644352,57.04699999996228
312813.3917,-66.26690003140725,-149.3019914101712,-121.49049789232184,-182.74708611814492,57.04799999995157
312813.3927,-66.45393205502981,-148.22454871009245,-119.75873186687619,-180.00743819943176,57.04899999999907
312813.3937,-62.44046151594799,-141.068463232827,-113.29855131974843,-169.43281667208524,57.04999999998836
312813.3947,-54.5899043939879,-128.29764292753197,-102.5412454350902,-151.66220133591662,57.05099999997765
312813.3957,-43.45548241350921,-110.60827859110915,-88.09877820228287,-127.62114139243577,57.05199999996694
312813.3967,-29.752239711950782,-88.89604674167725,-70.73615192301108,-98.47773200507582,57.05299999995623
312813.3977,-14.321698890337638,-64.21508149078512,-51.33723632235626,-65.58914346527058,57.05399999994552
312813.3987,1.9092227346172934,-37.73058838197803,-30.865487160995993,-30.44111530876734,57.054999999993015
312813.3997,17.973176552274317,-10.667215021772211,-10.321189980418485,5.416942249189584,57.055999999982305
312813.4007,32.90920819122976,15.744563925889283,9.302987193243025,40.43848416220565,57.056999999971595
312813.4017,45.80935653147144,40.32174812630783,27.06626889598909,73.1452494212519,57.057999999960884
312813.4027,55.86295400477898,61.97955662188773,42.12200422148677,102.18891676112236,57.058999999950174
312813.4037,62.39665802192866,79.77752168534869,53.756050702534246,126.4065557181996,57.05999999999767
312813.4047,64.90842634906622,92.95906579096633,61.41964335697685,144.86772064121257,57.06099999998696
312813.4057,63.093906190297076,100.98299427245954,64.75529042404645,156.91139561209346,57.06199999997625
312813.4067,56.8640284893382,103.54568998964714,63.614510515040365,162.171416429992,57.06299999996554
312813.4077,46.35297439565772,100.59319121271415,58.066556540273375,160.58945828966853,57.06399999995483
312813.4087,31.91609678300242,92.32275515516687,48.397649471812116,152.41517064181542,57.06500000000233
312813.4097,14.117820910119216,79.17394203169167,35.10065627294515,138.19354925202234,57.06599999999162
312813.4107,-6.290002564434552,61.80968274796124,18.855574545406693,118.74014367586634,57.06699999998091
312813.4117,-28.39838120897557,41.08820157701587,0.5016121338124295,95.10518862937253,57.0679999999702
312813.4127,-51.178784301077286,18.027037470589118,-18.9979485586007,68.52820089614089,57.06899999995949
312813.4137,-73.5263968685169,-6.239271804777415,-38.59655711561461,40.38497931834004,57.06999999994878
312813.4147,-94.30707634729802,-30.50602468550844,-57.20904240797045,12.129263991684,57.070999999996275
312813.4157,-112.40587751966642,-53.54771801377747,-73.75807366498063,-14.768466457114533,57.071999999985565
312813.4167,-126.77493169613322,-74.16786065730237,-87.22031581327379,-38.88246879460589,57.072999999974854
312813.4177,-136.47850194023704,-91.24717532350621,-96.67018091888536,-58.89089860594908,57.073999999964144
312813.4187,-140.7331893272553,-103.78823534889256,-101.31921484598415,-73.63021459401374,57.074999999953434
312813.4197,-138.9415296862518,-110.95478604535148,-100.54940529838834,-82.14262768567744,57.07600000000093
312813.4207,-130.7175817619436,-112.10428512142994,-93.93903978893626,-83.71475822196284,57.07699999999022
312813.4217,-115.90354441631187,-106.81254743263463,-81.28015779872811,-77.90611023481713,57.07799999997951
312813.4227,-94.57692427966542,-94.88977474316047,-62.587102442080514,-64.56647707170323,57.0789999999688
312813.4237,-67.04827385467365,-76.38766685041752,-38.09615150774814,-43.84192607007124,57.07999999995809
312813.4247,-33.84999954149475,-51.59772037687923,-8.256662767197433,-16.169538239349425,57.08099999994738
312813.4257,4.2828333003288,-21.041200395626785,26.285427465948064,17.73843064390458,57.08199999999488
312813.4267,46.43842386585427,14.548404836444401,64.71058735403858,56.91987759358088,57.08299999998417
312813.4277,91.55936855293102,54.24938240084321,106.0537608276232,100.19624520579437,57.08399999997346
312813.4287,138.47735358118857,96.98101298071374,149.2360152777004,146.21232803667428,57.08499999996275
312813.4297,185.94974721879333,141.53669343831967,193.09824662350255,193.48072407291735,57.08599999995204
312813.4307,232.6965315969169,186.61965123496816,236.4355191305483,240.42915411144696,57.086999999999534
312813.4317,277.4362095828688,230.88001580331886,278.0308005721612,285.44895938045164,57.087999999988824
312813.4327,318.9195886934771,272.9521479650284,316.6870995162494,326.9432522817177,57.088999999978114
312813.4337,355.9606521319466,311.49130242576507,351.2572921491645,363.3734124914401,57.089999999967404
312813.4347,387.46404492510476,345.2088877956841,380.67121079704964,393.30286418171323,57.09099999995669
312813.4357,412.44899977355027,372.9057713316597,403.95982608700615,415.4373135489864,57.09199999994598
312813.4367,430.06977529158365,393.50323216120665,420.2765645224112,428.66084592604426,57.09299999999348
312813.4377,439.63285778912524,406.0712822133095,428.91594465254855,432.067460570546,57.09399999998277
312813.4387,440.61127379421356,409.8541395889244,429.3297777337842,424.98774774410856,57.09499999997206
312813.4397,432.6563705063402,404.29265263406177,421.14116160570626,407.01048365653685,57.09599999996135
312813.4407,415.6073510046842,389.0434394012979,404.15640721663124,377.9989387240197,57.09699999995064
312813.4417,389.4987145251302,363.99443758632515,378.3748915975472,338.1016747372021,57.09799999999814
312813.4427,354.5655705806993,329.27647038985987,343.99665109757865,287.75756362213394,57.09899999998743
312813.4437,311.246594903752,285.27034316403825,301.4273402298163,227.6947143663998,57.09999999997672
312813.4447,260.1842029317118,232.6089142431089,251.28001160228504,158.9229660286368,57.10099999996601
312813.4457,202.22135990954544,172.17354996362164,194.37304665620744,82.7196125760425,57.1019999999553
312813.4467,138.3943493748514,105.08439432303392,131.72350678055676,0.6080848126162426,57.102999999944586
312813.4477,69.92080199468359,32.68396895947974,64.53519517435775,-85.6705644553528,57.103999999992084
312813.4487,-1.8176446271601363,-43.486225891405496,-5.819170632045202,-174.1933406023384,57.10499999998137
312813.4497,-75.29852475647002,-121.71621576649675,-77.82207794262875,-262.8978757269137,57.10599999997066
312813.4507,-148.88778640566795,-200.1649851974356,-149.84175500367684,-349.6313136251532,57.10699999995995
312813.4517,-220.87500419894232,-276.9043352565243,-220.16890935504588,-432.20461190541585,57.10799999994924
312813.4527,-289.51410414094636,-349.9683071471956,-287.05907370953594,-508.4510237902233,57.10899999999674
312813.4537,-353.0687501072714,-417.40695738509885,-348.7795718843487,-576.2871977165814,57.10999999998603
312813.4547,-409.8611564222744,-477.34293676111236,-403.65974148012117,-633.7750476562092,57.11099999997532
312813.4557,-458.32274187554145,-528.0290400674129,-450.14272080569623,-679.1823255949648,57.11199999996461
312813.4567,-497.0447573724949,-567.9046799755063,-486.8368523546265,-711.0396913045939,57.1129999999539
312813.4577,-524.8268278075349,-595.6491162733566,-512.5645968248151,-728.1920401566389,57.1140000000014
312813.4587,-540.7212685417408,-610.2292554140336,-526.4068067669128,-729.8419279028342,57.11499999999069
312813.4597,-544.0710803811081,-610.9399330016465,-527.7402862823133,-715.5831256380997,57.11599999997998
312813.4607,-534.5396978308277,-597.4348041400826,-516.2667631330731,-685.4226445802319,57.116999999969266
312813.4617,-512.1308581298507,-569.7462866233799,-492.03171395557376,-639.7899773453955,57.117999999958556
312813.4627,-477.1973586904503,-528.2934155885166,-455.43189572653733,-579.5327916225716,57.118999999947846
312813.4637,-430.437955607898,-473.87695483985675,-407.21092406038395,-505.8988592016861,57.11999999999534
312813.4647,-372.8821969523405,-407.6616437689761,-348.4427729318719,-420.5045794059046,57.12099999998463
312813.4657,-305.8635483565717,-331.14601032858576,-280.50361942176033,-325.2910297157838,57.12199999997392
312813.4667,-230.9817198501374,-246.12071905283585,-205.03298851315031,-222.46901577181507,57.12299999996321
312813.4677,-150.05560761758002,-154.61691841264485,-123.88563557775849,-114.45506758681492,57.1239999999525
312813.4687,-65.068691407227,-58.846476287071575,-39.07601022833171,-3.800711932405103,57.125
312813.4697,21.890947566164932,38.86367697137442,47.28254768791271,106.88237872683568,57.12599999998929
312813.4707,108.69361985214195,136.1406583354562,133.04153648653707,214.99861682617166,57.12699999997858
312813.4717,193.23158962282082,230.63565535728668,216.08153126006496,318.04335522774994,57.12799999996787
312813.4727,273.4808173798517,320.09234553665243,294.37456913132877,413.6737328071955,57.12899999995716
312813.4737,347.55866974209096,402.41133243692263,366.0424807732109,499.77311455658764,57.12999999994645
312813.4747,413.7756583067296,475.7084599544307,429.4092278396132,574.5070714837983,57.130999999993946
