TimeStamp,ECR,FCR,ECU,FCU,time_index
312767.3437,-1.0859785270443372,-1.896828109458665,-3.1533398196039464,-0.8944668962777239,11.0
312767.3447,-1.6010901998357108,-2.735216971389939,-2.8241926982163688,-1.6407048062775182,11.00099999998929
312767.3457,-2.104827632098954,-3.49416515840553,-2.4077104814174817,-2.32939857146912,11.00199999997858
312767.3467,-2.6133344052273464,-4.181890780654193,-1.9463449719550454,-2.973475640609157,11.00299999996787
312767.3477,-3.1402490181855884,-4.806566859391605,-1.4826316389187106,-3.5845504171354126,11.00399999995716
312767.3487,-3.6930722763202346,-5.373133627724458,-1.0547664324086405,-4.169541974621214,11.004999999946449
312767.3497,-4.270199293040082,-5.880684962778478,-0.6927322025300732,-4.7279574283704635,11.005999999993946
312767.3507,-4.858978250066381,-6.320754854966319,-0.415360641751275,-5.2501699818239205,11.006999999983236
312767.3517,-5.435052855634237,-6.676731500840425,-0.2286184303631667,-5.716915128406095,11.007999999972526
312767.3527,-5.963112893355053,-6.924503896754728,-0.12528090739161088,-6.10009919161449,11.008999999961816
312767.3537,-6.39903074292592,-7.034311195908472,-0.08601571831652446,-6.364874391009329,11.009999999951106
312767.3547,-6.693216051521328,-6.973632275805823,-0.08175657391222542,-6.472798087504247,11.010999999998603
312767.3557,-6.794890535517884,-6.710835502487548,-0.07711762817734834,-6.385774630031911,11.011999999987893
312767.3567,-6.6568833470484545,-6.219218626400365,-0.03449486116719512,-6.070388443706435,11.012999999977183
312767.3577,-6.240484854070955,-5.481015452748472,0.08156753060205407,-5.502185907697737,11.013999999966472
312767.3587,-5.5198795016669395,-4.490935109082819,0.3001937185342369,-4.669456582758915,11.014999999955762
312767.3597,-4.4857086032220845,-3.258832886152732,0.6406049295705455,-3.576102508362018,11.015999999945052
312767.3607,-3.147388737124284,-1.8111858882224545,1.1095276766155597,-2.2432641638796236,11.01699999999255
312767.3617,-1.5339237830338286,-0.19115513596718225,1.699850685455708,-0.7094856976801162,11.01799999998184
312767.3627,0.30691228888434663,1.5428520578616598,2.3906746344078758,0.9706608113332067,11.018999999971129
312767.3637,2.3109924079904527,3.3200624523125057,3.1487595068125023,2.7294252947536832,11.019999999960419
312767.3647,4.4016728428283995,5.061462769793113,3.931234625291535,4.489994567230022,11.020999999949709
312767.3657,6.494734042073585,6.684850348013192,4.689310173486362,6.171538799907159,11.021999999997206
312767.3667,8.504005361935308,8.110393072973537,5.372628747543123,7.694762853955114,11.022999999986496
312767.3677,10.347187244694865,9.266226677322951,5.9338311608344485,8.987482231121334,11.023999999975786
312767.3687,11.951364516013111,10.093605092022527,6.332888729797211,9.989735209622216,11.024999999965075
312767.3697,13.257732622815087,10.55115270860679,6.540776780183569,10.657980878629248,11.025999999954365
312767.3707,14.225132211987619,10.617843271089274,6.542128904691244,10.968013789716759,11.027000000001863
312767.3717,14.832099414289575,10.294441663127749,6.336612154765065,10.916342170583539,11.027999999991152
312767.3727,15.077278767482749,9.603281610998845,5.938889878014237,10.519917024518875,11.028999999980442
312767.3737,14.97819940022739,8.586401344139723,5.377178754084934,9.814250532675672,11.029999999969732
312767.3747,14.568568011553214,7.302206380424161,4.69054583113013,8.85010948396071,11.030999999959022
312767.3757,13.894369469943136,5.820959819899472,3.9252161532880034,7.689098819934641,11.031999999948312
312767.3767,13.009174166474537,4.219503334633458,3.1302594415502223,6.398549361388385,11.032999999995809
312767.3777,11.969120044507251,2.5756766581147827,2.3530854464545903,5.046182878797971,11.033999999985099
312767.3787,10.828059811043921,0.9629237159458393,1.6351958688768216,3.6950412520435627,11.034999999974389
312767.3797,9.633338065592358,-0.5544522017567318,1.0086142420327417,2.3991333373663832,11.035999999963678
312767.3807,8.42259158319165,-1.9249909784988317,0.4933464396025128,1.200176679670992,11.036999999952968
312767.3817,7.221855910658317,-3.1124483529772076,0.09612029169799845,0.12569896916928672,11.038000000000466
312767.3827,6.045123769044364,-4.096682958245241,-0.1894765286040254,-0.8113727680266826,11.038999999989755
312767.3837,4.895349252313367,-4.873046865515434,-0.38148279120859563,-1.6116553369282447,11.039999999979045
312767.3847,3.76674162759744,-5.450412667094858,-0.5068363963564597,-2.286949661778882,11.040999999968335
312767.3857,2.6480587312135873,-5.848098928972308,-0.5977196926768343,-2.856869994517943,11.041999999957625
312767.3867,1.5265059725506058,-6.092057038185591,-0.6873594315794791,-3.3448507738686213,11.042999999946915
312767.3877,0.3917833171963772,-6.2107463219940175,-0.8057212406792411,-3.773977212109216,11.043999999994412
312767.3887,-0.7601941634391134,-6.231144809333652,-0.9755525283856377,-4.163097894567786,11.044999999983702
312767.3897,-1.9243446550878278,-6.1753184355186805,-1.209196288589417,-4.523643662904437,11.045999999972992
312767.3907,-3.0846016923457777,-6.057904621866995,-1.506524227167176,-4.857500309205463,11.046999999962281
312767.3917,-4.213478956125797,-5.884763936660308,-1.85422807101728,-5.15617085153515,11.047999999951571
312767.3927,-5.273124118553055,-5.652926386264746,-2.2265734697363757,-5.401327569833278,11.048999999999069
312767.3937,-6.217812737414155,-5.351819655748894,-2.587574682376393,-5.566708082851273,11.049999999988358
312767.3947,-6.997680577491147,-4.965629333374588,-2.894404595493843,-5.621168085429589,11.050999999977648
312767.3957,-7.5633580566991245,-4.476519594807517,-3.1017276948213697,-5.5325800629074,11.051999999966938
312767.3967,-7.871067323760972,-3.868349175753296,-3.1665459873044015,-5.272174665418154,11.052999999956228
312767.3977,-7.887681291519221,-3.1304611141104415,-3.053089308821895,-4.818868746426253,11.053999999945518
312767.3987,-7.595231234106499,-2.26111136636509,-2.7372679496899526,-4.163116702108398,11.054999999993015
312767.3997,-6.99438706074796,-1.2701324031110073,-2.2102387131012824,-3.309860593087436,11.055999999982305
312767.4007,-6.106518970430958,-0.18050027586968964,-1.4807124845287403,-2.2802359542929134,11.056999999971595
312767.4017,-4.974073143424135,0.9714196585425453,-0.5757449649875673,-1.1118063958356903,11.057999999960884
312767.4027,-3.659145858815894,2.1370426371636784,0.4601083335188475,0.1427601436170353,11.058999999950174
312767.4037,-2.240305624990556,3.2581027480243328,1.5672396959327133,1.4185108285630714,11.059999999997672
312767.4047,-0.8078758955957955,4.270373643657006,2.674856190665982,2.642315047941567,11.060999999986961
312767.4057,0.5419638109855122,5.10826374851091,3.70594905373029,3.7379244582199016,11.061999999976251
312767.4067,1.7137869517167093,5.709884587180832,4.582943915995515,4.631555282775592,11.062999999965541
312767.4077,2.6196966392460324,6.022135411933148,5.233544992105945,5.25750652543421,11.06399999995483
312767.4087,3.1857057825725272,6.005335466249193,5.596266570196802,5.563317781618292,11.065000000002328
312767.4097,3.35718646685279,5.6369684128989155,5.625172831946016,5.514007147861212,11.065999999991618
312767.4107,3.1029332260558835,4.914178746144737,5.2934195417672685,5.095009933479259,11.066999999980908
312767.4117,2.417505305317883,3.8547703790316903,4.595301496432983,4.313554893033774,11.067999999970198
312767.4127,1.3216637301488152,2.496592614713052,3.5466471904051544,3.1983555103713113,11.068999999959487
312767.4137,-0.13911415740537791,0.8953455274545719,2.1835536664068735,1.797646077637961,11.069999999948777
312767.4147,-1.8978927331482385,-0.8790186326796446,0.5596053809655285,0.17574143454093513,11.070999999996275
312767.4157,-3.871006643488857,-2.74699289150013,-1.2581434041981543,-1.5915689263244523,11.071999999985565
312767.4167,-5.963835127784076,-4.624906657133782,-3.1940357176988163,-3.422379645115068,11.072999999974854
312767.4177,-8.07711538884697,-6.4305432548790025,-5.1690724504293515,-5.234305838864975,11.073999999964144
312767.4187,-10.11325443886015,-8.088498680094377,-7.106086284283729,-6.949904362519481,11.074999999953434
312767.4197,-11.982115875282984,-9.534824161085181,-8.934371696142442,-8.501416770965344,11.076000000000931
312767.4207,-13.605823804601687,-10.72056603873275,-10.593380939890423,-9.834443858148243,11.076999999990221
312767.4217,-14.92223379975122,-11.613923649860086,-12.035200455349736,-10.910271110631996,11.077999999979511
312767.4227,-15.886859495002563,-12.200878979757766,-13.22565337920681,-11.70669942365021,11.0789999999688
312767.4237,-16.473199367390933,-12.484297936053053,-14.144018415497353,-12.217382696432855,11.07999999995809
312767.4247,-16.671565981905804,-12.481648026331598,-14.781498618168724,-12.449818983154582,11.08099999994738
312767.4257,-16.486663930129964,-12.221606932784967,-15.13870114039294,-12.422270498240115,11.081999999994878
312767.4267,-15.934278719762633,-11.739938380442384,-15.222487798097852,-12.159987367333516,11.082999999984168
312767.4277,-15.037515626990217,-11.075075911327007,-15.04261634759752,-11.691170860754339,11.083999999973457
312767.4287,-13.823057578707699,-10.263875506582375,-14.608607556757292,-11.043128063856953,11.084999999962747
312767.4297,-12.317891723816977,-9.337972540619955,-13.927241848564636,-10.239040069611807,11.085999999952037
312767.4307,-10.54688766636567,-8.321109896906131,-13.001014609482368,-9.29569293718996,11.086999999999534
312767.4317,-8.531503297082756,-7.227699063404492,-11.827768684911996,-8.222412233046635,11.087999999988824
312767.4327,-6.289757774788126,-6.062745080811727,-10.40158730639019,-7.021308893202489,11.088999999978114
312767.4337,-3.8374594685881784,-4.823122329094544,-8.71488445567918,-5.688799824182642,11.089999999967404
312767.4347,-1.1905251803266899,-3.5000455913441737,-6.761487422897894,-4.218225650707071,11.090999999956694
312767.4357,1.631908607396857,-2.0824538024944945,-4.540382733630322,-2.603264584653765,11.091999999945983
312767.4367,4.603987198550127,-0.5609250428062442,-2.059704637314669,-0.841748091469918,11.09299999999348
312767.4377,7.689720751736932,1.0683194128539946,0.6595051328884969,1.060569524515133,11.09399999998277
312767.4387,10.84013343623828,2.799780646863093,3.5802407271382575,3.086743604744291,11.09499999997206
312767.4397,13.991427813080886,4.615846258626508,6.647607561808464,5.206291124873002,11.09599999996135
312767.4407,17.064529925635295,6.485109063891527,9.788368011635047,7.374097790799973,11.09699999995064
312767.4417,19.96625610640967,8.362086728003113,12.912168013640887,9.530798421434618,11.097999999998137
312767.4427,22.592188800673455,10.188453282888547,15.914502098031083,11.604707005960439,11.098999999987427
312767.4437,24.83118037685827,11.89574524122682,18.681310174694232,13.515220350960297,11.099999999976717
312767.4447,26.57123713877651,13.409358390563666,21.094939652858706,15.177470892607793,11.100999999966007
312767.4457,27.706386805865485,14.65352060068093,23.0410664467205,16.50787454106021,11.101999999955297
312767.4467,28.14401627359711,15.556823873552645,24.416061708081145,17.430121123397416,11.102999999944586
312767.4477,27.812094230532207,16.05783541903674,25.134228309277383,17.88109790375517,11.103999999992084
312767.4487,26.66567281157576,16.110289040466373,25.134318732474075,17.816226663832,11.104999999981374
312767.4497,24.692096681676496,15.687386521460798,24.38478599637812,17.21373329911576,11.105999999970663
312767.4507,21.91443441644379,14.784811461256016,22.887308594728047,16.077452556937235,11.106999999959953
312767.4517,18.392778505779333,13.422168290179616,20.678261551930138,14.437891807493092,11.107999999949243
312767.4527,14.22322524715866,11.642696592198119,17.827967127539484,12.351425387484106,11.10899999999674
312767.4537,9.534529556146174,9.51126236705308,14.437736084904342,9.897651347935117,11.10999999998603
312767.4547,4.482615868803401,7.11077915759037,10.634887933884622,7.175100424435413,11.11099999997532
312767.4557,-0.7567018187909703,4.537348789196923,6.566100290497109,4.295628007742205,11.11199999996461
312767.4567,-5.9962954630625065,1.8945209969743586,2.3895690546691677,1.3779307418685296,11.1129999999539
312767.4577,-11.046998629388318,-0.7128566990572593,-1.7334491140471437,-1.4593000795212097,11.114000000001397
312767.4587,-15.726937590733707,-3.184699383997076,-5.647100259514598,-4.104052246467351,11.114999999990687
312767.4597,-19.870278597884166,-5.431174013315994,-9.208803094357856,-6.456982049435003,11.115999999979977
312767.4607,-23.334811077590235,-7.377198300794756,-12.295989210575526,-8.436278351673499,11.116999999969266
312767.4617,-26.00789310232822,-8.965629759094842,-14.811284872681831,-9.981069430854935,11.117999999958556
312767.4627,-27.810429288975037,-10.15895288247856,-16.685847261171517,-11.053177858644034,11.118999999947846
312767.4637,-28.698718700809586,-10.939415043398373,-17.8807300038688,-11.63718055531426,11.119999999995343
312767.4647,-28.66418575203783,-11.307705471395064,-18.386320033015622,-11.738883142188183,11.120999999984633
312767.4657,-27.731174470293627,-11.280402792077439,-18.220044778993756,-11.382455342345818,11.121999999973923
312767.4667,-25.95313073039886,-10.886522484545106,-17.422681226430036,-10.606584497212197,11.122999999963213
312767.4677,-23.407605662628924,-10.163566303705538,-16.05369475684961,-9.46007709358535,11.123999999952503
312767.4687,-20.19057741849467,-9.153504784999958,-14.18608798467148,-7.99736710246776,11.125
312767.4697,-16.410603339981414,-7.899109130783575,-11.90124434347307,-6.274372846433904,11.12599999998929
312767.4707,-12.183280628021407,-6.440992154983009,-9.284209057439611,-4.345083504925449,11.12699999997858
312767.4717,-7.626415863755726,-4.815625755313787,-6.4197669163222395,-2.2591589816290187,11.12799999996787
312767.4727,-2.8561913904307588,-3.054484315972066,-3.389561460134824,-0.06070303231448521,11.12899999995716
312767.4737,2.0155179807826014,-1.1843317766984256,-0.27036622091405316,2.211767821356443,11.129999999946449
312767.4747,6.882666859829743,0.7714615954876634,2.8665202916708816,4.524273824692464,11.130999999993946
312767.4757,11.64552402567284,2.790804902646362,5.954913707356251,6.845476327685427,11.131999999983236
312767.4767,16.21035870410996,4.8502995322933025,8.93268169034312,9.144268301951795,11.132999999972526
312767.4777,20.48864896951928,6.922561470620439,11.740318605092218,11.387240626225898,11.133999999961816
312767.4787,24.396174254826963,8.973851483696782,14.319527485851404,13.536429202579674,11.134999999951106
312767.4797,27.85235104922201,10.96238498253646,16.612168600409603,15.547719098911584,11.135999999998603
312767.4807,30.78012454393431,12.837626304943857,18.559880419247985,17.370211612279416,11.136999999987893
312767.4817,33.10664466582438,14.540771251460807,20.104589017427404,18.946755529689376,11.137999999977183
312767.4827,34.76484199498023,16.00649705716382,21.190005559297113,20.215715546667266,11.138999999966472
312767.4837,35.69588987299055,17.16592305708596,21.764081045664188,21.113911849063502,11.139999999955762
312767.4847,35.85240767980752,17.95059179994719,21.78225695640918,21.580529467278097,11.140999999945052
312767.4857,35.20214118215751,18.297162809416058,21.211233905289397,21.561678092203003,11.14199999999255
312767.4867,33.73176224163823,18.152421604510693,20.032890695648693,21.015194847654595,11.14299999998184
312767.4877,31.450372680797123,17.47815428969265,18.24793332936959,19.915233400758048,11.143999999971129
312767.4887,28.39228276317983,16.255428699458502,15.878843983649412,18.256178283655277,11.144999999960419
312767.4897,24.618666192722177,14.487858219496822,12.971735767721615,16.055464528417346,11.145999999949709
312767.4907,20.21776874782485,12.203501135493227,9.596797633419424,13.354966293152133,11.146999999997206
312767.4917,15.303460103132283,9.455159721863678,5.847128185211568,10.22073648969175,11.147999999986496
312767.4927,10.01205765085376,6.318978901068405,1.8358966455589338,6.741021451318279,11.148999999975786
312767.4937,4.497503954052236,2.8913913986256006,-2.3080794655314913,3.022626949244828,11.149999999965075
312767.4947,-1.0748689532039855,-0.7153990507389172,-6.446101984857335,-0.8141401532377143,11.150999999954365
312767.4957,-6.535619728041322,-4.3790764619052895,-10.436336259412956,-4.641600818537045,11.152000000001863
312767.4967,-11.719047736914247,-7.973593305854152,-14.141062632204974,-8.33145096633507,11.152999999991152
312767.4977,-16.471072661803042,-11.375790967856977,-17.43390649019874,-11.761616328881798,11.153999999980442
312767.4987,-20.656584882584973,-14.471759244800538,-20.206505518518806,-14.822692464247543,11.154999999969732
312767.4997,-24.165738740197195,-17.162460912733074,-22.374109004199617,-17.423482536100078,11.155999999959022
312767.5007,-26.918738745365687,-19.368216646589786,-23.879686073322897,-19.49522455047063,11.156999999948312
312767.5017,-28.868786856553108,-21.031750513921367,-24.696240254457276,-20.99421518657845,11.157999999995809
312767.5027,-30.003006313650086,-22.119626692732105,-24.82717565461533,-21.902678172265368,11.158999999985099
312767.5037,-30.34132059086316,-22.622051407191382,-24.30472159698283,-22.22787796151487,11.159999999974389
312767.5047,-29.933429762451155,-22.551156623721123,-23.186582792848924,-21.99962982799796,11.160999999963678
312767.5057,-28.854175888810566,-21.938010293929896,-21.551126153887715,-21.2664912819158,11.161999999952968
312767.5067,-27.19771030500099,-20.828699869354914,-19.49152993726616,-20.091024527071504,11.163000000000466
312767.5077,-25.070958060071014,-19.279902107101325,-17.10939565761627,-18.544585961225195,11.163999999989755
312767.5087,-22.58691113097108,-17.35437704446946,-14.508351544887935,-16.7021207286103,11.164999999979045
312767.5097,-19.8582697833741,-15.116805738425809,-11.788156177913814,-14.637416616967345,11.165999999968335
312767.5107,-16.991892609304983,-12.630332458600435,-9.039744813944617,-12.419205137362406,11.166999999957625
312767.5117,-14.084416817571348,-9.95407895747298,-6.341555761058559,-10.108395529362582,11.167999999946915
312767.5127,-11.219281552195493,-7.141780983751347,-3.757340476413443,-7.756600192993962,11.168999999994412
312767.5137,-8.465241392992038,-4.241567448490651,-1.3355121316078031,-5.405970522087225,11.169999999983702
312767.5147,-5.876309251955535,-1.2967738283982975,0.8900622685478631,-3.0902242628792287,11.170999999972992
312767.5157,-3.492932167236241,1.6524334367251738,2.898056994849294,-0.836623045814466,11.171999999962281
312767.5167,-1.3440931809542218,4.566934005963839,4.676809759898428,1.3314362637912727,11.172999999951571
312767.5177,0.5500419333657566,7.406399175286936,6.220982702830079,3.391610960164043,11.173999999999069
312767.5187,2.1753460480674605,10.127287272899668,7.528202195008722,5.3199929871337055,11.174999999988358
312767.5197,3.5212196849463493,12.681442940869653,8.596099803668846,7.08906284636238,11.175999999977648
312767.5207,4.578690710715192,15.015587935323579,9.420115520004964,8.666530387100588,11.176999999966938
312767.5217,5.339374797624674,17.071892250852294,9.992326218191177,10.015273318710591,11.177999999956228
312767.5227,5.7954273810059656,18.789693035505294,10.301437562778027,11.094458363306625,11.178999999945518
312767.5237,5.940485014928695,20.10829716576524,10.333939142820478,11.861793567902593,11.179999999993015
312767.5247,5.771461944557318,20.970674887344973,10.07628473540881,12.276727354700428,11.180999999982305
312767.5257,5.2909505552940885,21.327739804684583,9.517836462512228,12.3042940627081,11.181999999971595
312767.5267,4.509884802882655,21.142826432128388,8.654215891029983,11.919219052920749,11.182999999960884
312767.5277,3.4500736635713847,20.395929548997476,7.49064678032973,11.109848111992171,11.183999999950174
312767.5287,2.1462031486803954,19.08726519235552,6.044859416252945,9.881461337748998,11.184999999997672
312767.5297,0.6469421323984322,17.239752586416312,4.349157145859058,8.258572048764359,11.185999999986961
312767.5307,-0.9851338756661268,14.90009664168098,2.45131915978947,6.285893199986162,11.186999999976251
312767.5317,-2.6749732268474773,12.138264799251024,0.4141227865041785,4.027769824721212,11.187999999965541
312767.5327,-4.337867771663745,9.045289488712987,-1.6865970220217357,1.56601523593808,11.18899999995483
312767.5337,-5.8835491751533935,5.72947545297846,-3.7652868916956215,-1.0037622071986079,11.190000000002328
312767.5347,-7.221307055663027,2.3112356472883255,-5.731204797140539,-3.577110441947381,11.190999999991618
312767.5357,-8.265751374131652,-1.0830934888917663,-7.493805092892159,-6.046605971284926,11.191999999980908
312767.5367,-8.94275147263654,-4.328009153051887,-8.968545948485497,-8.308195109234184,11.192999999970198
312767.5377,-9.195036826054926,-7.305665235007747,-10.08262848270526,-10.267498092565917,11.193999999959487
312767.5387,-8.986945877687706,-9.91224170589857,-10.780165015272928,-11.8455620702952,11.194999999948777
312767.5397,-8.307860528309913,-12.063374284612664,-11.02630980110748,-12.983588631402485,11.195999999996275
312767.5407,-7.173961300694903,-13.698235712782928,-10.80996660513653,-13.646245386947475,11.196999999985565
312767.5417,-5.628073673346204,-14.781974165936985,-10.14480634291716,-13.823291592701311,11.197999999974854
312767.5427,-3.7375374802723735,-15.306354772229657,-9.0684738531181,-13.529393732937148,11.198999999964144
312767.5437,-1.5902037968114262,-15.288603819732367,-7.6400220818259,-12.802164741145463,11.199999999953434
312767.5447,0.7111687538018931,-14.768607662438919,-5.935769544141437,-11.698615280568285,11.201000000000931
312767.5457,3.0556997297404305,-13.804755355370206,-4.043917925724168,-10.290342663222043,11.201999999990221
312767.5467,5.331824516421008,-12.468822922839395,-2.058377625723023,-8.65788962372828,11.202999999979511
312767.5477,7.434788201739876,-10.840367875449775,-0.07231925537754574,-6.884771268401334,11.2039999999688
312767.5487,9.273587172673269,-9.001128814494598,1.828008223190776,-5.0516879614823145,11.20499999995809
312767.5497,10.776791670758712,-7.029904668772355,3.568679192261943,-3.2314130445847473,11.20599999994738
312767.5507,11.89677554514634,-4.998323757453898,5.092273884706062,-1.484770114478272,11.206999999994878
312767.5517,12.612015539765009,-2.9678111614561615,6.360517490559393,0.14199753384092956,11.207999999984168
312767.5527,12.927289388384745,-0.987934089371791,7.355195862796983,1.6183017600595264,11.208999999973457
312767.5537,12.871784558243274,0.9038381175203506,8.07732768490345,2.928717642654186,11.209999999962747
312767.5547,12.495310949882827,2.6810658386946686,8.544733241274455,4.071064701114751,11.210999999952037
312767.5557,11.862974560703925,4.3261985646778784,8.788285367816039,5.053336226023782,11.211999999999534
312767.5567,11.048800027613455,5.827700120989057,8.847244964429736,5.88985766019162,11.212999999988824
312767.5577,10.128876123303598,7.176844169587161,8.764160639755108,6.597121868033131,11.213999999978114
312767.5587,9.174631936546948,8.364607856741644,8.57984251674224,7.189770704163708,11.214999999967404
312767.5597,8.246829799206203,9.379070190241135,8.328901390182795,7.677166791759455,11.215999999956694
312767.5607,7.390786404957878,10.203658187248232,8.036278512130252,8.060929716394963,11.216999999945983
312767.5617,6.633213325580191,10.816484681235927,7.7150850539117455,8.333704128009396,11.21799999999348
312767.5627,5.980913840288432,11.190897078017837,7.36593438937147,8.479294323472562,11.21899999998277
312767.5637,5.421399345695489,11.29721898168071,6.9777982151147455,8.47415408843822,11.21999999997206
312767.5647,4.925312011756664,11.105530398968298,6.530264116670553,8.29007645899305,11.22099999996135
312767.5657,4.4503773332852825,10.589210980599312,5.996932485057266,7.897799955333254,11.22199999995064
312767.5667,3.946475897692899,9.728876793443673,5.349578242301745,7.2711484564879925,11.222999999998137
312767.5677,3.361330275743704,8.516284069076404,4.562628465432056,6.391261081784756,11.223999999987427
312767.5687,2.6462586507987473,6.9577592353408875,3.6174777447883013,5.250452257551457,11.224999999976717
312767.5697,1.761455063958921,5.0767450767326485,2.506181561589698,3.855272210844985,11.225999999966007
312767.5707,0.6803153294009142,2.915125455994944,1.2341320224043446,2.22841152564548,11.226999999955297
312767.5717,-0.6075687430585452,0.5330988881073007,-0.17857661885897275,0.409202938369961,11.227999999944586
312767.5727,-2.094986904503281,-1.9924958726373554,-1.6972534568197752,-1.547391498366106,11.228999999992084
312767.5737,-3.757342761480524,-4.5713539420833165,-3.274200964081775,-3.5732726290053782,11.229999999981374
312767.5747,-5.554462392954681,-7.104186432614027,-4.851654875909433,-5.590995669235023,11.230999999970663
312767.5757,-7.433751080922073,-9.4881911589137,-6.3658048072462865,-7.518552451850938,11.231999999959953
312767.5767,-9.334346237101641,-11.623092790288341,-7.7515190272024235,-9.274736684970732,11.232999999949243
312767.5777,-11.191828746165987,-13.417271449898518,-8.94732688611731,-10.784624065771878,11.23399999999674
312767.5787,-12.943014813835296,-14.793480874385558,-9.900186765655162,-11.9846835346847,11.23499999998603
312767.5797,-14.530359255670195,-15.693685281243985,-10.5695884794554,-12.827066815497648,11.23599999997532
312767.5807,-15.905557313185637,-16.08261558740382,-10.930604535473934,-13.28269770472615,11.23699999996461
312767.5817,-17.03202913095677,-15.949753960868827,-10.975607928660443,-13.342893138330046,11.2379999999539
312767.5827,-17.8860984990059,-15.309590726818298,-10.714504783171158,-13.019384124588454,11.239000000001397
312767.5837,-18.456821889146706,-14.20014670836078,-10.1734751363067,-12.34275295373183,11.239999999990687
312767.5847,-18.744570091732218,-12.679903162112854,-9.39235999627865,-11.359449258904231,11.240999999979977
312767.5857,-18.758597688397888,-10.823416606413252,-8.420963114011473,-10.127677322713955,11.241999999969266
312767.5867,-18.513941412468142,-8.716004451498103,-7.314638778164952,-8.712547938416998,11.242999999958556
312767.5877,-18.02805622023556,-6.447959432016444,-6.129602240424995,-7.180950443215522,11.243999999947846
312767.5887,-17.31762063595249,-4.108779964524173,-4.918420752539805,-5.596618352412144,11.244999999995343
312767.5897,-16.395918311919477,-1.781887414238815,-3.726118699316182,-4.0158338325682275,11.245999999984633
312767.5907,-15.27113333535376,0.4597580738841079,-2.587262581494849,-2.4841450834826135,11.246999999973923
312767.5917,-13.945789838146538,2.5568278336532084,-1.524287589439745,-1.0343638011896068,11.247999999963213
312767.5927,-12.417433071500119,4.465389239408413,-0.5471977713116207,0.31402198131807746,11.248999999952503
312767.5937,-10.680503242537032,6.157211314190839,0.3453705554470328,1.554028044875514,11.25
312767.5947,-8.729210410735462,7.618698005603868,1.1638731268872595,2.6890966355971058,11.25099999998929
312767.5957,-6.561093776392576,8.848663356794933,1.924645507440818,3.7300357124666914,11.25199999997858
312767.5967,-4.1808552143888065,9.855265849540016,2.6461263249656404,4.691344569432446,11.25299999996787
312767.5977,-1.604005272638093,10.652487941251998,3.344946089095602,5.587352940621608,11.25399999995716
312767.5987,1.1401437457602834,11.256574992911894,4.032325733708195,6.428614062305923,11.254999999946449
312767.5997,4.006557207225414,11.682833208695458,4.711197413445065,7.218960345673016,11.255999999993946
312767.6007,6.933958142500578,11.943130976339916,5.37438586127751,7.953556605921211,11.256999999983236
312767.6017,9.84590695437964,12.04435825371814,6.004079052385379,8.6181776806319,11.257999999972526
312767.6027,12.653525908596036,11.987983952167912,6.572682839733632,9.189805686546737,11.258999999961816
312767.6037,15.259749204843159,11.770723629506765,7.045008937791283,9.638500405023951,11.259999999951106
312767.6047,17.5648211489546,11.386202472285172,7.381603625591377,9.930358692162942,11.260999999998603
312767.6057,19.47262851700635,10.827384672496375,7.542900071800276,10.031259337587137,11.261999999987893
312767.6067,20.89735254564791,10.089451632673901,7.493782863121311,9.911000632800816,11.262999999977183
312767.6077,21.769871718932727,9.172757122304246,7.208098865908922,9.547388255795033,11.263999999966472
312767.6087,22.043344888432248,8.085473211536135,6.672639838282701,8.929826224473418,11.264999999955762
312767.6097,21.697456471056977,6.8455681088889415,5.8901606591283455,8.062004463189467,11.265999999945052
312767.6107,20.740907541241466,5.481823280786291,4.881079466881109,6.963359265298654,11.26699999999255
312767.6117,19.211879751329835,4.033695815218025,3.6836248999697916,5.669099725676938,11.26799999998184
312767.6127,17.17637032803113,2.5499529798480935,2.3523398830367714,4.228732734124559,11.268999999971129
312767.6137,14.724480234247235,1.0861370617989354,0.9550073334062545,2.7031677084154344,11.269999999960419
312767.6147,11.96491694712724,-0.29895349612948313,-0.4317841517170435,1.160625256945666,11.270999999949709
312767.6157,9.01813145725627,-1.5474690582243225,-1.7280818618248612,-0.32830280641971593,11.271999999997206
312767.6167,6.008631188670912,-2.607018585251955,-2.8565614345677015,-1.6960035754889031,11.272999999986496
312767.6177,3.0570850205097453,-3.4350561086668545,-3.7485516249323543,-2.8831150998781876,11.273999999975786
312767.6187,0.27285631175037245,-4.002710946417898,-4.3495583083009635,-3.8432292197760525,11.274999999965075
312767.6197,-2.2524372566320325,-4.297667103735704,-4.623789765721017,-4.546578562499538,11.275999999954365
312767.6207,-4.449828843708254,-4.325775713711292,-4.557267185619052,-4.982349211470081,11.277000000001863
312767.6217,-6.276000355137797,-4.111195652771851,-4.159225655853943,-5.159384168362294,11.277999999991152
312767.6227,-7.714169539062859,-3.6949911526857924,-3.4616606147860614,-5.105190182980487,11.278999999980442
312767.6237,-8.772848658975244,-3.132258568576125,-2.5170389351089786,-4.86331781823304,11.279999999969732
312767.6247,-9.482643183861072,-2.4879936472067556,-1.394357249133292,-4.489336725199316,11.280999999959022
312767.6257,-9.89142800903409,-1.832032166320469,-0.17387752699197187,-4.045760437772522,11.281999999948312
312767.6267,-10.058375377137601,-1.233488799535542,1.0590124961133938,-3.596374821056903,11.282999999995809
312767.6277,-10.04740057457454,-0.7551724026802491,2.2202896706082207,-3.200481973042839,11.283999999985099
312767.6287,-9.920630557095675,-0.44846519441822646,3.233583358138912,-2.9075812584828507,11.284999999974389
312767.6297,-9.73248383072747,-0.34911730577257266,4.035729449796791,-2.752970188549649,11.285999999963678
312767.6307,-9.524879362648628,-0.4743300235342565,4.581129087217986,-2.7546636602904897,11.286999999952968
312767.6317,-9.323975223564185,-0.8213879126635754,4.844562412524084,-2.9119085656611547,11.288000000000466
312767.6327,-9.138685574902953,-1.3679623837476313,4.822250347717306,-3.205423453511435,11.288999999989755
312767.6337,-8.961052199327085,-2.0740600257926967,4.531117487279062,-3.599333708915109,11.289999999979045
312767.6347,-8.768370486002913,-2.8854421149445213,4.0063715472782215,-4.044616642290581,11.290999999968335
312767.6357,-8.526806269034177,-3.738210875339704,3.2976641891830583,-4.483732666380703,11.291999999957625
312767.6367,-8.196104435316961,-4.564155515452961,2.4642204969595483,-4.85601136082432,11.292999999946915
312767.6377,-7.734895196506949,-5.296386305252915,1.5694086612116,-5.103294694674642,11.293999999994412
312767.6387,-7.106057801817679,-5.874763915259871,0.6752599711314142,-5.175320096857353,11.294999999983702
312767.6397,-6.281607938031116,-6.250655675740052,-0.16256107344961412,-5.034355048520593,11.295999999972992
312767.6407,-5.24663273174955,-6.390617787691806,-0.8988942334997829,-4.658669407203177,11.296999999962281
312767.6417,-4.0018998482801695,-6.278706219520037,-1.5019848839473784,-4.044544420033139,11.297999999951571
312767.6427,-2.5649041255389857,-5.917249022319702,-1.9549351440074592,-3.2066573851689366,11.298999999999069
312767.6437,-0.9692727340098023,-5.3260566008182755,-2.2556382689828265,-2.176834662693675,11.299999999988358
312767.6447,0.7373875982662772,-4.540190335389673,-2.4152807003414267,-1.0013184474416534,11.300999999977648
312767.6457,2.4969661578721034,-3.6065401748101142,-2.4556355214494134,0.2631702078678858,11.301999999966938
312767.6467,4.245285550696648,-2.5795661006059514,-2.4054852139993934,1.554181222810347,11.302999999956228
312767.6477,5.917051492072291,-1.516626957984013,-2.2965895003107195,2.808637741532673,11.303999999945518
312767.6487,7.450823653308805,-0.4733468163742074,-2.159648310200034,3.967806109147672,11.304999999993015
312767.6497,8.79352360253009,0.5005483675552737,-2.020697551616667,4.981671844758253,11.305999999982305
312767.6507,9.904051697721407,1.364550281405738,-1.8983181084169434,5.812327448554894,11.306999999971595
312767.6517,10.755682872112132,2.0895653578441613,-1.8019425679583914,6.436083048229331,11.307999999960884
312767.6527,11.337041333524434,2.6588315602680734,-1.731419709574189,6.844143009986001,11.308999999950174
312767.6537,11.6516028803322,3.067531319351559,-1.677856734339441,7.041837452886465,11.309999999997672
312767.6547,11.71582562639507,3.3212114999163744,-1.6256181024628469,7.0465425553098715,11.310999999986961
312767.6557,11.556149966909729,3.4332422605383646,-1.5552322557971243,6.884553214819605,11.311999999976251
312767.6567,11.20522242796971,3.4216421235709427,-1.4468566241000467,6.587273174300508,11.312999999965541
312767.6577,10.697774145140677,3.305657004850477,-1.2838875928112568,6.187151157882115,11.31399999995483
312767.6587,10.066615476821152,3.1025004110357948,-1.0562822049209817,5.713810702951271,11.315000000002328
312767.6597,9.339190648997988,2.8246386867945796,-0.7631844782837329,5.190794503090995,11.315999999991618
312767.6607,8.535072225819912,2.477941587060471,-0.41451886215328565,4.633274070125307,11.316999999980908
312767.6617,7.6646711929929285,2.0609211251968422,-0.03131962385806196,4.04696957273341,11.317999999970198
312767.6627,6.7293051640612065,1.5651605718140233,0.355302797548359,3.4283935961649914,11.318999999959487
312767.6637,5.72261829081211,0.976903021870868,0.706512530018472,2.766389588583411,11.319999999948777
312767.6647,4.633197116299124,0.27963865041966474,0.9792272674107061,2.0447954012490155,11.320999999996275
312767.6657,3.448092189011938,-0.5425849985360705,1.1304103789075575,1.2459388302347045,11.321999999985565
312767.6667,2.156849663809012,-1.5014927484475786,1.1217642438872244,0.35457800348689106,11.322999999974854
312767.6677,0.7555914309532953,-2.60096547885597,0.924355934876206,-0.6381555026460369,11.323999999964144
312767.6687,-0.749336315399599,-3.8339004718903595,0.5226954218959234,-1.7312629881186163,11.324999999953434
312767.6697,-2.338595251437497,-5.179936421597328,-0.08217663420685528,-2.911250361795909,11.326000000000931
312767.6707,-3.978339031711375,-6.604355860088657,-0.870952593143612,-4.150702020745281,11.326999999990221
312767.6717,-5.620202618624869,-8.05836892993514,-1.8059147043321402,-5.408278879781745,11.327999999979511
312767.6727,-7.202903520770132,-9.480850391398501,-2.832480841303921,-6.630223383581899,11.3289999999688
312767.6737,-8.6554005114182,-10.801459234853974,-3.882376154501116,-7.753304277202939,11.32999999995809
312767.6747,-9.901395540797955,-11.944931159277921,-4.878211506384872,-8.708987680327203,11.33099999994738
312767.6757,-10.8648217875878,-12.836212160116666,-5.739110920074872,-9.428493042398278,11.331999999994878
312767.6767,-11.47584945396559,-13.406008688668395,-6.38692274564686,-9.848295599657398,11.332999999984168
312767.6777,-11.676872425155361,-13.596275714444037,-6.752483515257155,-9.91558082205435,11.333999999973457
312767.6787,-11.427920673177908,-13.36515429415135,-6.781386297851664,-9.593146931039955,11.334999999962747
312767.6797,-10.710977872022136,-12.690906436436102,-6.438738966240053,-8.863290290495783,11.335999999952037
312767.6807,-9.532768606623105,-11.574474248208418,-5.71247951523246,-7.730292067227437,11.336999999999534
312767.6817,-7.925707415239962,-10.040405498663727,-4.614938176612504,-6.2212454080216695,11.337999999988824
312767.6827,-5.946861112573182,-8.136028289530168,-3.1824883873945162,-4.385109231398969,11.338999999978114
312767.6837,-3.674951692247084,-5.928910432711474,-1.4732966218217047,-2.2900337672470683,11.339999999967404
312767.6847,-1.2056031773479081,-3.5027901251090046,0.4366509132535893,-0.019159149836769397,11.340999999956694
312767.6857,1.3548044955745824,-0.9522994201774618,2.4589143624470062,2.3347731439774355,11.341999999945983
312767.6867,3.8961832384771293,1.6230918370847225,4.498906228264704,4.67554858502568,11.34299999999348
312767.6877,6.312110371827814,4.1254164744625355,6.462603220969628,6.9098336348855645,11.34399999998277
312767.6887,8.506919455897355,6.464317231986918,8.26309744851551,8.953222412323035,11.34499999997206
312767.6897,10.401922298012126,8.562427666590382,9.826439713016859,10.735472872670867,11.34599999996135
312767.6907,11.940251638666172,10.359602686021065,11.096296644611444,12.204505655217114,11.34699999995064
312767.6917,13.089935810388232,11.815681650859421,12.037055364416656,13.328853922601095,11.347999999998137
312767.6927,13.844973302085291,12.911601630645352,12.635153581322829,14.098395543104404,11.348999999987427
312767.6937,14.224352014655576,13.648827913336333,12.898575744055945,14.523356176746423,11.349999999976717
312767.6947,14.269138539882228,14.047219100194171,12.854621667019037,14.63172824149951,11.350999999966007
312767.6957,14.03793020995473,14.141580948173239,12.546207315214497,14.465391526659834,11.351999999955297
312767.6967,13.601101436692057,13.977273807615095,12.027083872017831,14.075333137408379,11.352999999944586
312767.6977,13.034373272852388,13.605312903875799,11.356449205405903,13.516437106441277,11.353999999992084
312767.6987,12.412282479732175,13.077432251100353,10.593467556827735,12.842340857134683,11.354999999981374
312767.6997,11.802119806555291,12.441569267794343,9.792205378256067,12.100834681544494,11.355999999970663
312767.7007,11.25884799342423,11.738170177083218,8.997435216049446,11.330214091858558,11.356999999959953
312767.7017,10.821404545561593,10.997622176863985,8.241661490247742,10.556890281521504,11.357999999949243
312767.7027,10.5106533210974,10.238996856441311,7.5435920512666685,9.794431637370982,11.35899999999674
312767.7037,10.329086470554865,9.470152691393455,6.90813061004901,9.044062543406891,11.35999999998603
312767.7047,10.262210231285447,8.689106300520955,6.327812325316801,8.296499186728912,11.36099999997532
312767.7057,10.281390837646086,7.886456144910923,5.785463027529686,7.534870167035212,11.36199999996461
312767.7067,10.347805441128521,7.048540809991013,5.25774557209362,6.738365328024245,11.3629999999539
312767.7077,10.417049823448549,6.160946726586236,4.719175885978726,5.886189469416603,11.364000000001397
312767.7087,10.443908315027626,5.211953464910703,4.146153993728584,4.96137476899882,11.364999999990687
312767.7097,10.386795490515023,4.195520800164189,3.5205649001556143,3.9540287546337494,11.365999999979977
312767.7107,10.211432657722241,3.113478541297414,2.8325592222761977,2.8636608562171415,11.366999999969266
312767.7117,9.893418766214783,1.976671518963662,2.0822179555658904,1.7003329843643002,11.367999999958556
312767.7127,9.419484774716569,0.804928594337685,1.2799298844229252,0.48450768055822535,11.368999999947846
312767.7137,8.787369176089554,-0.3741459458031665,0.4454511433155289,-0.7543919239566129,11.369999999995343
312767.7147,8.004404891819807,-1.5274309941595428,-0.3942401054600633,-1.9805571426033446,11.370999999984633
312767.7157,7.08504841919415,-2.619353860669304,-1.2080496182481526,-3.155227478799926,11.371999999973923
312767.7167,6.0476965076088085,-3.615428381783718,-1.9644836534583177,-4.240612149167354,11.372999999963213
312767.7177,4.911212015703045,-4.485876418431296,-2.6355568797286932,-5.203871957359891,11.373999999952503
312767.7187,3.691611085465084,-5.208928038797589,-3.2004465715137798,-6.020721669574871,11.375
312767.7197,2.399345148037285,-5.7734227217737795,-3.6484687614926594,-6.678246206162371,11.37599999998929
312767.7207,1.0375453224720412,-6.180400725424392,-3.981017331031682,-7.17659965654477,11.37699999997858
312767.7217,-0.39850991656609835,-6.443473834827053,-4.212210617875483,-7.529367009550415,11.37799999996787
312767.7227,-1.9205795586883998,-6.587888147708595,-4.368121804874882,-7.762503660133303,11.37899999995716
312767.7237,-3.5453257936613514,-6.648326078607507,-4.484616044000572,-7.911913794520132,11.379999999946449
312767.7247,-5.291042147787901,-6.665626871943163,-4.603964291979503,-8.0198710732499,11.380999999993946
312767.7257,-7.173563100183252,-6.682721260996058,-4.770536370770095,-8.130609287851051,11.381999999983236
312767.7267,-9.201781939699002,-6.740164609567385,-5.025980327506688,-8.285504205767069,11.382999999972526
312767.7277,-11.373269785297204,-6.871704694067999,-5.404360933062158,-8.51832092686172,11.383999999961816
312767.7287,-13.670505754548872,-7.100329573325623,-5.927750055307296,-8.851007960476228,11.384999999951106
312767.7297,-16.058193456396623,-7.4352062554250145,-6.602733066856563,-9.290478614303606,11.385999999998603
312767.7307,-18.48205465955888,-7.869844935689277,-7.4182205331508415,-9.826735547685333,11.386999999987893
312767.7317,-20.869364434865897,-8.381713348891227,-8.344839862836087,-10.43257321885452,11.387999999977183
312767.7327,-23.131334832254318,-8.933391568789126,-9.336037993169436,-11.064946801481826,11.388999999966472
312767.7337,-25.16728093173735,-9.475212139083057,-10.330867031829854,-11.667938836795058,11.389999999955762
312767.7347,-26.870330346778278,-9.949187663291909,-11.258265183837667,-12.177101479420262,11.390999999945052
312767.7357,-28.134281557915195,-10.293901689335462,-12.042500500760006,-12.524817463303826,11.39199999999255
312767.7367,-28.86109296171929,-10.44994117468029,-12.609328914354126,-12.646219919636613,11.39299999998184
312767.7377,-28.968405460879808,-10.365389598984832,-12.892341907448913,-12.485150001275606,11.393999999971129
312767.7387,-28.396474911269767,-10.000884873329568,-12.83895053372263,-11.99961802940886,11.394999999960419
312767.7397,-27.11391999610773,-9.333777348503222,-12.41547436218428,-11.16627014974221,11.395999999949709
312767.7407,-25.121774110504287,-8.360997844610852,-11.610874573389626,-9.983445137238567,11.396999999997206
312767.7417,-22.45545956796249,-7.100356976250801,-10.438783563859559,-8.472527489827824,11.397999999986496
312767.7427,-19.18446746348136,-5.590134908279983,-8.937628724227338,-6.677452093493877,11.398999999975786
312767.7437,-15.40971212495416,-3.8869723053583227,-7.168812234543638,-4.662378707119863,11.399999999965075
312767.7447,-11.258718619001037,-2.062224582285297,-5.213076703482418,-2.5077161962345422,11.400999999954365
312767.7457,-6.87897825760636,-0.197078587982335,-3.165342872208135,-0.30482187112604997,11.402000000001863
312767.7467,-2.4299547197683355,1.623159128049064,-1.1284361313788942,1.8501829586432128,11.402999999991152
312767.7477,1.9256707998178857,3.3151204673501433,0.7937885576827092,3.862964613738019,11.403999999980442
312767.7487,6.030872223857778,4.803269332577324,2.503366843947036,5.647350831454808,11.404999999969732
312767.7497,9.742626458431426,6.025136917017505,3.9146367369485704,7.13100266752417,11.405999999959022
312767.7507,12.93914927710877,6.935467016146245,4.959640456280347,8.25992857768284,11.406999999948312
312767.7517,15.525536273244684,7.50894019259574,5.592110721042661,9.001493263767756,11.407999999995809
312767.7527,17.437468911745537,7.741275206706188,5.789765966962401,9.345712338020261,11.408999999985099
312767.7537,18.64281374475817,7.6486524775526865,5.554790916034536,9.304779061548523,11.409999999974389
312767.7547,19.14112015542468,7.265553692542125,4.912538196196771,8.910926657042255,11.410999999963678
312767.7557,18.961192181636164,6.641250073866199,3.9086383606652633,8.212874227453641,11.411999999952968
312767.7567,18.157057652231217,5.835286419306589,2.6048356808097957,7.271222730929004,11.413000000000466
312767.7577,16.802770098221988,4.912388416487596,1.073963773734469,6.153249003851932,11.413999999989755
312767.7587,14.986546407823939,3.9372598023148284,-0.6054698200073768,4.927583384172108,11.414999999979045
312767.7597,12.804761217738417,2.9697306511405506,-2.35461168520437,3.6592472847859505,11.415999999968335
312767.7607,10.356287722119982,2.0606696725453393,-4.09906080372808,2.405472880987314,11.416999999957625
312767.7617,7.737598890373965,1.2489872741843375,-5.772771146992703,1.2126340369171384,11.417999999946915
312767.7627,5.0389322028738475,0.559941274603786,-7.320800940604778,0.11449554696294983,11.418999999994412
312767.7637,2.3416873689615727,0.004825189697110338,-8.700779274180723,-0.8681507341462332,11.419999999983702
312767.7647,-0.28291554715955836,-0.41801687246213387,-9.883095692772986,-1.726535247579855,11.420999999972992
312767.7657,-2.7740257710453005,-0.7210311285458681,-10.849946220550992,-2.4618472864701006,11.421999999962281
312767.7667,-5.0804227976937275,-0.9244380495379116,-11.593477172691955,-3.0823654826640006,11.422999999951571
312767.7677,-7.159156081443933,-1.0527196914083112,-12.113345655810596,-3.6001595402769357,11.423999999999069
312767.7687,-8.973915230146892,-1.1310057710997352,-12.41405572288996,-4.0277701603329,11.424999999988358
312767.7697,-10.493483992856627,-1.1817478227677203,-12.502428627422507,-4.375260454951284,11.425999999977648
312767.7707,-11.690590952467062,-1.222025198415833,-12.385525674131564,-4.647977318244973,11.426999999966938
312767.7717,-12.54139304663607,-1.261746901690815,-12.069268041246843,-4.845271453825377,11.427999999956228
312767.7727,-13.025724099070334,-1.3029079982391503,-11.55789839923112,-4.96030980648634,11.428999999945518
312767.7737,-13.128121501956644,-1.339939834604219,-10.85431547237247,-4.980986254000522,11.429999999993015
312767.7747,-12.839523623325645,-1.3610720456267715,-9.961197538149172,-4.891809073032594,11.430999999982305
312767.7757,-12.15942209460753,-1.3505139132278332,-8.882726922582007,-4.676530262711317,11.431999999971595
312767.7767,-11.098169213932817,-1.2911744149073983,-7.62664623180756,-4.321194172441707,11.432999999960884
312767.7777,-9.67909102335078,-1.1675832693216919,-6.206327304779417,-3.8172302397132367,11.433999999950174
312767.7787,-7.940047305806837,-0.9686551962989577,-4.642521245569779,-3.1642025942935317,11.434999999997672
312767.7797,-5.934112658507704,-0.6899583856170659,-2.9644840161268053,-2.371859250765247,11.435999999986961
312767.7807,-3.729125316616016,-0.33520373388577296,-1.210234450685803,-1.4611926976624843,11.436999999976251
312767.7817,-1.4059556781240896,0.0832421041980241,0.5742061565784777,-0.46432497326573824,11.437999999965541
312767.7827,0.9445258859963533,0.544908452055266,2.3366310992714596,0.5768464705278596,11.43899999995483
312767.7837,3.225665285668024,1.0228068516406155,4.021438965386582,1.6131732550709201,11.440000000002328
312767.7847,5.340176025226239,1.4859045681888048,5.573198146137104,2.5917537799105315,11.440999999991618
312767.7857,7.19586287311744,1.9022354214165134,6.940685304173922,3.460096352617598,11.441999999980908
312767.7867,8.711472458956274,2.242320511626673,8.081025905785381,4.170558564673165,11.442999999970198
312767.7877,9.822183047094503,2.482527560612748,8.963529150564916,4.684630442868123,11.443999999959487
312767.7887,10.484249367894131,2.6079924444651823,9.572814916286976,4.976628772419383,11.444999999948777
312767.7897,10.678369034178832,2.6147611975554113,9.910877343909364,5.036413782482968,11.445999999996275
312767.7907,10.41143112984097,2.5108823813484236,9.997814852576285,4.870823464910846,11.446999999985565
312767.7917,9.716437058745377,2.3162814915428416,9.871072195724127,4.503637432566541,11.447999999974854
312767.7927,8.650537069745784,2.061371105370702,9.58317590267544,3.974020328156799,11.448999999964144
312767.7937,7.2912888642572735,1.7844806281635086,9.198087134129286,3.333540998504006,11.449999999953434
312767.7947,5.731401993127032,1.5283146596372157,8.786431694840909,2.6420036060775733,11.451000000000931
312767.7957,4.072368307217114,1.3357563444160543,8.41998218270688,1.9624466507078224,11.451999999990221
312767.7967,2.41748126684385,1.2454103709490831,8.165850254817535,1.3557534305833487,11.452999999979511
312767.7977,0.8648052601171852,1.2873210488539197,8.080888943030976,0.8753637257919606,11.4539999999688
312767.7987,-0.49933582789031467,1.4792992567799979,8.206800890772744,0.5625763366211709,11.45499999995809
312767.7997,-1.6058250186078882,1.8242472895857162,8.56639773844136,0.44288494135999573,11.45599999994738
312767.8007,-2.406739242987911,2.3087862936896912,9.161362594511814,0.5236995337499568,11.456999999994878
312767.8017,-2.8775536801084924,2.9033745808356732,9.9717397118132,0.7936806751402482,11.457999999984168
312767.8027,-3.017418900138568,3.5639674434539375,10.957224701659268,1.2237656321777752,11.458999999973457
312767.8037,-2.8475378498666974,4.23512319535259,12.060168773336398,1.7698081959452994,11.459999999962747
312767.8047,-2.407838048045701,4.854320054725265,13.210056518952403,2.37660261427443,11.460999999952037
312767.8057,-1.7522836272112954,5.357127822174801,14.329083196837177,2.982931171862896,11.461999999999534
312767.8067,-0.9432880363232076,5.682789020746162,15.338357002965298,3.5271771951004975,11.462999999988824
312767.8077,-0.04576042097220563,5.779715299786791,16.164194103071722,3.952990187745253,11.463999999978114
312767.8087,0.8786597505622584,5.61040170143514,16.743964867279516,4.214482902311769,11.464999999967404
312767.8097,1.7766561603166364,5.155304747251331,17.030989876977056,4.280482289925526,11.465999999956694
312767.8107,2.6071337044434792,4.415316657824334,16.998070245627478,4.1374436041224225,11.466999999945983
312767.8117,3.343639049525179,3.4125896507147937,16.63936063980198,3.7907612591919446,11.46799999999348
312767.8127,3.975132312459552,2.1896100135977137,15.97044352792162,3.264359580014054,11.46899999998277
312767.8137,4.5051037798594695,0.8065779760608726,15.026625542295115,2.5986070964355097,11.46999999997206
312767.8147,4.94919326987334,-0.6626983338633301,13.859636176867232,1.8467542184832137,11.47099999996135
312767.8157,5.331615855186358,-2.136052694013716,12.533050422034822,1.0702310637196872,11.47199999995064
312767.8167,5.680811975465976,-3.5289093649426633,11.116867158304107,0.333246820876894,11.472999999998137
312767.8177,6.02481136692706,-4.76042337744432,9.681743997285038,-0.30280563838920166,11.473999999987427
312767.8187,6.386821845888016,-5.75929002133788,8.29341056224338,-0.7846220271432183,11.474999999976717
312767.8197,6.781523827516358,-6.4687336352674025,7.007754312225264,-1.071453150696142,11.475999999966007
312767.8207,7.212472673811764,-6.850263314697011,5.866999034406852,-1.1383640908992174,11.476999999955297
312767.8217,7.670891489211943,-6.885898153035588,4.89728357807324,-0.9780034417331686,11.477999999944586
312767.8227,8.135988799015115,-6.578706117680503,4.107808476748784,-0.6007451325476079,11.478999999992084
312767.8237,8.576773504212024,-5.95165514602437,3.4915645767272285,-0.03322260322604448,11.479999999981374
312767.8247,8.955179869243858,-5.044927835925306,3.027505664269618,0.684570909993818,11.480999999970663
312767.8257,9.23017414625154,-3.9119877319735377,2.683891127320789,1.5033064085005647,11.481999999959953
312767.8267,9.362406082422602,-2.6147928213878147,2.422417991946535,2.3690534321673753,11.482999999949243
312767.8277,9.31890412317343,-1.2186204540429728,2.2026943813721687,3.228247474339867,11.48399999999674
312767.8287,9.07729944469512,0.21300869497885017,1.9865847693568757,4.032397629791237,11.48499999998603
312767.8297,8.629102866062492,1.6228435806452177,1.7419830290563698,4.742074573357649,11.48599999997532
312767.8307,7.981646845292948,2.963456411668001,1.4456392306207377,5.329797207993826,11.48699999996461
312767.8317,7.1584338963103455,4.199545653401716,1.084773070170735,5.781551937253367,11.4879999999539
312767.8327,6.197790494596494,5.308828640201286,0.6573397485274233,6.096819955244131,11.489000000001397
312767.8337,5.149896553814762,6.281508975807211,0.1709595542021376,6.287141122906475,11.489999999990687
312767.8347,4.072428083894176,7.11844791932975,-0.3593343626167451,6.373392684035069,11.490999999979977
312767.8357,3.025198086105724,7.8282978675579,-0.9142489614800983,6.3820923930925035,11.491999999969266
312767.8367,2.0642932985846616,8.423957244199643,-1.473906818246175,6.341135524153059,11.492999999958556
312767.8377,1.2362705188407688,8.918769784648639,-2.0216080808811383,6.2754337565038485,11.493999999947846
312767.8387,0.5729887315484415,9.322911302547967,-2.5472301217689894,6.20293522377021,11.494999999995343
312767.8397,0.08761010936832707,9.640381813817807,-3.049850124740009,6.1314678698216385,11.495999999984633
312767.8407,-0.2277925714109273,9.866953130514014,-3.539253306850115,6.056766257772542,11.496999999973923
312767.8417,-0.40272408872552207,9.989318672247869,-4.036102891743017,5.961923138932962,11.497999999963213
312767.8427,-0.48672337538319177,9.985563725345052,-4.570686207992922,5.8183630592190205,11.498999999952503
312767.8437,-0.54584790571571,9.826933615693331,-5.180300749177349,5.588280212251402,11.5
312767.8447,-0.6574299034503267,9.480738338276499,-5.905489879631067,5.22833190434782,11.50099999998929
312767.8457,-0.903513969638592,8.914108987743893,-6.785465532995519,4.6942472603487,11.50199999997858
312767.8467,-1.3635164916067546,8.098226177182157,-7.853151839074504,3.945911222786095,11.50299999996787
312767.8477,-2.106730642269484,7.012583065191192,-9.130339176304155,2.9524264305451733,11.50399999995716
312767.8487,-3.185328751031248,5.648831486281414,-10.623446649072786,1.6966460884737145,11.504999999946449
312767.8497,-4.628483286880665,4.013790586193874,-12.320350919648108,0.17871069835976305,11.505999999993946
312767.8507,-6.438141024723121,2.131270479945479,-14.18865386216016,-1.5817930049551485,11.506999999983236
312767.8517,-8.586849752155274,0.04247182133898979,-16.175638236438598,-3.5453093235480346,11.507999999972526
312767.8527,-11.017865193378391,-2.1951446103541237,-18.21001078654652,-5.653536069625579,11.508999999961816
312767.8537,-13.647573120511469,-4.510478987839632,-20.205369768819924,-7.8323398035000915,11.509999999951106
312767.8547,-16.37006525032323,-6.822721693250441,-22.065174133009098,-9.996153274206186,11.510999999998603
312767.8557,-19.063525145538694,-9.04628102855368,-23.68884950131484,-12.053504736592622,11.511999999987893
312767.8567,-21.59792826936023,-11.096300692644382,-24.97855521307817,-13.913220732335054,11.512999999977183
312767.8577,-23.843452039567843,-12.894297312755162,-25.84606764967288,-15.490777825273046,11.513999999966472
312767.8587,-25.678936563296848,-14.373431227435336,-26.21921454998619,-16.714260991952614,11.514999999955762
312767.8597,-26.999739137759423,-15.482952338002855,-26.047325252704482,-17.529418608317826,11.515999999945052
312767.8607,-27.72438469617995,-16.191434549695458,-25.305240181675206,-17.903383209143257,11.51699999999255
312767.8617,-27.799524098121676,-16.488520343264025,-23.995542335881005,-17.82674593599216,11.51799999998184
312767.8627,-27.202861877614186,-16.38503109642784,-22.148823129966868,-17.313819608999474,11.518999999971129
312767.8637,-25.94389061609456,-15.91144616525006,-19.8219609350264,-16.40108678795236,11.519999999960419
312767.8647,-24.06245419112649,-15.114900435520173,-17.09455788789168,-15.143989849584264,11.520999999949709
312767.8657,-21.62533986365942,-14.054982160898817,-14.063833727773382,-13.612364969882695,11.521999999997206
312767.8667,-18.721253610482165,-12.798717957032048,-10.838400744335411,-11.884937518285394,11.522999999986496
312767.8677,-15.45465088082365,-11.415199998213225,-7.531430249068587,-10.043372165788124,11.523999999975786
312767.8687,-11.938966373445396,-9.970335522542983,-4.2537609172310304,-8.166400263501448,11.524999999965075
312767.8697,-8.289806385707715,-8.522178615611853,-1.1074898991860902,-6.324527525161261,11.525999999954365
312767.8707,-4.6186356521394005,-7.117241181765619,1.819469580182328,-4.575759175375318,11.527000000001863
312767.8717,-1.027412140439281,-5.788080404339583,4.457479236192087,-2.962674334799071,11.527999999991152
312767.8727,2.3954928702997065,-4.552333692540014,6.757661012826848,-1.5110470480101452,11.528999999980442
312767.8737,5.577893434512486,-3.4132314672782336,8.692671863582211,-0.23006123712908103,11.529999999969732
312767.8747,8.464862218998222,-2.361476802757009,10.25581748157405,0.8859844178055037,11.530999999959022
312767.8757,11.018381556814365,-1.3782525367794083,11.458698825958228,1.8547235535818836,11.531999999948312
312767.8767,13.21580359411316,-0.43901326407439395,12.327706491325312,2.70187440966971,11.532999999995809
312767.8777,15.047447869947982,0.482348624383914,12.899765081793248,3.456925048193747,11.533999999985099
312767.8787,16.5137218784795,1.4094007194442493,13.217775354161141,4.148810097326951,11.534999999974389
312767.8797,17.62216315601616,2.3595536351393687,13.326202698448915,4.802022512468709,11.535999999963678
312767.8807,18.384770442939413,3.3412929360009818,13.267217654919392,5.433544969137052,11.536999999952968
312767.8817,18.815921271574226,4.352530422847045,13.077713002099664,6.0508893062375835,11.538000000000466
312767.8827,18.931072708372582,5.3802262833298,12.787411548643776,6.651409032644441,11.538999999989755
312767.8837,18.746322774384787,6.401300831804735,12.41815093402978,7.222912015932271,11.539999999979045
312767.8847,18.278785931851115,7.384721272426158,11.98429986022405,7.745462158632021,11.540999999968335
312767.8857,17.54762098339805,8.294528421923774,11.494137829857776,8.194134149555268,11.541999999957625
312767.8867,16.57545671971842,9.0934726123663,10.951930111307655,8.542386823204186,11.542999999946915
312767.8877,15.389900162712662,9.74686655243461,10.360361367432157,8.765658140723264,11.543999999994412
312767.8887,14.024791226326656,10.226241819681388,9.722961877997133,8.844764516335086,11.544999999983702
312767.8897,12.520888711679195,10.512416915896807,9.046172225310372,8.76871105714198,11.545999999972992
312767.8907,10.925733836864064,10.59764623888714,8.340744073604423,8.536584685478191,11.546999999962281
312767.8917,9.292532638534809,10.486614684358939,7.622260508232668,8.158302275237045,11.547999999951571
312767.8927,7.678017465759656,10.196162265340604,6.910670025748152,7.6541105214582155,11.548999999999069
312767.8937,6.139377573912296,9.75375504831049,6.228851797028407,7.052870438434749,11.549999999988358
312767.8947,4.730475263267541,9.19484952958907,5.600352983257423,6.389293095007733,11.550999999977648
312767.8957,3.4976729090533847,8.559414063542887,5.046548339171062,5.700410595490565,11.551999999966938
312767.8967,2.4756749682254595,7.887961254265674,4.58355606676321,5.0216551447771565,11.552999999956228
312767.8977,1.683827888111595,7.217500065556166,4.219292403259722,4.382969874377085,11.553999999945518
312767.8987,1.1233139948796917,6.577830033976179,3.9510547851661455,3.805382322362404,11.554999999993015
312767.8997,0.7756217235888219,5.9885707268029735,3.763987841658788,3.2984337994248687,11.555999999982305
312767.9007,0.6025775896564903,5.457250086142308,3.6307105536488256,2.8587786040359013,11.556999999971595
312767.9017,0.5480932379217307,4.978672188304676,3.5122734839425145,2.4701536638390955,11.557999999960884
312767.9027,0.5416256636016763,4.535658256339638,3.360482423138817,2.104782671926631,11.558999999950174
312767.9037,0.5031848559273011,4.101116932061074,3.1214820694426475,1.7261325808960808,11.559999999997672
312767.9047,0.3495664980621738,3.641264466022059,2.740354754608706,1.2927989548220793,11.560999999986961
312767.9057,0.0013535052350894937,3.1196960881138316,2.1663689459521764,0.7631743818905329,11.561999999976251
312767.9067,-0.6098671807816204,2.5019183613194422,1.3584230012775385,0.10046341424900189,11.562999999965541
312767.9077,-1.5346764598063225,1.7598981087909908,0.29018135225496355,-0.7224421502311,11.56399999995483
312767.9087,-2.7999845500965956,0.8761722533879516,-1.0456009467011707,-1.718716807527965,11.565000000002328
312767.9097,-4.404725382260002,-0.1529038426902171,-2.634021911812939,-2.884428100448173,11.565999999991618
312767.9107,-6.31751869610473,-1.3151170094024114,-4.43660811410049,-4.196792038759966,11.566999999980908
312767.9117,-8.476583853087165,-2.5818036066946783,-6.39175443289102,-5.614087463246746,11.567999999970198
312767.9127,-10.792009094803811,-3.908807107669939,-8.417102915417866,-7.077309753898007,11.568999999959487
312767.9137,-13.150285892867284,-5.238943590582936,-10.413765607809063,-8.513483764330456,11.569999999948777
312767.9147,-15.420827381752895,-6.505789242752933,-12.272129636632236,-9.840399938030743,11.570999999996275
312767.9157,-17.464019810387317,-7.638476587090007,-13.878835312306839,-10.97240116859105,11.571999999985565
312767.9167,-19.14022198316663,-8.567087281793157,-15.124403751548677,-11.826744306670046,11.572999999974854
312767.9177,-20.319042141368403,-9.228168683751703,-15.91092070505248,-12.32999946136275,11.573999999964144
312767.9187,-20.888192695869986,-9.569884927245056,-16.159165109750344,-12.423938528459574,11.574999999953434
312767.9197,-20.76125359105482,-9.556342826621252,-15.814606752677241,-12.070403184234774,11.576000000000931
312767.9207,-19.883762373732633,-9.170705805990655,-14.851784653378248,-11.254728568276258,11.576999999990221
312767.9217,-18.23718556396197,-8.416818442384963,-13.276708799257664,-9.987424173970448,11.577999999979511
312767.9227,-15.840499465926811,-7.319199697679601,-11.127090983719404,-8.303966417019154,11.5789999999688
312767.9237,-12.749303519629853,-5.921411591183524,-8.470390905671842,-6.262723635205222,11.57999999995809
312767.9247,-9.052588151698638,-4.282957728988571,-5.399844927002003,-3.9411982668884216,11.58099999994738
312767.9257,-4.867464025827031,-2.4749986547527305,-2.0288103930952683,-1.4309172560817613,11.581999999994878
312767.9267,-0.3323142038748047,-0.5752757854111479,1.5161068655057668,1.168583361881276,11.582999999984168
312767.9277,4.401058467863384,1.3372971911815283,5.10258244289609,3.756160897534302,11.583999999973457
312767.9287,9.175658704189042,3.18789342243264,8.600160437846053,6.23531250028685,11.584999999962747
312767.9297,13.837270361702656,4.910423264871675,11.887310761146594,8.51974915674497,11.585999999952037
312767.9307,18.24159734136577,6.45118298111058,14.85743519436584,10.537854695724933,11.586999999999534
312767.9317,22.260104001703734,7.771211924960988,17.42341147311013,12.235701472974972,11.587999999988824
312767.9327,25.78422876448343,8.847198077758677,19.520409583146503,13.578437367672619,11.588999999978114
312767.9337,28.727811858033085,9.67091530722388,21.106879297766145,14.550016437536934,11.589999999967404
312767.9347,31.027752515803382,10.247318965995333,22.16377678367391,15.151402695440511,11.590999999956694
312767.9357,32.643075371110136,10.591555441010254,22.69225473115889,15.397517810705954,11.591999999945983
312767.9367,33.55272447932831,10.72524346839686,22.710170195611962,15.313315579549677,11.59299999999348
312767.9377,33.752503379951165,10.672450575087677,22.24785526456117,14.929438189844005,11.59399999998277
312767.9387,33.2516319592592,10.455810660844334,21.343639829748778,14.277935038089858,11.59499999997206
312767.9397,32.06939155401369,10.093206484159987,20.039609873292275,13.388502147311167,11.59599999996135
312767.9407,30.232279946188385,9.595376066528035,18.37803044978522,12.285631851196912,11.59699999995064
312767.9417,27.772003899464693,8.96470135135927,16.39876637823893,10.986955584714371,11.597999999998137
312767.9427,24.724509334696723,8.195310929213324,14.137906024936465,9.502928321711606,11.598999999987427
312767.9437,21.130102084896446,7.274488873571643,11.62764792901334,7.837855037179477,11.599999999976717
312767.9447,17.034561243184015,6.185242610094746,8.897361506531974,5.992112458609446,11.600999999966007
312767.9457,12.491008541115612,4.909758083634071,5.975596914237943,3.965288056502245,11.601999999955297
312767.9467,7.562185765755261,3.4333726864649785,2.8927092404509525,1.7598558499027614,11.602999999944586
312767.9477,2.3227199337054043,1.7486352335507884,-0.31631033815503473,-0.6150545816906801,11.603999999992084
312767.9487,-3.13906922119649,-0.14099610030526047,-3.609231622554243,-3.140257125307213,11.604999999981374
312767.9497,-8.720239736163967,-2.2182405314290903,-6.934626219990266,-5.783907685055802,11.605999999970663
312767.9507,-14.303522647255509,-4.450219894743015,-10.230902580690797,-8.50005941937756,11.606999999959953
312767.9517,-19.759073712582264,-6.788071375036807,-13.426581774634652,-11.228620185798679,11.607999999949243
312767.9527,-24.947768067251477,-9.168066148509123,-16.44192836559124,-13.89681968332373,11.60899999999674
312767.9537,-29.725962969981097,-11.51420843685765,-19.191903740300983,-16.422142916282684,11.60999999998603
312767.9547,-33.95149269994548,-13.74214618049541,-21.590262403863903,-18.716537747048164,11.61099999997532
312767.9557,-37.49051505737119,-15.764095710014013,-23.554480084429475,-20.691572144362716,11.61199999996461
312767.9567,-40.224715713419414,-17.494380921078207,-25.011099579108812,-22.26411435882573,11.6129999999539
312767.9577,-42.05830684834422,-18.855122441349145,-25.901016893185446,-23.36204688158491,11.614000000001397
312767.9587,-42.924238022595986,-19.7815904863629,-26.184213268771746,-23.929509006913836,11.614999999990687
312767.9597,-42.78907305885527,-20.226758754926045,-25.843470482943896,-23.931194971063135,11.615999999979977
312767.9607,-41.65607466589611,-20.164663677702535,-24.88668481616039,-23.355312150410455,11.616999999969266
312767.9617,-39.56617135396051,-19.59227732472386,-23.34751226183431,-22.214919441863717,11.617999999958556
312767.9627,-36.59664724296499,-18.529733483253597,-21.28422288157104,-20.547508787564734,11.618999999947846
312767.9637,-32.85757972756611,-17.018892434540312,-18.776801893943148,-18.412849272783895,11.619999999995343
312767.9647,-28.486235835598947,-15.120376990421933,-15.922493822450713,-15.889268421387248,11.620999999984633
312767.9657,-23.63980841023956,-12.909346531434153,-12.830128533768969,-13.068684450615331,11.621999999973923
312767.9667,-18.487012208657866,-10.470384504585274,-9.613680479287982,-10.050813078636487,11.622999999963213
312767.9677,-13.199154722148307,-7.8919479356269155,-6.385583954851827,-6.937042572675934,11.623999999952503
312767.9687,-7.94133813141706,-5.26085825370779,-3.2503506566990614,-3.8244944702545807,11.625
312767.9697,-2.864433375632766,-2.6572984414345906,-0.29900876037493335,-0.8007626440112635,11.62599999998929
312767.9707,1.9016038088828264,-0.15072384619089946,2.3951924638853916,2.0602473834519177,11.62699999997858
312767.9717,6.252625300804602,2.2030012955009344,4.779484899461,4.701066808601828,11.62799999996787
312767.9727,10.113100205643002,4.363053080786006,6.8225097981664256,7.081825770537967,11.62899999995716
312767.9737,13.436732173447295,6.303634039322263,8.513454232884625,9.179808827997334,11.629999999946449
312767.9747,16.204963354319993,8.01258946132768,9.85954227613728,10.987536472854892,11.630999999993946
312767.9757,18.423621710499976,9.48887827173018,10.88217711861531,12.509644172916003,11.631999999983236
312767.9767,20.1181193419193,10.73922978056306,11.612151402221858,13.758941086826724,11.632999999972526
312767.9777,21.32771999893906,11.774390376972404,12.084423986388588,14.752102547346055,11.633999999961816
312767.9787,22.099454399463504,12.605395747094214,12.332994566175342,15.505476816633355,11.634999999951106
312767.9797,22.482267508672138,13.240291598978857,12.386389943728654,16.031465088000576,11.635999999998603
312767.9807,22.52193300378525,13.681670635233159,12.26420909970664,16.335866546502018,11.636999999987893
312767.9817,22.25717233395192,13.925301299121049,11.975064975310811,16.416474278695603,11.637999999977183
312767.9827,21.71727928931898,13.960003955105757,11.51611957066549,16.263073517151472,11.638999999966472
312767.9837,20.921389573751576,13.76879470100385,10.874249145396432,15.858844460067811,11.639999999955762
312767.9847,19.8793644955736,13.33117953265718,10.028713264646798,15.183022516964286,11.640999999945052
312767.9857,18.59409514851065,12.626355871454747,8.955050732661844,14.214534095301078,11.64199999999255
312767.9867,17.064893969270145,11.636977127635562,7.629801446277628,12.936219307517037,11.64299999998184
312767.9877,15.291537463015604,10.353069200110943,6.035567654598392,11.3391848345712,11.643999999971129
312767.9887,13.278466585712732,8.775662378726338,4.165889114407962,9.426807431811135,11.644999999960419
312767.9897,11.038644562728182,6.919720704120767,2.0294178301017003,7.2179335567292275,11.645999999949709
312767.9907,8.596615590862745,4.816011792446528,-0.34706165607421285,4.748891012665596,11.646999999997206
312767.9917,5.990396767446127,2.5116576033913978,-2.917116858638854,2.0740375736963794,11.647999999986496
312767.9927,3.2719601960303213,0.06923116921912292,-5.614870170317699,-0.7352912551728756,11.648999999975786
312767.9937,0.5062096289973088,-2.4355962200622105,-8.35697561803752,-3.5934211632816124,11.649999999965075
312767.9947,-2.231488759976866,-4.9177120841417565,-11.046261926568715,-6.404398331040668,11.650999999954365
312767.9957,-4.859014389153688,-7.287250440484625,-13.576780545369669,-9.067165275596832,11.652000000001863
312767.9967,-7.292106833955692,-9.45493317569383,-15.839867537459252,-11.481439852122284,11.652999999991152
312767.9977,-9.449464109169277,-11.337620046250294,-17.730734449470035,-13.55381297829724,11.653999999980442
312767.9987,-11.257854404751361,-12.863596059452108,-19.155054039252516,-15.203554992545854,11.654999999969732
312767.9997,-12.65677097900942,-13.977143362823789,-20.035006337713373,-16.367642728742812,11.655999999959022
312768.0007,-13.60220671653655,-14.642006030442891,-20.314298627922987,-17.00458720548027,11.656999999948312
312768.0017,-14.069213256313025,-14.843454411059183,-19.96176461196194,-17.096748690152623,11.657999999995809
312768.0027,-14.053030227004243,-14.58878152729168,-18.973274286972767,-16.650961452828138,11.658999999985099
312768.0037,-13.568710483727966,-13.906205246034302,-17.371834644400284,-15.69744167875147,11.659999999974389
312768.0047,-12.649312948884218,-12.842292954172153,-15.205918009251361,-14.287104213809489,11.660999999963678
312768.0057,-11.342870938384452,-11.458156503267855,-12.546204796202325,-12.487552497957637,11.661999999952968
312768.0067,-9.708457010801677,-9.824771672087778,-9.48105664546278,-10.378118017907415,11.663000000000466
312768.0077,-7.811744182694928,-8.017848217044888,-6.111132464346814,-8.044400385892292,11.663999999989755
312768.0087,-5.7205001690011885,-6.112707049966106,-2.543615315010139,-5.572789932765083,11.664999999979045
312768.0097,-3.500442838153821,-4.179607595933821,1.1134720367450397,-3.045439054039873,11.665999999968335
312768.0107,-1.211832682023954,-2.2799126684998514,4.756420621802678,-0.5360886077455451,11.666999999957625
312768.0117,1.0929123440678479,-0.4633861320728728,8.29009183377468,1.8929420798786898,11.667999999946915
312768.0127,3.370413006302365,1.2332003653861288,11.631019570229123,4.192418420315035,11.668999999994412
312768.0137,5.586303828338501,2.7861091696095883,14.709229464841792,6.326463981738796,11.669999999983702
312768.0147,7.714090718393616,4.1834197814573475,17.468782697918304,8.271541919171812,11.670999999972992
312768.0157,9.73311801469877,5.422769496991485,19.867180774611775,10.01436949266282,11.671999999962281
312768.0167,11.625969086468231,6.508366554670635,21.873876399242683,11.54909185261291,11.672999999951571
312768.0177,13.375685900057915,7.447655765263329,23.46821332605969,12.87410627778029,11.673999999999069
312768.0187,14.96321168060133,8.248041337085931,24.637157363564533,13.988950767784672,11.674999999988358
312768.0197,16.365434870007974,8.914054004658405,25.373178178441158,14.891649457380057,11.675999999977648
312768.0207,17.55414454067655,9.44529178385875,25.672598224929217,15.57684437694202,11.676999999966938
312768.0217,18.49610419129151,9.835371931681662,25.534646329739942,16.034945493191216,11.677999999956228
312768.0227,19.154323031386575,10.072015621875712,24.96134820660666,16.252409094997837,11.678999999945518
312768.0237,19.490464671573722,10.138258529825405,23.958266226221802,16.213121256609316,11.679999999993015
312768.0247,19.46819706815782,10.014653227359334,22.53597942027714,15.900732271784612,11.680999999982305
312768.0257,19.057168924480365,9.682216157866636,20.712085392372032,15.30167328932931,11.681999999971595
312768.0267,18.23720918576203,9.125784666009759,18.513420737131494,14.408499915989871,11.682999999960884
312768.0277,17.002297509019932,8.337397126459479,15.978145414062105,13.2231584347761,11.683999999950174
312768.0287,15.363850446408236,7.319297139302528,13.157325444807048,11.759763865859048,11.684999999997672
312768.0297,13.352911813230577,6.086192431121442,10.11567928621568,10.046516385024145,11.685999999986961
312768.0307,11.020922888414404,4.666467688823696,6.931223854970079,8.126460179688841,11.686999999976251
312768.0317,8.438870893906387,3.1021512894881402,3.693659829866008,6.0568991302261725,11.687999999965541
312768.0327,5.694761154577229,1.4475587504163938,0.5014623754128174,3.9074158678826523,11.68899999995483
312768.0337,2.889515451189784,-0.23333156292495946,-2.5422198848570496,1.7565816255299582,11.690000000002328
312768.0347,0.13155117467056868,-1.870585660156889,-5.334621934529422,-0.3124202476105362,11.690999999991618
312768.0357,-2.4695718858323357,-3.392806422912661,-7.779024509897223,-2.2169178542490706,11.691999999980908
312768.0367,-4.809951016826649,-4.732028683499088,-9.790585037982174,-3.880196691672234,11.692999999970198
312768.0377,-6.798043907333415,-5.828585622693171,-11.301855163400978,-5.23679759178185,11.693999999959487
312768.0387,-8.360726035763093,-6.6355081741945865,-12.267501855984717,-6.237195382096931,11.694999999948777
312768.0397,-9.448195153017513,-7.122054553447472,-12.667794700143272,-6.851431458064035,11.695999999996275
312768.0407,-10.03730542659986,-7.276041703457969,-12.51051071328085,-7.071359430619305,11.696999999985565
312768.0417,-10.133042043041275,-7.104757258305363,-11.831032347380424,-6.911282543848479,11.697999999974854
312768.0427,-9.76800228834922,-6.634359280152416,-10.690563024714685,-6.406903376087752,11.698999999964144
312768.0437,-8.999917032379985,-5.907809081963691,-9.172543948089494,-5.61265695136065,11.699999999953434
312768.0447,-7.907411614163187,-4.981516527883142,-7.377511105771743,-4.597643398158796,11.701000000000931
312768.0457,-6.584352125305409,-3.9209943143355908,-5.4167677013099125,-3.4405018016557167,11.701999999990221
312768.0467,-5.133238529657592,-2.7959065500656175,-3.405351691149034,-2.2236608654273087,11.702999999979511
312768.0477,-3.658179490074666,-1.6749489227903975,-1.454840665007067,-1.0274554281493185,11.7039999999688
312768.0487,-2.2580087773424906,-0.6210079297108054,0.3334491544595356,0.07539431523852978,11.70499999995809
312768.0497,-1.0200779170345626,0.31298577912165343,1.874348053341678,1.024482530767877,11.70599999994738
312768.0507,-0.015187261045932777,1.0871666063427965,3.103361845495827,1.7752190243670978,11.706999999994878
312768.0517,0.7059946237816112,1.6765662421115934,3.97952486030526,2.300870259038705,11.707999999984168
312768.0527,1.114814349791834,2.071555032528737,4.486404972425829,2.59301716467336,11.708999999973457
312768.0537,1.2047669465361655,2.2769136029623813,4.631250488211336,2.660455515527357,11.709999999962747
312768.0547,0.9899819502516307,2.309686971338217,4.442429062246119,2.5267088166057183,11.710999999952037
312768.0557,0.5023065047281889,2.1960877272183903,3.9654528373248867,2.2264493464878785,11.711999999999534
312768.0567,-0.21265715236630378,1.9678012454968514,3.2579983556119925,1.801218195628169,11.712999999988824
312768.0577,-1.1001274144375468,1.6580959691500285,2.3844040637444626,1.2948907889786372,11.713999999978114
312768.0587,-2.1008693713002407,1.2981507738169853,1.4101559278745537,0.7493453716437466,11.714999999967404
312768.0597,-3.1556243549239364,0.9139786460266277,0.3968508114791831,0.20075755411917404,11.715999999956694
312768.0607,-4.2088559015916855,0.524254848529243,-0.6019394229563476,-0.3231319805597341,11.716999999945983
312768.0617,-5.211521644750291,0.13925570381110092,-1.5435855011628927,-0.8045392524422652,11.71799999999348
312768.0627,-6.12270342414969,-0.23900851220429997,-2.39791563179214,-1.2358432041473117,11.71899999998277
312768.0637,-6.910063758756295,-0.6155138519678824,-3.1472908865607585,-1.6185128064087406,11.71999999997206
312768.0647,-7.5492314865154,-0.9999690565939134,-3.785351382843923,-1.960927835072655,11.72099999996135
312768.0657,-8.022338767367009,-1.4038685313592938,-4.314675693756904,-2.2753835247866,11.72199999995064
312768.0667,-8.316023372720059,-1.8372110522369518,-4.743699982552824,-2.574655901317753,11.722999999998137
312768.0677,-8.419264739253284,-2.305284633748833,-5.083309277063478,-2.868551540578284,11.723999999987427
312768.0687,-8.321433999606517,-2.805917522141405,-5.343534834193174,-3.160867930112281,11.724999999976717
312768.0697,-8.010905902284199,-3.3275526803385302,-5.530766957194639,-3.447148107629212,11.725999999966007
312768.0707,-7.474507548413419,-3.848422279107279,-5.645824839308195,-3.7135299259327987,11.726999999955297
312768.0717,-6.697972795548412,-4.336987349353585,-5.683121289993397,-3.9368743737310887,11.727999999944586
312768.0727,-5.667443091377193,-4.753676757581397,-5.631031445085323,-4.086220419870307,11.728999999992084
312768.0737,-4.371918875385183,-5.053821984582196,-5.4734341802092406,-4.125469585955365,11.729999999981374
312768.0747,-2.806435041778349,-5.191553563468861,-5.192257520598986,-4.017066464464623,11.730999999970663
312768.0757,-0.9756234005087991,-5.124314664495397,-4.770739162843774,-3.726325653860007,11.731999999959953
312768.0767,1.102753116987011,-4.817568543720408,-4.197022865327602,-3.2259730524671313,11.732999999949243
312768.0777,3.394746385399966,-4.249237761576864,-3.4676605118347186,-2.500428925040078,11.73399999999674
312768.0787,5.848090916274302,-3.4134187649251073,-2.59058374784634,-1.5493663440881118,11.73499999998603
312768.0797,8.391377949613739,-2.322965859180072,-1.5871493522134315,-0.3901316665670582,11.73599999997532
312768.0807,10.934819594162127,-1.0106296763801348,-0.4929454122936572,0.9412908139472235,11.73699999996461
312768.0817,13.372751599107726,0.47144110712347037,0.6428369212917051,2.39095864706943,11.7379999999539
312768.0827,15.587865631229432,2.0538811349243002,1.759520206542546,3.889333051020619,11.739000000001397
312768.0837,17.45699633183776,3.653866422848079,2.788449421217401,5.355201929429553,11.739999999990687
312768.0847,18.858130651764164,5.180196498779584,3.6576506725121263,6.700892417808028,11.740999999979977
312768.0857,19.67817232553511,6.539322175158558,4.297272483002453,7.838372693637258,11.741999999969266
312768.0867,19.82089628619241,7.641847007710693,4.6453493335211125,8.68574892736313,11.742999999958556
312768.0877,19.214476589723876,8.408978398529099,4.653376467247876,9.173613470658873,11.743999999947846
312768.0887,17.817973056072496,8.778398786846836,4.291182104957132,9.25069987284735,11.744999999995343
312768.0897,15.62621755555916,8.709069268710806,3.5506291914954695,8.888349641781968,11.745999999984633
312768.0907,12.672646891431887,8.184563689039686,2.447769876027186,8.083390662492674,11.746999999973923
312768.0917,9.029777077245848,7.214653044838213,1.023204040307666,6.859159364295332,11.747999999963213
312768.0927,4.8071910718377335,5.835006841301082,-0.6594533558896853,5.264556060781622,11.748999999952503
312768.0937,0.14710349848017845,4.105036444829441,-2.516926717939977,3.3711909588669178,11.75
312768.0947,-4.782245085257176,2.1040610187470485,-4.451226162944236,1.2688416988660314,11.75099999998929
312768.0957,-9.794941680247064,-0.07388483303547601,-6.355814501441685,-0.9404130557480306,11.75199999997858
312768.0967,-14.696943056973785,-2.3261735397976113,-8.122514524962474,-3.1489086515543434,11.75299999996787
312768.0977,-19.296156865877283,-4.548139081404324,-9.648609727960759,-5.250414844896365,11.75399999995716
312768.0987,-23.4123743463668,-6.639540659749508,-10.84357378060403,-7.146899243243848,11.754999999946449
312768.0997,-26.886386052405914,-8.510434570531716,-11.634896625800224,-8.754502633594761,11.755999999993946
312768.1007,-29.587684786072984,-10.086019284667817,-11.972554915283627,-10.008273116449839,11.756999999983236
312768.1017,-31.420279793044894,-11.310121915792852,-11.831794116210995,-10.865323231760778,11.757999999972526
312768.1027,-32.326302116169835,-12.147124384587771,-11.214037796049913,-11.306219403200297,11.758999999961816
312768.1037,-32.28725863305842,-12.582272048393962,-10.145902478559814,-11.334572201987605,11.759999999951106
312768.1047,-31.322975786503612,-12.620452526054985,-8.676458891623746,-10.97495412448651,11.760999999998603
312768.1057,-29.488447168257437,-12.28366425243162,-6.873027363464301,-10.26941403289466,11.761999999987893
312768.1067,-26.868947006316542,-11.607500752768518,-4.815913094925218,-9.272971038258587,11.762999999977183
312768.1077,-23.573881928348325,-10.637048170543313,-2.592565413694286,-8.04854523140006,11.763999999966472
312768.1087,-19.729917563294297,-9.422624176133391,-0.2916771245875855,-6.661811974866993,11.764999999955762
312768.1097,-15.473930522705846,-8.015774066769644,2.0022765822665707,-5.17644858284292,11.765999999945052
312768.1107,-10.946300802435516,-6.465886908097305,4.213623119933611,-3.650179847153412,11.76699999999255
312768.1117,-6.2849800551517205,-4.817707198413598,6.278867196190717,-2.1319290138767895,11.76799999998184
312768.1127,-1.6206569668536954,-3.10990531183227,8.148652225723852,-0.6602540465070722,11.768999999971129
312768.1137,2.9267953204536683,-1.37474479904552,9.788252279361883,0.7368915898993118,11.769999999960419
312768.1147,7.25054879032701,0.36124045116271225,11.176686115999505,2.041174531660473,11.770999999949709
312768.1157,11.257823132241585,2.0757582597888216,12.304678906189386,3.241900012694736,11.771999999997206
312768.1167,14.869873550987155,3.748746097815768,13.171804551806362,4.333358327382835,11.772999999986496
312768.1177,18.021260341903417,5.360175878322023,13.783211708870384,5.311886211992118,11.773999999975786
312768.1187,20.658741462121323,6.888032088457279,14.146363187047921,6.1730494051833045,11.774999999965075
312768.1197,22.74013099728144,8.306795115546965,14.26819919518054,6.909327851696229,11.775999999954365
312768.1207,24.233426233700044,9.586699545174016,14.153072393415398,7.5086190604536025,11.777000000001863
312768.1217,25.116429579256764,10.693944265313899,13.80170370317526,7.95377514248174,11.777999999991152
312768.1227,25.376988224848724,11.591917168926797,13.21128277015517,8.223265610057723,11.778999999980442
312768.1237,25.013856415489297,12.243374090649898,12.3766989310692,8.292924076546088,11.779999999969732
312768.1247,24.038066265265797,12.613392334723828,11.292751865071441,8.138606599185833,11.780999999959022
312768.1257,22.474587075671227,12.67281644839133,9.95707005629237,7.7394762688602246,11.781999999948312
312768.1267,20.36397264016671,12.401838887337602,8.37337245689928,7.081544777402402,11.782999999995809
312768.1277,17.76365092579839,11.793319318315419,6.554654216649677,6.161056168699298,11.783999999985099
312768.1287,14.74850699704987,10.855448343260623,4.525867129797855,4.987296042066282,11.784999999974389
312768.1297,11.410449882219895,9.613405148147589,2.3257012111412463,3.5844519687833363,11.785999999963678
312768.1307,7.856734445168462,8.109740506938637,0.0071525973277114935,1.9922341436688118,11.786999999952968
312768.1317,4.206922984071396,6.403329325203589,-2.3633225354604868,0.26508149207352155,11.788000000000466
312768.1327,0.5885072853887949,4.566869890748396,-4.708129122466229,-1.5300836591515123,11.788999999989755
312768.1337,-2.8686433833432936,2.683047410975802,-6.9422401558540825,-3.317443228091798,11.789999999979045
312768.1347,-6.0387042544666905,0.8396135040986809,-8.978053539338681,-5.0169646442619795,11.790999999968335
312768.1357,-8.806765179371531,-0.8762522856642834,-10.731034816225849,-6.549807988120136,11.791999999957625
312768.1367,-11.075643168732796,-2.3838498001161392,-12.125685135383243,-7.844004972826717,11.792999999946915
312768.1377,-12.77209159312989,-3.61464225764357,-13.1013189322956,-8.839911365986623,11.793999999994412
312768.1387,-13.85186995275329,-4.5172268304417535,-13.617128837254349,-9.494937114446268,11.794999999983702
312768.1397,-14.303198624485516,-5.061149506148523,-13.656057896633975,-9.787108701725897,11.795999999972992
312768.1407,-14.148230489684378,-5.239211722977726,-13.227088137268815,-9.717112049132782,11.796999999962281
312768.1417,-13.442317344279813,-5.068040249614514,-12.365682140252657,-9.30859319965306,11.797999999951571
312768.1427,-12.271021101596011,-4.586838792581469,-11.13226915091164,-8.606646239858316,11.798999999999069
312768.1437,-10.745002870654575,-3.854396402059174,-9.608835168104116,-7.674579208611617,11.799999999988358
312768.1447,-8.993100550904675,-2.9445794549934092,-7.893841914207837,-6.5892039211141284,11.800999999977648
312768.1457,-7.154061381405036,-1.9406667453922315,-6.095847211735286,-5.4350300010310715,11.801999999966938
312768.1467,-5.367515449287488,-0.9289886597869979,-4.326315317332983,-4.29784417325678,11.802999999956228
312768.1477,-3.7648481900161017,0.007607874312454173,-2.6921793457631034,-3.2582133869276904,11.803999999945518
312768.1487,-2.4606473367955823,0.7959326336731818,-1.2887421652639892,-2.3854590554893327,11.804999999993015
312768.1497,-1.5453604634464584,1.3777608118981366,-0.19347477298200677,-1.7326086767626199,11.805999999982305
312768.1507,-1.079706225881036,1.713852270903679,0.5388053158769112,-1.3327440934961712,11.806999999971595
312768.1517,-1.091243533671479,1.7863713972189423,0.87901163624491,-1.1970407743945892,11.807999999960884
312768.1527,-1.5733302219514156,1.599539099994096,0.8249078654107805,-1.3146413942405648,11.808999999950174
312768.1537,-2.486511434385218,1.1785033225256891,0.4002209396608034,-1.6543437632291471,11.809999999997672
312768.1547,-3.762184607972442,0.5665683847472742,-0.3481302856174198,-2.167922981384015,11.810999999986961
312768.1557,-5.308209513487129,-0.17893751114287132,-1.3544135167904463,-2.7947653960560497,11.811999999976251
312768.1567,-7.0159836551459644,-0.9917657051322913,-2.539662675229576,-3.467380576771481,11.812999999965541
312768.1577,-8.76839803146228,-1.8023562061204195,-3.8179624875104636,-4.11728715693775,11.81399999995483
312768.1587,-10.44803439792027,-2.543456447770855,-5.102897435755665,-4.680745162898453,11.815000000002328
312768.1597,-11.944966622634492,-3.155268316140542,-6.313629251703658,-5.103833012059576,11.815999999991618
312768.1607,-13.163584334433018,-3.5897001709233076,-7.380119575435374,-5.346438762278268,11.816999999980908
312768.1617,-14.027960812155348,-3.813395804699137,-8.247108688632718,-5.384845193611694,11.817999999970198
312768.1627,-14.485428686311652,-3.809335046713983,-8.876587759313443,-5.21272609093187,11.818999999959487
312768.1637,-14.508192997354415,-3.576938982386203,-9.24864835835802,-4.840523346224816,11.819999999948777
312768.1647,-14.09298598877209,-3.130753225284778,-9.360745068767404,-4.293326654919579,11.820999999996275
312768.1657,-13.258935704178187,-2.4979120523218588,-9.225550475335355,-3.607515242003205,11.821999999985565
312768.1667,-12.043965972524342,-1.714692470136838,-8.867703443625222,-2.826531345303229,11.822999999974854
312768.1677,-10.5001560207627,-0.8225407873166194,-8.31984043256598,-1.9962279647892476,11.823999999964144
312768.1687,-8.688554559876414,0.1360113328108261,-7.618348005168243,-1.160262197781825,11.824999999953434
312768.1697,-6.673960863074333,1.1211315808777231,-6.7992790650486095,-0.35598813087159603,11.826000000000931
312768.1707,-4.520153912336734,2.098810013025168,-5.894836293956528,0.3887579866116615,11.826999999990221
312768.1717,-2.285974608859607,3.0430398948277886,-4.93074861190805,1.0576862307466748,11.827999999979511
312768.1727,-0.022553979327985717,3.93688388193285,-3.92475871282527,1.6467271407022732,11.8289999999688
312768.1737,2.2281557769924643,4.772375854719117,-2.8863131562113225,2.163324279612258,11.82999999995809
312768.1747,4.433536583770845,5.549333873877212,-1.817414144714768,2.624459519545225,11.83099999994738
312768.1757,6.569276456168079,6.273274577108742,-0.7144674526555864,3.0536536152392872,11.831999999994878
312768.1767,8.617410624613354,6.952712365469728,0.4291434260080931,3.477286982904579,11.832999999984168
312768.1777,10.563775428552821,7.5961886395575435,1.6201005120797756,3.9206519832279665,11.833999999973457
312768.1787,12.395269952432232,8.209401006451793,2.86219121319439,4.404171946885996,11.834999999962747
312768.1797,14.097327328893071,8.792787427536663,4.153718341858203,4.940201428678077,11.835999999952037
312768.1807,15.651960128735194,9.339867376021042,5.485607518539232,5.530758945851548,11.836999999999534
312768.1817,17.03666680973643,9.836556752609345,6.8404574752438085,6.166444214704815,11.837999999988824
312768.1827,18.22437742487115,10.26156442991011,8.192670353103718,6.826666738009785,11.838999999978114
312768.1837,19.18448852998406,10.587857171692505,9.50967552634838,7.4811742317679935,11.839999999967404
312768.1847,19.884903319572963,10.78505892631242,10.7541349631307,8.0927318917308,11.840999999956694
312768.1857,20.294867876202527,10.82254278391265,11.88690408766431,8.62068091783373,11.841999999945983
312768.1867,20.388291560085257,10.672890617126576,12.870431834496364,9.025009607849425,11.84299999999348
312768.1877,20.14717020759625,10.31534556787545,13.672226951647621,9.270512538172225,11.84399999998277
312768.1887,19.564702705696718,9.738871707368201,14.26800100836895,9.330598974035675,11.84499999997206
312768.1897,18.647708143654675,8.9444650295264,14.644124226379162,9.190342433613758,11.84599999996135
312768.1907,17.41801094204291,7.946427925623485,14.799095988671978,8.848436451490796,11.84699999995064
312768.1917,15.912559393088992,6.772418976712183,14.743831268934029,8.317829931495421,11.847999999998137
312768.1927,14.182169190445034,5.46221152045,14.50068725686355,7.6249483288331605,11.848999999987427
312768.1937,12.28892502576458,4.0652258749575605,14.101288535094465,6.807550993106562,11.849999999976717
312768.1947,10.302415680187233,2.6370280588693156,13.58334038963639,5.9114158431899115,11.850999999966007
312768.1957,8.295106451321942,1.2350992368367615,12.986734415258303,4.986165851248141,11.851999999955297
312768.1967,6.337253657121448,-0.0857366547935603,12.349336240254667,4.080644947424547,11.852999999944586
312768.1977,4.491828379813879,-1.2777935063685055,11.702892459750725,3.2383041934665258,11.853999999992084
312768.1987,2.8099333332756644,-2.3044745253106838,11.069497029854686,2.493066589819331,11.854999999981374
312768.1997,1.3271650503903265,-3.1432971062749804,10.459015127971837,1.8660993627931783,11.855999999970663
312768.2007,0.0612956308046525,-3.7876737684560067,9.867778093606534,1.3638393854029025,11.856999999959953
312768.2017,-0.98846911040306,-4.2472451921523735,9.2787440950334,0.9774982513696274,11.857999999949243
312768.2027,-1.840544208407674,-4.546697258149904,8.663176782414306,0.6841298232281899,11.85899999999674
312768.2037,-2.52838254203415,-4.723139404414649,7.98374208022438,0.4491887354318819,11.85999999998603
312768.2047,-3.0964636172578137,-4.822262466151728,7.1987763413355275,0.23035846649989808,11.86099999997532
312768.2057,-3.5952064613596626,-4.893616623926373,6.267351985083694,-0.017702973255155192,11.86199999996461
312768.2067,-4.075270879824833,-4.985441943240954,5.154672435687671,-0.3381498834782942,11.8629999999539
312768.2077,-4.581780734760884,-5.1395358786609995,3.8372766483319416,-0.7667741762396344,11.864000000001397
312768.2087,-5.149022288722757,-5.386648446727054,2.3075307478051337,-1.327382474232362,11.864999999990687
312768.2097,-5.7961373058767345,-5.7428553121779045,0.57693167202072,-2.028196049746184,11.865999999979977
312768.2107,-6.5242468953896955,-6.207275061965294,-1.3221582434864925,-2.859656178995372,11.866999999969266
312768.2117,-7.315315317856367,-6.761376970720864,-3.3365940795213915,-3.7938908608010005,11.867999999958556
312768.2127,-8.132904704372288,-7.369980631073539,-5.394437301170245,-4.785945850768344,11.868999999947846
312768.2137,-8.924796576303558,-7.983892461234149,-7.4087677464626545,-5.776718008034866,11.869999999995343
312768.2147,-9.6272806837513,-8.54397103566743,-9.283067231172828,-6.697367705981675,11.870999999984633
312768.2157,-10.170752665901604,-8.986277921086941,-10.917774492576866,-7.474844923477124,11.871999999973923
312768.2167,-10.486134611912755,-9.247866133877222,-12.217495853685037,-8.038054260029027,11.872999999963213
312768.2177,-10.511549092364296,-9.272694499927292,-13.098285302580662,-8.324118082197222,11.873999999952503
312768.2187,-10.198645849438424,-9.017139292273642,-13.494388681009422,-8.284180781579476,11.875
312768.2197,-9.518004363743714,-8.454606303164136,-13.36388160705314,-7.888232441823547,11.87599999998929
312768.2207,-8.46311297936088,-7.578824112735802,-12.692716835296586,-7.128513896896566,11.87699999997858
312768.2217,-7.052549098922514,-6.405515532093338,-11.49682641315003,-6.021189427471163,11.87799999996787
312768.2227,-5.33014366690904,-4.972288146904431,-9.822085564965,-4.6061265352796035,11.87899999995716
312768.2237,-3.3630919251861657,-3.3367430726382823,-7.742124073703639,-2.944789963853409,11.879999999946449
312768.2247,-1.238154528270761,-1.5729586377325782,-5.354150770526008,-1.1164236523244935,11.880999999993946
312768.2257,0.9437384728037748,0.2333519744909955,-2.7731212528831457,0.7871559633506993,11.881999999983236
312768.2267,3.074029210327885,1.990596260527689,-0.12471327627351667,2.667712864144968,11.882999999972526
312768.2277,5.043670713953475,3.607483294747336,2.462333567961788,4.42717073190234,11.883999999961816
312768.2287,6.750268423955744,4.999112742167351,4.863915226894646,5.9740698367157,11.884999999951106
312768.2297,8.104639072873436,6.092473047285462,6.967710227652318,7.229374508209012,11.885999999998603
312768.2307,9.036263813720192,6.830913563711963,8.679251783840956,8.131173902933432,11.886999999987893
312768.2317,9.497221685304739,7.17725781022356,9.926508005180578,8.637929235407618,11.887999999977183
312768.2327,9.46433467918412,7.115355857966679,10.662694952371629,8.730060719306344,11.888999999966472
312768.2337,8.939422513807314,6.650020140190577,10.86720917078313,8.409823336731712,11.889999999955762
312768.2347,7.947737491935715,5.805436468020851,10.544732828962813,7.699577022746698,11.890999999945052
312768.2357,6.534810931229647,4.622276541431687,9.722719905770102,6.6386988542646135,11.89199999999255
312768.2367,4.762077302463668,3.15384702735991,8.447601582652878,5.27949890297668,11.89299999998184
312768.2377,2.7017378379349886,1.4616832902531331,6.780141411768732,3.68257699502786,11.893999999971129
312768.2387,0.431373416458709,-0.38897328963839917,4.790418104155584,1.9120880812117906,11.894999999960419
312768.2397,-1.9711867803924654,-2.3333889314982335,2.5529126514651805,0.031367170585579356,11.895999999949709
312768.2407,-4.4322876492241035,-4.31087200458978,0.1421285440889994,-1.9006965573261558,11.896999999997206
312768.2417,-6.885805358628825,-6.267349576143014,-2.370914704874397,-3.832245728419291,11.897999999986496
312768.2427,-9.275213139514472,-8.15682372611002,-4.921093501408445,-5.719835804944338,11.898999999975786
312768.2437,-11.554278677356905,-9.941675354388945,-7.450412692349385,-7.528585346350582,11.899999999965075
312768.2447,-13.68646892633478,-11.59191280196085,-9.908112877678613,-9.231207845255877,11.900999999954365
312768.2457,-15.643278740715662,-13.083578400534751,-12.249833919128518,-10.806160305158663,11.902000000001863
312768.2467,-17.401813610314495,-14.396616130926022,-14.436118133135269,-12.235238560549021,11.902999999991152
312768.2477,-18.942032389138202,-15.512558696587119,-16.430603190786137,-13.501006488280545,11.903999999980442
312768.2487,-20.244085615614893,-16.41240692630762,-18.198279122829984,-14.584459931964155,11.904999999969732
312768.2497,-21.286165991823477,-17.075047116377302,-19.704163908208304,-15.463295053699252,11.905999999959022
312768.2507,-22.04322200131773,-17.47648563439163,-20.912690444972757,-16.111078244322847,11.906999999948312
312768.2517,-22.486780481315584,-17.59008178126207,-21.78800118819198,-16.497508242197835,11.907999999995809
312768.2527,-22.585990287524037,-17.38783980963014,-22.295225979342124,-16.589831817432994,11.908999999985099
312768.2537,-22.309851017051244,-16.84269167432744,-22.402686739936964,-16.35533575165384,11.909999999974389
312768.2547,-21.63044364015385,-15.931577113305275,-22.084844121052694,-15.764704397237965,11.910999999963678
312768.2557,-20.52684935034031,-14.639020250269906,-21.325689982009248,-14.795917922791725,11.911999999952968
312768.2567,-18.989342884592354,-12.960823619897754,-20.1222080887499,-13.438283685006077,11.913000000000466
312768.2577,-17.023387891117682,-10.907460043858427,-18.487483056533097,-11.69615116557422,11.913999999989755
312768.2587,-14.65295141862421,-8.506745098751248,-16.453039733348806,-9.591864708899148,11.914999999979045
312768.2597,-11.922694252346682,-5.805418731661258,-14.070042823292058,-7.167558467208895,11.915999999968335
312768.2607,-8.898680594664006,-2.8693502613393784,-11.409075837083828,-4.48549043654509,11.916999999957625
312768.2617,-5.667376715778938,0.21780110019742147,-8.55834139774599,-1.6267389133124301,11.917999999946915
312768.2627,-2.332861934238374,3.3574989038454386,-5.620269983349951,1.3117666914213602,11.918999999994412
312768.2637,0.9876579602128228,6.44069674005721,-2.7066774336411057,4.221752112410203,11.919999999983702
312768.2647,4.169780966543885,9.353400377770464,0.06724196257230726,6.989363441178775,11.920999999972992
312768.2657,7.088884040256901,11.983043592238246,2.589674757646211,9.501785263713238,11.921999999962281
312768.2667,9.627632549719628,14.225206860196892,4.759196669581884,11.654212107589515,11.922999999951571
312768.2677,11.683445747580402,15.99015928011108,6.4914787826199225,13.356623767535995,11.923999999999069
312768.2687,13.175323515210858,17.208701330159364,7.725141662816577,14.539814410917561,11.924999999988358
312768.2697,14.049476527447418,17.83683031813844,8.426258561845724,15.160174564334973,11.925999999977648
312768.2707,14.283289364779597,17.858838072283714,8.591106159303193,15.202820136054587,11.926999999966938
312768.2717,13.887276330360425,17.288573914144102,8.246896528693458,14.68279515676669,11.927999999956228
312768.2727,12.904851121859629,16.16875418491733,7.450385380620283,13.64423296788983,11.928999999945518
312768.2737,11.409909439870965,14.568359150584895,6.284424773839589,12.15752975722794,11.929999999993015
312768.2747,9.502401918097604,12.578314493896725,4.852697829530326,10.314749173023525,11.930999999982305
312768.2757,7.302237261126233,10.30579361553995,3.2730232382455084,8.223622182045988,11.931999999971595
312768.2767,4.941987523912096,7.867586060898659,1.6697349140876119,6.00061915760583,11.932999999960884
312768.2777,2.558957321240956,5.383046843196538,0.16571640483959976,3.7636412654174585,11.933999999950174
312768.2787,0.28721867953090696,2.9671652727751026,-1.1253060396178285,1.6248994823833434,11.934999999997672
312768.2797,-1.7497997825493765,0.724268442198932,-2.1056355629807673,-0.3154794333496762,11.935999999986961
312768.2807,-3.4456446841178328,-1.2571935002337729,-2.6991428080631272,-1.9746567506253834,11.936999999976251
312768.2817,-4.715674393502235,-2.908438855339353,-2.855089969038078,-3.2907475281208947,11.937999999965541
312768.2827,-5.500125768735538,-4.182514285083542,-2.5500108341868546,-4.224744104126095,11.93899999995483
312768.2837,-5.765298339231779,-5.0547624353903196,-1.7875841615500028,-4.760651069929132,11.940000000002328
312768.2847,-5.5029091819052045,-5.521684919310854,-0.5966069277797024,-4.903942922631123,11.940999999991618
312768.2857,-4.727826592376542,-5.598423536186685,0.9726702364795115,-4.6785978202459235,11.941999999980908
312768.2867,-3.474520068192265,-5.315192380911087,2.8534546878747316,-4.123074875266414,11.942999999970198
312768.2877,-1.7926565504628735,-4.713068122669383,4.9680899107280805,-3.2856781098359678,11.943999999959487
312768.2887,0.25767948580810107,-3.8395790151775278,7.233975830695691,-2.2197812652829505,11.944999999948777
312768.2897,2.61066498437335,-2.74452301482573,9.569212430435673,-0.9793721980377841,11.945999999996275
312768.2907,5.198886419191974,-1.4763938207989902,11.897500906271606,0.38468380092819504,11.946999999985565
312768.2917,7.9566152315349505,-0.07970676978609965,14.151931349642389,1.8273589509832384,11.947999999974854
312768.2927,10.821987816950172,1.406596286717477,16.277412428203558,3.3109767234153247,11.948999999964144
312768.2937,13.738004621894083,2.9496109298462505,18.231643995977638,4.8054822907760375,11.949999999953434
312768.2947,16.652404159484938,4.521878795380031,19.98468354826791,6.28756500971459,11.951000000000931
312768.2957,19.51659833946676,6.099932892497877,21.517297274168147,7.738851874507857,11.951999999990221
312768.2967,22.28396207381142,7.662264280329102,22.81840263602071,9.143488357094567,11.952999999979511
312768.2977,24.90784184701214,9.187054657267288,23.881990880518565,10.485484775037216,11.9539999999688
312768.2987,27.339677608636233,10.650040705126123,24.703957148079844,11.746226325493105,11.95499999995809
312768.2997,29.52761704392613,12.022856770052483,25.279259622897243,12.902521437645087,11.95599999994738
312768.3007,31.415942691689274,13.272144823964418,25.59977871811945,13.925498762945312,11.956999999994878
312768.3017,32.94553662485474,14.359630698357867,25.653158268362365,14.780564699965133,11.957999999984168
312768.3027,34.055484434168555,15.243252676288655,25.422792564304956,15.42851104850843,11.958999999973457
312768.3037,34.685782849782065,15.879304395672264,24.888988131022675,15.827728854109763,11.959999999962747
312768.3047,34.7809778609534,16.22543158651093,24.031191374706335,15.937353567810597,11.960999999952037
312768.3057,34.29443714848683,16.244214274529316,22.831046798948037,15.721051937422223,11.961999999999534
312768.3067,33.192865202560675,15.906984192003822,21.275948455802506,15.151074632607765,11.962999999988824
312768.3077,31.460612174846823,15.197480161420877,19.36268022481942,14.212149776468976,11.963999999978114
312768.3087,29.103315081612493,14.114937623762277,17.10071547181604,12.904786878256008,11.964999999967404
312768.3097,26.150444750033436,12.676243707323033,14.51476647740041,11.247599401755691,11.965999999956694
312768.3107,22.656411466095296,10.916863506647708,11.646237081472687,9.278334172837784,11.966999999945983
312768.3117,18.699999682843515,8.890349832115065,8.553332243027286,7.053409670131725,11.96799999999348
312768.3127,14.382046535507493,6.666377540265704,5.3097058674124975,4.645902131397209,11.96899999998277
312768.3137,9.821436590041909,4.327382251423938,2.001670693453189,2.142065105626134,11.96999999997206
312768.3147,5.149641015265069,1.964018253963195,-1.2758629206716592,-0.36338977140386736,11.97099999996135
312768.3157,0.5041679902828224,-0.33023166960455275,-4.42442316087007,-2.7728994653081998,11.97199999995064
312768.3167,-3.978601094877172,-2.46487271107651,-7.347589201870688,-4.992099831776584,11.972999999998137
312768.3177,-8.170649084886877,-4.358167979164388,-9.956716018334161,-6.9358235224626394,11.973999999987427
312768.3187,-11.95907623858925,-5.942381567180912,-12.176286489208938,-8.533543401410009,11.974999999976717
312768.3197,-15.251844765209906,-7.168051676820342,-13.948431120112438,-9.733800351889098,11.975999999966007
312768.3207,-17.982072078802734,-8.006929767964126,-15.236225513853912,-10.507238974374966,11.976999999955297
312768.3217,-20.110552707065025,-8.45333537576095,-16.02548336613044,-10.847995184647269,11.977999999944586
312768.3227,-21.6263408517523,-8.523814014562143,-16.32489791205142,-10.773324839175574,11.978999999992084
312768.3237,-22.545392909854154,-8.25513456370871,-16.16453430821343,-10.321518526543706,11.979999999981374
312768.3247,-22.907436088592146,-7.700808659467759,-15.592824860958434,-9.548299747642854,11.980999999970663
312768.3257,-22.771379872972226,-6.926444088656375,-14.672353752769826,-8.522037383861624,11.981999999959953
312768.3267,-22.20970737958825,-6.004344754943278,-13.474824860812264,-7.318205896514428,11.982999999949243
312768.3277,-21.30236233477505,-5.007831993988002,-12.075675026391059,-6.013588384133873,11.98399999999674
312768.3287,-20.130677347398617,-4.005780055509363,-10.54881910611309,-4.68073266371532,11.98499999998603
312768.3297,-18.771867813687734,-3.0578308957775153,-8.961990112605768,-3.3831376603102297,11.98599999997532
312768.3307,-17.29454563917452,-2.210682863670118,-7.37307015882768,-2.1715699356499147,11.98699999996461
312768.3317,-15.755595123690604,-1.4957413501659678,-5.827702561549217,-1.0817958051053589,11.9879999999539
312768.3327,-14.198610943421068,-0.9282873604111499,-4.358342850210577,-0.13387437390543677,11.989000000001397
312768.3337,-12.653939184906536,-0.5081750276446555,-2.984759750451276,0.6669953876237812,11.989999999990687
312768.3347,-11.140202370559903,-0.22192525948784056,-1.7158510218065244,1.3282299457018392,11.990999999979977
312768.3357,-9.66704390984995,-0.04595374955943122,-0.5525078203393763,1.8665077023067447,11.991999999969266
312768.3367,-8.238710468680178,0.049430250155526635,0.5088419636531507,2.3036980488016514,11.992999999958556
312768.3377,-6.858013574495824,0.09568316284445884,1.4724459370450567,2.6625272144590006,11.993999999947846
312768.3387,-5.530181639242925,0.12179563533419026,2.3396498598644793,2.9624524989927337,11.994999999995343
312768.3397,-4.2661331347988645,0.15059986456864666,3.1059591784857363,3.216186877247856,11.995999999984633
312768.3407,-3.0847686756344994,0.19598149464245984,3.7590973778378074,3.427242597135916,11.996999999973923
312768.3417,-2.0139873921849096,0.2612630112487026,4.278311475297963,3.5887527211511707,11.997999999963213
312768.3427,-1.0902703981523871,0.33890153160023584,4.635040967377208,3.68369459126383,11.998999999952503
312768.3437,-0.3568276537702855,0.4115071360630322,4.794919521650871,3.6864923884435,12.0
312768.3447,0.13954115770980072,0.45405203295288954,4.720933420284414,3.565831907433942,12.00099999998929
312768.3457,0.35258131224159117,0.4370193493083969,4.377431846983516,3.2883936706767667,12.00199999997858
312768.3467,0.2413114348477891,0.3301451741213192,3.7345846535237976,2.823113154860071,12.00299999996787
312768.3477,-0.22512819674065712,0.10634796629196368,2.7728234775509217,2.1455188526566498,12.00399999995716
312768.3487,-1.0630064693265497,-0.2545786688532902,1.4867883627628982,1.2416859085630099,12.004999999946449
312768.3497,-2.2703862957818437,-0.762908903035495,-0.11166381456540518,0.11137646941737922,12.005999999993946
312768.3507,-3.824767157597186,-1.4168970570376171,-1.9917536732530807,-1.2299855814418343,12.006999999983236
312768.3517,-5.68227729064915,-2.201894104442354,-4.103624193283808,-2.750745695072237,12.007999999972526
312768.3527,-7.778566148230066,-3.090780165502245,-6.379840571097666,-4.403958992013504,12.008999999961816
312768.3537,-10.031390426173848,-4.045690597577915,-8.738493371848039,-6.129795459620421,12.009999999951106
312768.3547,-12.344728766132818,-5.020881064801673,-11.087699403989214,-7.85922117841569,12.010999999998603
312768.3557,-14.614116553774958,-5.966460019585241,-13.331158043357881,-9.518639977934999,12.011999999987893
312768.3567,-16.732776886561975,-6.8326270761638845,-15.374314541966678,-11.035083330735729,12.012999999977183
312768.3577,-18.59804793551833,-7.574001842313833,-17.13061659526118,-12.341479429896207,12.013999999966472
312768.3587,-20.117577866120303,-8.153615360808574,-18.52733262459674,-13.381520919540481,12.014999999955762
312768.3597,-21.214778970849938,-8.5461667355089,-19.510431832055605,-14.113685867564675,12.015999999945052
312768.3607,-21.83310064865654,-8.740217858187277,-20.048104344344445,-14.514044922744597,12.01699999999255
312768.3617,-21.938789692201016,-8.739102518008414,-20.13261745970575,-14.577601583124924,12.01799999998184
312768.3627,-21.521945415040978,-8.560452377689842,-19.78035015806885,-14.318051024484417,12.018999999971129
312768.3637,-20.595832966959986,-8.234378859581241,-19.030008931982277,-13.765992498447824,12.019999999960419
312768.3647,-19.194575666231486,-7.800483362412975,-17.93918855113848,-12.965776331619912,12.020999999949709
312768.3657,-17.369491140136667,-7.303985163434823,-16.579586543495026,-11.971294811421568,12.021999999997206
312768.3667,-15.184452709047608,-6.791345176514287,-15.031296404809531,-10.841124245190896,12.022999999986496
312768.3677,-12.710735702900097,-6.3058155021135605,-13.376681057145724,-9.633483704516728,12.023999999975786
312768.3687,-10.021840995108535,-5.88335411591527,-11.694357886459363,-8.401488788570719,12.024999999965075
312768.3697,-7.1887722181421205,-5.549309954221636,-10.05380727602538,-7.189144972735332,12.025999999954365
312768.3707,-4.276180893564028,-5.31620920346878,-8.51105007547148,-6.028448123036695,12.027000000001863
312768.3717,-1.3396916320124974,-5.182865912239827,-7.105732524836721,-4.937847149608278,12.027999999991152
312768.3727,1.5754118961421628,-5.134909541702832,-5.859820221262374,-3.9221866234440883,12.028999999980442
312768.3737,4.434107015010881,-5.146681470586319,-4.777949002240306,-2.974098970431451,12.029999999969732
312768.3747,7.210273569240524,-5.18431554665455,-3.8493248713044097,-2.0766711496274475,12.030999999959022
312768.3757,9.884307207102944,-5.209698017790486,-3.0509221538269258,-1.2070837454542462,12.031999999948312
312768.3767,12.440062157100662,-5.184911472302958,-2.3516124583381384,-0.34082365480840976,12.032999999995809
312768.3777,14.86155046011793,-5.076714895580346,-1.716777630423579,0.543985420527278,12.033999999985099
312768.3787,17.129848588260426,-4.860603068907261,-1.1129249692836412,1.4626019935649335,12.034999999974389
312768.3797,19.22063857312391,-4.524024540907738,-0.5118354520882292,2.4204675043444492,12.035999999963678
312768.3807,21.10274143016222,-4.06841517677919,0.1061660867279195,3.411142451355581,12.036999999952968
312768.3817,22.737892618151427,-3.509816633547444,0.750132015243678,4.415617498831931,12.038000000000466
312768.3827,24.081873243794828,-2.877985404122474,1.4177897564167923,5.403100353815268,12.038999999989755
312768.3837,25.086960318300935,-2.214045291210653,2.096257283697032,6.333229423007203,12.039999999979045
312768.3847,25.70550975441946,-1.56688011945889,2.764069678540358,7.159519159519816,12.040999999968335
312768.3857,25.894352185074347,-0.9885901748054607,3.394274570501585,7.833714002265204,12.041999999957625
312768.3867,25.619577878751166,-0.5294328342194389,3.958243902088133,8.310630601097802,12.042999999946915
312768.3877,24.861224002246605,-0.23272545050444124,4.429775210170072,8.55301136343486,12.043999999994412
312768.3887,23.617362297151868,-0.1302008506378728,4.7890248584511905,8.535902090882717,12.044999999983702
312768.3897,21.907120294581176,-0.23827119149804993,5.025831481771506,8.25010393044268,12.045999999972992
312768.3907,19.772251954596356,-0.5555773128466196,5.142048807693648,7.704331721479079,12.046999999962281
312768.3917,17.27699680435397,-1.0620853188057044,5.152607028340842,6.925829402842111,12.047999999951571
312768.3927,14.506118915533689,-1.7198506836728074,5.085151125208689,5.959337161791352,12.048999999999069
312768.3937,11.561184070707823,-2.4754160589554206,4.978250172340838,4.8644606375163795,12.049999999988358
312768.3947,8.555299276235989,-3.263656780736325,4.878319138219922,3.7116447324406754,12.050999999977648
312768.3957,5.606687384988432,-4.012752332238729,4.835529298473058,2.577088707965588,12.051999999966938
312768.3967,2.831586501675414,-4.649855660938897,4.899091502159142,1.5370422385500344,12.052999999956228
312768.3977,0.3370374928089847,-5.106965444089398,5.1123672236253705,0.6619839479515413,12.053999999945518
312768.3987,-1.7858541808941766,-5.326485523688679,5.508288285173829,0.01119860021224129,12.054999999993015
312768.3997,-3.467626626490488,-5.2659827792675395,6.105544487336171,-0.37176493051599957,12.055999999982305
312768.4007,-4.664665540369587,-4.901727078346828,6.905930997260024,-0.46235232621912925,12.056999999971595
312768.4017,-5.361555224094629,-4.230707717333905,7.893140642035176,-0.2566939758181742,12.057999999960884
312768.4027,-5.571385242051575,-3.270959366211331,9.033150579821084,0.22841445769411048,12.058999999950174
312768.4037,-5.3339965581154365,-2.0601837615159764,10.27620142703716,0.9572251884997001,12.059999999997672
312768.4047,-4.712327595417797,-0.6528067124859672,11.560214641563858,1.8782745421345761,12.060999999986961
312768.4057,-3.7871822940464472,0.8842510845750243,12.815355749667628,2.9288338006459043,12.061999999976251
312768.4067,-2.650873941586352,2.476699409864091,13.969340435567242,4.040158379544901,12.062999999965541
312768.4077,-1.4002882380795179,4.048436252188573,14.953008445062608,5.143051433373124,12.06399999995483
312768.4087,-0.12994867365275642,5.527044646627612,15.705663752816964,6.173236779317517,12.065000000002328
312768.4097,1.0743464233039925,6.848752547051324,16.179701083433606,7.076062954764848,12.065999999991618
312768.4107,2.1408110462912546,7.962441291176768,16.344106502032904,7.81013233150941,12.066999999980908
312768.4117,3.0154887989003414,8.832387798271077,16.186526733036185,8.349559173603476,12.067999999970198
312768.4127,3.6643501422977622,9.439553079262746,15.713737618214006,8.68469738241743,12.068999999959487
312768.4137,4.073583140400412,9.78137223184011,14.950493385299636,8.821328895878773,12.069999999948777
312768.4147,4.248158909315033,9.870144785970353,13.936890391206182,8.778452544053488,12.070999999996275
312768.4157,4.208908561354489,9.730255040537092,12.724516940168016,8.584946075021618,12.071999999985565
312768.4167,3.9884772401517337,9.39455728203631,11.371771311160646,8.275478163897569,12.072999999974854
312768.4177,3.626610954682478,8.90033053382951,9.938802667336603,7.886112522276119,12.073999999964144
312768.4187,3.1652753383991983,8.285235385240382,8.48255725490377,7.450066635809129,12.074999999953434
312768.4197,2.644098858679069,7.583689337144847,7.052392862771887,6.994061546504854,12.076000000000931
312768.4207,2.0965780142029216,6.8240192110695475,5.6866601959926095,6.535629455790561,12.076999999990221
312768.4217,1.5473850729888463,6.026655882289707,4.410547313929065,6.08164005696763,12.077999999979511
312768.4227,1.0109903960654774,5.203517779500012,3.2353530257274032,5.628175289276516,12.0789999999688
312768.4237,0.49166484929745613,4.358597594309019,2.159210230610896,5.16173900506397,12.07999999995809
312768.4247,-0.015221634071534883,3.4896350538938385,1.1691351215292192,4.661647373948944,12.08099999994738
312768.4257,-0.5208263502966178,2.590640898394182,0.24414735298220594,4.103321935859277,12.081999999994878
312768.4267,-1.0397168327655715,1.6549453707003645,-0.6408973745750832,3.4621125676658293,12.082999999984168
312768.4277,-1.586415950331323,0.6783879031504445,-1.5111871965740715,2.717221794140635,12.083999999973457
312768.4287,-2.17204349496908,-0.33775099018271443,-2.3879939655558498,1.8552904866965028,12.084999999962747
312768.4297,-2.801470561925592,-1.384447765133506,-3.2852976512272614,0.873239207478979,12.085999999952037
312768.4307,-3.47134005271753,-2.4435693824855456,-4.207353697191856,-0.21996417060673076,12.086999999999534
312768.4317,-4.169205620823883,-3.487648278977229,-5.14745952115017,-1.4028291047611037,12.087999999988824
312768.4327,-4.873913073675568,-4.480882315228364,-6.0880484261954155,-2.6422437191707964,12.088999999978114
312768.4337,-5.557206193529498,-5.381310501120274,-7.002098651668438,-3.8956934682478725,12.089999999967404
312768.4347,-6.186398126608183,-6.143985817670375,-7.855706420856207,-5.114598835388155,12.090999999956694
312768.4357,-6.7278248046718145,-6.724853549267156,-8.611548739435952,-6.248453886419859,12.091999999945983
312768.4367,-7.150701585454343,-7.084958921176154,-9.232866867000853,-7.249358927559775,12.09299999999348
312768.4377,-7.430948736780419,-7.194560428152899,-9.687544484326008,-8.07649246348818,12.09399999998277
312768.4387,-7.554541816679265,-7.036720275410311,-9.951841461954494,-8.700065281019436,12.09499999997206
312768.4397,-7.51998099445698,-6.60998184193544,-10.013376255238823,-9.104343410008502,12.09599999996135
312768.4407,-7.339555604800535,-5.929822684380149,-9.873024213457228,-9.289412913176976,12.09699999995064
312768.4417,-7.039198833931905,-5.028682965452576,-9.54550815487165,-9.271479657016338,12.097999999998137
312768.4427,-6.6568706918695595,-3.9545026385716238,-9.058590559120164,-9.081639699877172,12.098999999987427
312768.4437,-6.239560955034932,-2.7678433060711853,-8.450920344166997,-8.763206691962623,12.099999999976717
312768.4447,-5.839151965328625,-1.5378084482051835,-7.768726973486847,-8.367826796338793,12.100999999966007
312768.4457,-5.507508775009496,-0.33709512353849697,-7.061676424838544,-7.9507347566014195,12.101999999955297
312768.4467,-5.2912577344990375,0.7634005942300204,-6.378294895082869,-7.565594489893271,12.102999999944586
312768.4477,-5.226764073214572,1.6999522348185918,-5.7614175152463645,-7.259414825709131,12.103999999992084
312768.4487,-5.335818449683508,2.4208678873663185,-5.244125212177159,-7.06803072637751,12.104999999981374
312768.4497,-5.622490892203457,2.89041361835368,-4.84659206736223,-7.012592142343915,12.105999999970663
312768.4507,-6.07151212475902,3.091439190938712,-4.5741816034568545,-7.097410900513374,12.106999999959953
312768.4517,-6.6484057934215,3.0264659589405842,-4.417011200185733,-7.309389315372321,12.107999999949243
312768.4527,-7.301433280551208,2.7171362533583814,-4.351060704384262,-7.61910463419658,12.10899999999674
312768.4537,-7.965240995191134,2.2020732213610703,-4.340748139609702,-7.9834653606725245,12.10999999998603
312768.4547,-8.565934822578406,1.5333456722449004,-4.3427472673235625,-8.34970422908447,12.11099999997532
312768.4557,-9.02716394087357,0.7718601334513068,-4.3106933108088725,-8.660342821622704,12.11199999996461
312768.4567,-9.276690593514921,-0.017900182028162022,-4.200327364107644,-8.858667211301997,12.1129999999539
312768.4577,-9.252864352729926,-0.7733117716233819,-3.9745767577986864,-8.894201986025548,12.114000000001397
312768.4587,-8.91041514691169,-1.438731862483582,-3.6080637765886974,-8.727666787872716,12.114999999990687
312768.4597,-8.2250299439705,-1.9698465126186695,-3.0905797939033186,-8.334945595898436,12.115999999979977
312768.4607,-7.196279302408849,-2.3368644184548915,-2.429152458385489,-7.709690126814974,12.116999999969266
312768.4617,-5.84860293913661,-2.526286805550614,-1.648461879404345,-6.864306293153178,12.117999999958556
312768.4627,-4.23023489038919,-2.541120319581059,-0.7895159021097603,-5.829224474304274,12.118999999947846
312768.4637,-2.410132841598954,-2.3995480014546646,0.09334000044210715,-4.650515897674567,12.119999999995343
312768.4647,-0.47315559505706495,-2.132218980678838,0.9368417325583783,-3.3860732250940613,12.120999999984633
312768.4657,1.486109355544796,-1.7784465170045807,1.6742770014502728,-2.100708580409862,12.121999999973923
312768.4667,3.3703443482423765,-1.3817041817120481,2.2415223633280292,-0.8606238269191253,12.122999999963213
312768.4677,5.086728088510552,-0.9848718597084152,2.5830990217810506,0.27223375414115397,12.123999999952503
312768.4687,6.553772227900781,-0.625701180869699,2.657687128003611,1.2454076077342793,12.125
