TimeStamp,ECR,FCR,ECU,FCU,time_index
312802.3437,-36.81463304885099,-20.511132215116167,-21.13451351607574,-1.372327743963868,46.0
312802.3447,-29.060225848976962,-13.049200342946062,-13.689804303132897,6.9242542123409825,46.00099999998929
312802.3457,-20.72633221168598,-5.437320871534194,-6.0137668112804565,15.074733586752428,46.00199999997858
312802.3467,-12.104298077190581,2.0987210533176555,1.6162575282224196,22.849570685758618,46.00299999996787
312802.3477,-3.4917172455623398,9.335814953971273,8.92684345777744,30.03261207729977,46.00399999995716
312802.3487,4.822355330473056,16.06342783708095,15.662141963353196,36.43077010930395,46.00499999994645
312802.3497,12.571236000276787,22.092660479185056,21.596215928787952,41.88228098243725,46.005999999993946
312802.3507,19.522664195091103,27.263945470391878,26.543309344744006,46.263050395275215,46.006999999983236
312802.3517,25.48839147890761,31.452979114710804,30.36547180074879,49.49073988464783,46.007999999972526
312802.3527,30.33081698184892,34.574610643849745,32.97716358073062,51.52641604280446,46.008999999961816
312802.3537,33.9664007883728,36.58456056106844,34.34669328533603,52.37376500489251,46.009999999951106
312802.3547,36.365822480155664,37.47899322544871,34.49457077460297,52.07605105233617,46.0109999999986
312802.3557,37.55108162874026,37.292114456952504,33.489074323398576,50.71115613819197,46.01199999998789
312802.3567,37.58994203364254,36.09209106984999,31.439514574032053,48.38516338958586,46.01299999997718
312802.3577,36.588285674804595,33.97568566485958,28.48781453619891,45.22503171577139,46.01399999996647
312802.3587,34.68105329746329,31.062059315202237,24.79910428483814,41.37094386854515,46.01499999995576
312802.3597,32.02249887173409,27.486213053682132,20.552046252851845,36.96889446795273,46.01599999994505
312802.3607,28.776473144113076,23.392516306071826,15.929563031859159,32.164020185598375,46.01699999999255
312802.3617,25.107381194334874,18.92871055459774,11.110541007533762,27.095068607844052,46.01799999998184
312802.3627,21.17233972635803,14.240687031052202,6.262941613146072,21.890266332672923,46.01899999997113
312802.3637,17.114905468912557,9.468228377763149,1.5385829535691187,16.664694476835887,46.01999999996042
312802.3647,13.060573112697204,4.741787913232354,-2.9303242696018237,11.519126325583226,46.02099999994971
312802.3657,9.114067365349301,0.18026876026501634,-7.0329731017059975,6.540142582110745,46.021999999997206
312802.3667,5.358295949447813,-4.110329886819932,-10.680321022005622,1.8012281391415201,46.022999999986496
312802.3677,1.854703251644677,-8.037601288120417,-13.804354003561945,-2.6355189855196772,46.023999999975786
312802.3687,-1.3553214767680972,-11.522993550519718,-16.35665228900036,-6.717464550660293,46.024999999965075
312802.3697,-4.248366169106028,-14.501887453572833,-18.30666412480548,-10.399681218957879,46.025999999954365
312802.3707,-6.816624168105738,-16.923700484809316,-19.64005201877434,-13.643677704958284,46.02700000000186
312802.3717,-9.065552824071071,-18.75216888268537,-20.357391970100142,-16.41683794350763,46.02799999999115
312802.3727,-11.01180131594234,-19.96588054454841,-20.47339115684718,-18.69267469863137,46.02899999998044
312802.3737,-12.681540158057881,-20.559043154315603,-20.016658472949647,-20.451872482372163,46.02999999996973
312802.3747,-14.109211866990288,-20.542385223547,-19.029931316780708,-21.683969857131654,46.03099999995902
312802.3757,-15.336617305106612,-19.944014049477154,-17.570547120810446,-22.389425222341607,46.03199999994831
312802.3767,-16.41216847337894,-18.810003491892033,-15.710863277644506,-22.581734963829245,46.03299999999581
312802.3777,-17.39008627827578,-17.20446299788211,-13.53828489239393,-22.28923690952685,46.0339999999851
312802.3787,-18.32930732586307,-15.208851143843146,-11.154562116114223,-21.5562396544454,46.03499999997439
312802.3797,-19.291888736403852,-12.920342036703909,-8.67406841428468,-20.44316906017944,46.03599999996368
312802.3807,-20.340761202059046,-10.449127377112015,-6.220863433050248,-19.025512042766977,46.03699999995297
312802.3817,-21.53677056194518,-7.91463363786871,-3.9244697776990094,-17.391455510741135,46.038000000000466
312802.3827,-22.935056120505433,-5.440742864465362,-1.9144388368087277,-15.638252782616643,46.038999999989755
312802.3837,-24.580926665562874,-3.1502157198725267,-0.3139311748624754,-13.867486974908253,46.039999999979045
312802.3847,-26.505498811954567,-1.1586148645589642,0.7673244067057294,-12.179526339076764,46.040999999968335
312802.3857,-28.721443889381487,0.4318952755885861,1.2402177333348243,-10.667567104940796,46.041999999957625
312802.3867,-31.21923835511784,1.5384487419799044,1.0430435277834234,-9.411724307731799,46.042999999946915
312802.3877,-33.96432133657258,2.1026435293990575,0.14731869842938838,-8.473653147719789,46.04399999999441
312802.3887,-36.895528347144996,2.0945653908243482,-1.4379061549773895,-7.8921597408818185,46.0449999999837
312802.3897,-39.925094040648126,1.5153285459003782,-3.6636938426158294,-7.680192303158773,46.04599999997299
312802.3907,-42.94040513536282,0.3978901906453873,-6.441149046425816,-7.823497879320949,46.04699999996228
312802.3917,-45.80754730623605,-1.193981325361068,-9.64378565603454,-8.281095454193268,46.04799999995157
312802.3927,-48.3765397694298,-3.1685677666909084,-13.112304598608366,-8.987566231242216,46.04899999999907
312802.3937,-50.48800292432237,-5.4107358393365335,-16.661563941098233,-9.857010139412369,46.04999999998836
312802.3947,-51.98087236645277,-7.787861132756855,-20.089346540595958,-10.788378502600874,46.05099999997765
312802.3957,-52.70067008706769,-10.156750194150552,-23.186383555920838,-11.67177931739557,46.05199999996694
312802.3967,-52.507781284856,-12.37109489436461,-25.74698827302923,-12.395274287269835,46.05299999995623
312802.3977,-51.28516971951142,-14.288956883556901,-27.579603565844213,-12.85165271823715,46.05399999994552
312802.3987,-48.94499825553748,-15.779785394152102,-28.51657269248366,-12.944679507140258,46.054999999993015
312802.3997,-45.433701777555775,-16.730518431541814,-28.422506497418155,-12.594371263477543,46.055999999982305
312802.4007,-40.73518009091984,-17.050401207166022,-27.20073468979848,-11.740950379868348,46.056999999971595
312802.4017,-34.87192797102331,-16.674268806154412,-24.79748423133857,-10.347252218727773,46.057999999960884
312802.4027,-27.90408455834498,-15.564172119331749,-21.20360980834415,-8.399503367826377,46.058999999950174
312802.4037,-19.92654962242163,-13.709364829293252,-16.453893309351127,-5.906535393683112,46.05999999999767
312802.4047,-11.06446452949714,-11.124801926241414,-10.624113783214478,-2.8976346642571063,46.06099999998696
312802.4057,-1.4674770819496035,-7.848414634668275,-3.8262499296603605,0.5806583465225619,46.06199999997625
312802.4067,8.696709528953793,-3.9375123057263384,3.7977004196699773,4.468407985913153,46.06299999996554
312802.4077,19.248970108970955,0.5352889115569758,12.082725595267181,8.696370719912998,46.06399999995483
312802.4087,30.00505708609647,5.486202124042794,20.848052504565768,13.189887942699157,46.06500000000233
312802.4097,40.78111662322438,10.824094080325573,29.904103901178573,17.872211907393623,46.06599999999162
312802.4107,51.39808013923785,16.453690600158307,39.05870357611922,22.666980897950378,46.06699999998091
312802.4117,61.684730438388975,22.277954422596046,48.1221981173762,27.49967707617827,46.0679999999702
312802.4127,71.47939963786901,28.199544671417136,56.91131611242206,32.29803436896248,46.06899999995949
312802.4137,80.63041599971353,34.12139175966456,65.2517483848871,36.991500336406865,46.06999999994878
312802.4147,88.99556242985302,39.94653986254963,72.97958892556152,41.50998077969535,46.070999999996275
312802.4157,96.44092577637471,45.57750850752383,79.94190919001187,45.78219549814404,46.071999999985565
312802.4167,102.83959075385582,50.91549460285661,85.99683435790575,49.7340370251143,46.072999999974854
312802.4177,108.07065685687255,55.85976851592854,91.01353875927356,53.287343798170724,46.073999999964144
312802.4187,112.0190273346666,60.307608544008154,94.87257362401095,56.35947181580608,46.074999999953434
312802.4197,114.5763377902473,64.15506744833466,97.46688372239352,58.863975914002076,46.07600000000093
312802.4207,115.643265086748,67.2987770811277,98.70376596433005,60.71259957222156,46.07699999999022
312802.4217,115.133296517521,69.63888085312884,98.50788323541252,61.81863101921438,46.07799999997951
312802.4227,112.97785980442961,71.08305030167982,96.82528525743965,62.10152696904191,46.0789999999688
312802.4237,109.13253386125004,71.55140475277936,93.62822218590624,61.49254912038457,46.07999999995809
312802.4247,103.58389642413768,70.9820261092098,88.92038392851313,59.94101855085154,46.08099999994738
312802.4257,96.3564344935489,69.33665746481324,82.74207572268797,57.42068410531013,46.08199999999488
312802.4267,87.51886113391201,66.60610575146481,75.17476255742528,53.93563490347499,46.08299999998417
312802.4277,77.18915740704726,62.81484291485157,66.3443915825225,49.52517232846516,46.08399999997346
312802.4287,65.53769570961687,58.024321046759816,56.42293748112186,44.26709663961883,46.08499999996275
312802.4297,52.78789943118712,52.33458384410285,45.62770986396821,38.278955796225894,46.08599999995204
312802.4307,39.21404682438891,45.88386465204443,34.21810730013326,31.71694220329956,46.086999999999534
312802.4317,25.136022340426308,38.8460011829821,22.48968771498788,24.77229545154513,46.087999999988824
312802.4327,10.91104045762699,31.425656750130237,10.765633629310225,17.665260893226126,46.088999999978114
312802.4337,-3.077403321181938,23.851503622715146,-0.6140953565416771,10.636848275101576,46.089999999967404
312802.4347,-16.432881508114043,16.36768149053699,-11.305430512116432,3.9388144686070596,46.09099999995669
312802.4357,-28.761022824254663,9.223979450009729,-20.9740222816259,-2.1775563245020395,46.09199999994598
312802.4367,-39.685336545590374,2.66529190504602,-29.309448663998747,-7.473195841208522,46.09299999999348
312802.4377,-48.86298581185677,-3.079041078380127,-36.038961956102376,-11.732786689142916,46.09399999998277
312802.4387,-55.999603430650474,-7.805384719131226,-40.93993548921082,-14.775361758378802,46.09499999997206
312802.4397,-60.86229076301083,-11.34486074696678,-43.85024036647079,-16.463302307755626,46.09599999996135
312802.4407,-63.29004949441538,-13.570784472235264,-44.6759101425612,-16.709181403673384,46.09699999995064
312802.4417,-63.20105817447271,-14.404086025651926,-43.395628192317446,-15.480052922273964,46.09799999999814
312802.4427,-60.596406827469025,-13.816452964402522,-40.061783322731344,-12.79896743061362,46.09899999998743
312802.4437,-55.56012722742772,-11.831084457521044,-34.798066335229095,-8.743689333331996,46.09999999997672
312802.4447,-48.25558569375942,-8.521101697782196,-27.793804942762236,-3.4427784439915645,46.10099999996601
312802.4457,-38.91852175863112,-4.0058026969756435,-19.295438475640402,2.930631811194101,46.1019999999553
312802.4467,-27.847203744367608,1.5549286714173889,-9.59570118833112,10.16689123218435,46.102999999944586
312802.4477,-15.390318155328524,7.967658124159933,0.9787986439375781,18.029163070892416,46.103999999992084
312802.4487,-1.9333048576040215,15.013424066612217,12.080854963404514,26.263421164072366,46.10499999998137
312802.4497,12.116110036492328,22.456273817129556,23.356044087232924,34.6085123833434,46.10599999997066
312802.4507,26.34244634855253,30.051857379764364,34.45551112882258,42.805734164693696,46.10699999995995
312802.4517,40.336394103665384,37.55567428815941,45.04756736232036,50.607467440742425,46.10799999994924
312802.4527,53.70756176198608,44.73064522683575,54.827642374301085,57.7845246188829,46.10899999999674
312802.4537,66.09561380441286,51.35377246065077,63.52629628995184,64.13200775286586,46.10999999998603
312802.4547,77.17951159289555,57.22175166155402,70.91516517094712,69.4736102796323,46.11099999997532
312802.4557,86.68472087657591,62.155492607348236,76.81087112869103,73.66442356593825,46.11199999996461
312802.4567,94.38838649821659,66.00358848139459,81.07706373011543,76.59241557082468,46.1129999999539
312802.4577,100.12258868129615,68.6448359555798,83.62485983697374,78.17882437556523,46.1140000000014
312802.4587,103.77587773420841,69.98994616846556,84.41200805351248,78.37774878779898,46.11499999999069
312802.4597,105.29333082238709,69.98259825253585,83.4411189983799,77.17522018439136,46.11599999997998
312802.4607,104.67538538850326,68.59997334247726,80.75727593769416,74.58800664124558,46.116999999969266
312802.4617,101.9756825150398,65.85287195273703,76.44527859180533,70.66233824294848,46.117999999958556
312802.4627,97.29810709737899,61.78546755596298,70.62668645734503,65.47266025093452,46.118999999947846
312802.4637,90.7931497545262,56.474692104110424,63.456729547082524,59.120429506613206,46.11999999999534
312802.4647,82.65364900610695,50.029193886290834,55.1210578984499,51.732880864111834,46.12099999998463
312802.4657,73.10991260474803,42.58776311011595,45.83221994785429,43.46161598904163,46.12199999997392
312802.4667,62.42417411121682,34.317093374871675,35.82570538920099,34.4808163101194,46.12299999996321
312802.4677,50.88432259481949,25.408743203578815,25.355368676602186,24.984862376727918,46.1239999999525
312802.4687,38.796854237175225,16.075183754325245,14.688068939899805,15.185156991578799,46.125
312802.4697,26.479035282621094,6.544866396421185,4.097420084432925,5.305998973635322,46.12599999998929
312802.4707,14.250332898617526,-2.94368646430504,-6.1433641576505424,-4.420565962291459,46.12699999997858
312802.4717,2.4232570938374662,-12.148678412565548,-15.769431079717695,-13.760888723828586,46.12799999996787
312802.4727,-8.706147039878564,-20.832542210748468,-24.532831677199596,-22.486712454502428,46.12899999995716
312802.4737,-18.867823623107498,-28.769877248173813,-32.21130024146366,-30.38276453441776,46.12999999994645
312802.4747,-27.82683436662772,-35.7554718823583,-38.61682414549091,-37.25458889051482,46.130999999993946
312802.4757,-35.391625248663935,-41.612005880353884,-43.60348777077118,-42.936186875837585,46.131999999983236
312802.4767,-41.420947596895694,-46.19700224896294,-47.07404823603522,-47.29699348079246,46.132999999972526
312802.4777,-45.828972693493114,-49.408606063224845,-48.984723710040385,-50.24771452074484,46.133999999961816
312802.4787,-48.58820498962333,-51.1898119151233,-49.347749034786894,-51.74459196313054,46.134999999951106
312802.4797,-49.729905358960494,-51.530839249325645,-48.23137432978088,-51.791746726920465,46.1359999999986
312802.4807,-49.341875683497996,-50.46946070137087,-45.75714141365379,-50.44136502053666,46.13699999998789
312802.4817,-47.56361891201216,-48.08921430634171,-42.09445733289454,-47.79163596397153,46.13799999997718
312802.4827,-44.57906132352568,-44.515565731262484,-37.4526781793611,-43.98250265534007,46.13899999996647
312802.4837,-40.60719139547742,-39.91022007434987,-32.071102491259396,-39.18944238759805,46.13999999995576
312802.4847,-35.8911177414767,-34.46390290586529,-26.20743497387121,-33.615630743735515,46.14099999994505
312802.4857,-30.686163788729466,-28.388026907717865,-20.125403139556322,-27.48295643500414,46.14199999999255
312802.4867,-25.247688656877564,-21.905725658170674,-14.082280286432809,-21.02242912310572,46.14299999998184
312802.4877,-19.819345240390632,-15.242764649810645,-8.317081092854432,-14.464554635581313,46.14399999997113
312802.4887,-14.622455306785424,-8.61882969890104,-3.040149274472277,-8.030238502665586,46.14499999996042
312802.4897,-9.847099603128743,-2.239646111199929,1.575246164329086,-1.9227213586031013,46.14599999994971
312802.4907,-5.64539498452125,3.7096968724953374,5.398839990689894,3.6790458343715,46.146999999997206
312802.4917,-2.1272706799698615,9.06994521928589,8.346544285721137,8.6253034953516,46.147999999986496
312802.4927,0.6411249252146926,13.711250208847853,10.380790082573176,12.798521123065253,46.148999999975786
312802.4937,2.636442418869224,17.53508001375633,11.508167156010979,16.114577003162683,46.149999999965075
312802.4947,3.874807540084208,20.474560481146618,11.774683276753098,18.522224472282616,46.150999999954365
312802.4957,4.4065428753118985,22.49343440499153,11.259124622330427,20.001107288535604,46.15200000000186
312802.4967,4.309441323340333,23.583906452212545,10.06511567673289,20.5586741421653,46.15299999999115
312802.4977,3.681171762990141,23.763689398424265,8.312540915453765,20.22639230512693,46.15399999998044
312802.4987,2.6314217879786383,23.072583562905084,6.128997590450625,19.055669480998734,46.15499999996973
312802.4997,1.2743562379018576,21.56890547017497,3.6418997512606683,17.113861623986203,46.15599999995902
312802.5007,-0.27810283289763854,19.326036980712487,0.9717539650624327,14.480677290674963,46.15699999994831
312802.5017,-1.9217813916147157,16.42929832122063,-1.773012810888084,11.245193922027841,46.15799999999581
312802.5027,-3.5642907578086453,12.9732656864495,-4.499459366772525,7.503589062906682,46.1589999999851
312802.5037,-5.127498399470418,9.05956589133071,-7.13173369828145,3.357572421799275,46.15999999997439
312802.5047,-6.5484873216591115,4.795096942502842,-9.611007833122258,-1.0866040905293262,46.16099999996368
312802.5057,-7.779197436391569,0.290553880486872,-11.894026189421337,-5.718769363630149,46.16199999995297
312802.5067,-8.785051942659583,-4.3409081987626355,-13.95066122887558,-10.425357545608742,46.163000000000466
312802.5077,-9.542942623072586,-8.98506184527957,-15.76093507589681,-15.090122095728516,46.163999999989755
312802.5087,-10.038973994475613,-13.528223312571427,-17.311978603107125,-19.595306819657043,46.164999999979045
312802.5097,-10.266346080227898,-17.85923527660567,-18.5953602308802,-23.823481774281188,46.165999999968335
312802.5107,-10.223692758710751,-21.87189061314825,-19.605130783330072,-27.660159868187353,46.166999999957625
312802.5117,-9.914095302573264,-25.467790661161242,-20.336808513724645,-30.997195456551058,46.167999999946915
312802.5127,-9.344870673264841,-28.55954315456532,-20.787384018715365,-33.736842204691705,46.16899999999441
312802.5137,-8.528105612940038,-31.074120464028656,-20.956274697978237,-35.7962284382411,46.1699999999837
312802.5147,-7.481785675870415,-32.95612889343283,-20.847019747828025,-37.11190848449443,46.17099999997299
312802.5157,-6.231267346047717,-34.170694149400546,-20.469395193939945,-37.644080808123675,46.17199999996228
312802.5167,-4.810773176725362,-34.70565390997361,-19.841556967704815,-37.38003755905359,46.17299999995157
312802.5177,-3.2645626139965653,-34.57276946272971,-18.99179691788851,-36.33643068583796,46.17399999999907
312802.5187,-1.64744834659021,-33.80772457408005,-17.95952500614693,-34.560007255808216,46.17499999998836
312802.5197,-0.02438814945532407,-32.46876701276432,-16.7951681672567,-32.12657618979531,46.17599999997765
312802.5207,1.531021098617802,-30.633958772153605,-15.558794415342813,-29.138110716072926,46.17699999996694
312802.5217,2.939197735246427,-28.397124448531876,-14.31741717622624,-25.71805220033654,46.17799999995623
312802.5227,4.118293039524925,-25.8627111080356,-13.141093733101098,-22.00504597242339,46.17899999994552
312802.5237,4.988754289845195,-23.1398845300316,-12.098085759042707,-18.14549194841244,46.179999999993015
312802.5247,5.478399056591203,-20.336274066471393,-11.24948214121484,-14.285416776768377,46.180999999982305
312802.5257,5.527580812709287,-17.551831778614773,-10.643779725343325,-10.562256973939133,46.181999999971595
312802.5267,5.093980345698111,-14.873284455293478,-10.311964906045437,-7.0971749368984955,46.182999999960884
312802.5277,4.156557987829126,-12.36962689234857,-10.26363163798377,-3.988507437248727,46.183999999950174
312802.5287,2.718249579611442,-10.089032879023335,-10.48460839060747,-1.306869982622864,46.18499999999767
312802.5297,0.8070807952170267,-8.057452169024701,-10.936452348473969,0.9076838731551905,46.18599999998696
312802.5307,-1.5244979712653546,-6.2790262863378095,-11.55801346185841,2.6462112075631596,46.18699999997625
312802.5317,-4.2021021085736425,-4.738304959279965,-12.269087706647442,3.929085145566645,46.18799999996554
312802.5327,-7.1336125622765065,-3.4040914974937126,-12.975984961871422,4.80199920497729,46.18899999995483
312802.5337,-10.21481168757705,-2.234603100142451,-13.578650429561696,5.330096875793663,46.19000000000233
312802.5347,-13.336044825190356,-1.1835136284666532,-13.97881730387237,5.59071132605298,46.19099999999162
312802.5357,-16.389393229063266,-0.20636252671460706,-14.088548212540655,5.665319173172345,46.19199999998091
312802.5367,-19.275783434941754,0.7332278563620976,-13.83845607490384,5.631381163801333,46.1929999999702
312802.5377,-21.911447558092966,1.6580790948371347,-13.18488907427972,5.554755093487741,46.19399999995949
312802.5387,-24.23319033608293,2.5732281314329852,-12.115421679401866,5.483320956305027,46.19499999994878
312802.5397,-26.202009287647538,3.463348592139519,-10.65211068243636,5.4423587037313865,46.195999999996275
312802.5407,-27.804746943346938,4.292096298067891,-8.852143251972148,5.432073338613066,46.196999999985565
312802.5417,-29.053617608320163,5.003497213124298,-6.805709516676634,5.427482572896002,46.197999999974854
312802.5427,-29.983631455698294,5.525327586877288,-4.6311580853866445,5.380684080446292,46.198999999964144
312802.5437,-30.64812007105614,5.774269160299654,-2.4677198978692725,5.22531928891436,46.199999999953434
312802.5447,-31.112733657532793,5.662471010408694,-0.46629411239187923,4.882865725073101,46.20100000000093
312802.5457,-31.448415854311797,5.105026774284795,1.2210391560973863,4.2702359736557804,46.20199999999022
312802.5467,-31.723954920295043,4.027792186273034,2.4519961198806524,3.3080515288175407,46.20299999997951
312802.5477,-31.998751035369256,2.3749304094021224,3.104719147012103,1.9289035997296502,46.2039999999688
312802.5487,-32.316424478197945,0.11558491192256017,3.0872368878561254,0.08491497826521704,46.20499999995809
312802.5497,-32.699819414460556,-2.750859327047642,2.3450166786411115,-2.2460230787069366,46.20599999994738
312802.5507,-33.14783910030157,-6.191360967016523,0.866017550251214,-5.055852999397216,46.20699999999488
312802.5517,-33.63439125120976,-10.137949592451923,-1.3171519804303713,-8.30415230332005,46.20799999998417
312802.5527,-34.1095415704815,-14.488729795968455,-4.128139059994291,-11.918312909561005,46.20899999997346
312802.5537,-34.502785632871785,-19.11112738685792,-7.450742209647576,-15.79608411444199,46.20999999996275
312802.5547,-34.72817170407624,-23.847180005747095,-11.13549438617533,-19.81027805801157,46.21099999995204
312802.5557,-34.69085569762022,-28.520531213727164,-15.008428814507734,-23.81527179355034,46.211999999999534
312802.5567,-34.29455759330276,-32.944675043734776,-18.881368237026233,-27.65481141149805,46.212999999988824
312802.5577,-33.449325446759055,-36.931925050891934,-22.562982425809565,-31.17054102816926,46.213999999978114
312802.5587,-32.07900286783846,-40.302552118250794,-25.86982849593322,-34.21064811242829,46.214999999967404
312802.5597,-30.127837585681174,-42.893548544763505,-28.636623884179592,-36.63803682057239,46.21599999995669
312802.5607,-27.565756564513567,-44.56652823315766,-30.725096782889054,-38.33750811164853,46.21699999994598
312802.5617,-24.391957051777982,-45.214356821194,-32.03090196303761,-39.22153062799075,46.21799999999348
312802.5627,-20.6366099342516,-44.76621177609923,-32.4882659176325,-39.23431778582234,46.21899999998277
312802.5637,-16.360627329291848,-43.190890042746766,-32.07221646376835,-38.35407065048884,46.21999999997206
312802.5647,-11.653595918558308,-40.498299030349706,-30.798440297986584,-36.593389125822945,46.22099999996135
312802.5657,-6.63010802719332,-36.73917580853976,-28.720980822211608,-33.99798303645396,46.22199999995064
312802.5667,-1.4248233576948321,-32.003171516705216,-25.928124094571878,-30.643919380172992,46.22299999999814
312802.5677,3.8133414350780503,-26.415507781844045,-22.536913353764362,-26.633715073570663,46.22399999998743
312802.5687,8.927473606303066,-20.132456722077514,-18.686777340654796,-22.09162223572989,46.22499999997672
312802.5697,13.758968239710613,-13.335915904887809,-14.532754674136083,-17.15845550248287,46.22599999996601
312802.5707,18.15351653466453,-6.227346846836175,-10.238750544067338,-11.986281539634316,46.2269999999553
312802.5717,21.96649528807929,0.9786753914891889,-5.971181570459365,-6.733236200802032,46.227999999944586
312802.5727,25.06756706193336,8.06108762795951,-1.8932612809445866,-1.5586630910317927,46.228999999992084
312802.5737,27.34439954985607,14.798965167306662,1.839934724152986,3.381311789731504,46.22999999998137
312802.5747,28.705507175717546,20.978015994259515,5.08559499474917,7.937731438676316,46.23099999997066
312802.5757,29.0822980512605,26.396843764580755,7.71655566107048,11.972312979919119,46.23199999995995
312802.5767,28.430466998288217,30.872905741954902,9.624076260697073,15.360581332380926,46.23299999994924
312802.5777,26.73090486749849,34.24810393955273,10.720180272056181,17.994729817507853,46.23399999999674
312802.5787,23.990293389337854,36.393945858332586,10.939734361701186,19.78630394441452,46.23499999998603
312802.5797,20.241524131323605,37.21619614583696,10.24240745454292,20.668777382853918,46.23599999997532
312802.5807,15.544023992012084,36.65891492571065,8.614588004186167,20.600040501289325,46.23699999996461
312802.5817,9.98399523270322,34.70774690759578,6.071253555837258,19.56475813655618,46.2379999999539
312802.5827,3.674494945673179,31.39229349761829,2.6576918959391937,17.576482921848932,46.2390000000014
312802.5837,-3.244801776472706,26.787374645328047,-1.5491194939059034,14.679343303243776,46.23999999999069
312802.5847,-10.608377306950354,21.012974873808226,-6.439746168845343,10.949071426744116,46.24099999997998
312802.5857,-18.226449739615237,14.232674973010306,-11.872461804762258,6.493104715773537,46.241999999969266
312802.5867,-25.887626424860905,6.650401839748305,-17.67467814035629,1.4494936541673773,46.242999999958556
312802.5877,-33.36287462503698,-1.4946136492143456,-23.645941044798736,-4.015618330207031,46.243999999947846
312802.5887,-40.41097999535251,-9.934697392250886,-29.562717382146783,-9.712107870599553,46.24499999999534
312802.5897,-46.78555500587486,-18.382332037370215,-35.18507855461389,-15.431640613281758,46.24599999998463
312802.5907,-52.243520916074814,-26.54029457427462,-40.265233725087334,-20.95503130171796,46.24699999997392
312802.5917,-56.55483009101317,-34.113000820698936,-44.5576912546993,-26.060986750811068,46.24799999996321
312802.5927,-59.51303501429631,-40.81860122944323,-47.83064674813394,-30.535877531904813,46.2489999999525
312802.5937,-60.94616278907445,-46.40126408994595,-49.878028150954904,-34.18405025978955,46.25
312802.5947,-60.727235870408954,-50.64300242203392,-50.5314907197797,-36.838085021744995,46.25099999998929
312802.5957,-58.783706319729404,-53.37436032878541,-49.671563936356264,-38.36833483049315,46.25199999997858
312802.5967,-55.10505385498478,-54.48328133079908,-47.23712174410033,-38.69106623094678,46.25299999996787
312802.5977,-49.74784455409524,-53.92153961382732,-43.23238512559638,-37.77455842840513,46.25399999995716
312802.5987,-42.837658713032354,-51.70822513782492,-37.73077424808939,-35.642613617722944,46.25499999994645
312802.5997,-34.56746831658316,-47.92993037162805,-30.87510180056211,-32.375079261989455,46.255999999993946
312802.6007,-25.192266014922044,-42.73748059359042,-22.873828799714097,-28.105174308161047,46.256999999983236
312802.6017,-15.020002241210195,-36.33926777071441,-13.993372309003282,-23.013631554101014,46.257999999972526
312802.6027,-4.39915498005345,-28.9914735690901,-4.546739999963131,-17.319899993046644,46.258999999961816
312802.6037,6.296484678380997,-20.9856820834564,5.120954488668915,-11.27087449772559,46.259999999951106
312802.6047,16.685001197464416,-12.634569526356918,14.649293034541415,-5.127816157290401,46.2609999999986
312802.6057,26.39453284091736,-4.256500303056727,23.680673467514463,0.8477227483912696,46.26199999998789
312802.6067,35.08134895760166,3.840056103787098,31.878626579949145,6.408063906598337,46.26299999997718
312802.6077,42.44670932752354,11.37135328614885,38.945166174396086,11.332730388133182,46.26399999996647
312802.6087,48.251445697203174,18.091555081886725,44.63605592145098,15.440057659895096,46.26499999995576
312802.6097,52.32734309090458,23.803508549415984,48.77301000473208,18.596327531413703,46.26599999994505
312802.6107,54.58460614893002,28.366498250093155,51.25205351117302,20.721841997908875,46.26699999999255
312802.6117,55.01495741267716,31.700588477057423,52.04753652632283,21.793576740018466,46.26799999998184
312802.6127,53.690209373132355,33.78739660223156,51.2116010587462,21.84430359064475,46.26899999997113
312802.6137,50.75645677295507,34.66738368372402,48.869217301574466,20.958326887735,46.26999999996042
312802.6147,46.4243260870651,34.433978700877276,45.20920959631827,19.26421922292059,46.27099999994971
312802.6157,40.955972843651175,33.22505256137002,40.471958566283256,16.925148119036884,46.271999999997206
312802.6167,34.64971550695203,31.21241265048433,34.93467365972581,14.127540330921722,46.272999999986496
312802.6177,27.823323078199245,28.590087657849544,28.895264615140047,11.068923127527848,46.273999999975786
312802.6187,20.79702452487629,25.562210184644762,22.65589257889751,7.945806049580266,46.274999999965075
312802.6197,13.877280339824889,22.331280947712575,16.50725041507124,4.942422245927272,46.275999999954365
312802.6207,7.342255151201437,19.087518113914737,10.714512914542897,2.221041478707525,46.27700000000186
312802.6217,1.429766352977023,15.999867785167936,5.505723305355685,-0.08559158522836284,46.27799999999115
312802.6227,-3.6717271241258898,13.209089813156554,1.0631599944394334,-1.879334796353778,46.27899999998044
312802.6237,-7.82877069003432,10.823152138968211,-2.4820224197805247,-3.0990954073403825,46.27999999996973
312802.6247,-10.965116098821634,8.914982787514308,-5.051838901706246,-3.7207120202187065,46.28099999995902
312802.6257,-13.060635606430703,7.522456986766203,-6.620406127416855,-3.754529840171588,46.28199999994831
312802.6267,-14.147308874250628,6.6503511822013435,-7.210163581205718,-3.2410849997867643,46.28299999999581
312802.6277,-14.302803484071019,6.273886448933481,-6.885938396983556,-2.2454239943371284,46.2839999999851
312802.6287,-13.642276268367187,6.343417517020847,-5.74750067975897,-0.8506400305675155,46.28499999997439
312802.6297,-12.30907072711936,6.789802494721778,-3.921284138274187,0.8487925223555967,46.28599999996368
312802.6307,-10.464976715977102,7.53001017785133,-1.5519137641296084,2.7533577963609734,46.28699999995297
312802.6317,-8.280658550191658,8.472580354647704,1.205903656425897,4.764082086730497,46.288000000000466
312802.6327,-5.926757115975221,9.522638330311446,4.194696227378274,6.787060835038445,46.288999999989755
312802.6337,-3.5660439807643507,10.58626645574794,7.260470367649051,8.736774366194531,46.289999999979045
312802.6347,-1.3468658640618818,11.574140348222054,10.257756126880881,10.538184492829872,46.290999999968335
312802.6357,0.6020188305864745,12.404433799730478,13.053474051350888,12.127735897947717,46.291999999957625
312802.6367,2.1752299513464024,13.00507384383108,15.529761641302175,13.453489890394119,46.292999999946915
312802.6377,3.293293708661227,13.315478580099887,17.585978341908742,14.474683989099434,46.29399999999441
312802.6387,3.90407999064139,13.287931062558183,19.140144834306366,15.161033564514467,46.2949999999837
312802.6397,3.983342934932512,12.888732543669947,20.130063880751244,15.49207106666272,46.29599999997299
312802.6407,3.5345475071372854,12.099241032309136,20.514320209662266,15.456758629854077,46.29699999996228
312802.6417,2.588125205726138,10.91684311913166,20.273274763009624,15.053519740643976,46.29799999995157
312802.6427,1.2002432378915864,9.35583743802144,19.41006664925623,14.29072710893895,46.29899999999907
312802.6437,-0.5488951910960747,7.44813745635618,17.95152919757282,13.187570733759307,46.29999999998836
312802.6447,-2.5572645564606167,5.243640215777362,15.948830027226915,11.775126659845842,46.30099999997765
312802.6457,-4.703837301186603,2.8100658745983513,13.477573310980535,10.097366212188895,46.30199999996694
312802.6467,-6.852126607153219,0.23205802473998513,10.637066937138764,8.211798177862692,46.30299999995623
312802.6477,-8.85456038137956,-2.3906486296246565,7.5484654864634795,6.189429418219311,46.30399999994552
312802.6487,-10.557755462723424,-4.946137511151749,4.3515542791896635,4.113765257357531,46.304999999993015
312802.6497,-11.808690723534584,-7.314361716745513,1.2000372989230377,2.0786474961491095,46.305999999982305
312802.6507,-12.461682848035952,-9.372300999642674,-1.7446755203683892,0.1848382849332833,46.306999999971595
312802.6517,-12.385958672773041,-11.000071117246064,-4.321030873659367,-1.4646083237329888,46.307999999960884
312802.6527,-11.47350521140264,-12.087713977334495,-6.375931625045799,-2.7700020868014334,46.308999999950174
312802.6537,-9.646776338452584,-12.542288894305646,-7.773908837763837,-3.641376720202279,46.30999999999767
312802.6547,-6.865756987132637,-12.294799983369737,-8.406278135999507,-4.005114503230759,46.31099999998696
312802.6557,-3.133843510055161,-11.306443216996492,-8.199611820516393,-3.810312472603522,46.31199999997625
312802.6567,1.4979984399310915,-9.573647179604876,-7.122832809228742,-3.034329474696807,46.31299999996554
312802.6577,6.929284526910392,-7.131418645809306,-5.192273056741815,-1.6869671529533636,46.31399999995483
312802.6587,13.01065407571576,-4.054588027037825,-2.4741386585201686,0.18719479083669627,46.31500000000233
312802.6597,19.547339225281277,-0.45667618875688304,0.9160187636687408,2.5086714479754444,46.31599999999162
312802.6607,26.305512144144533,3.5137354968412815,4.817020591354582,5.165357262146214,46.31699999998091
312802.6617,33.021355889266836,7.67906806274442,9.028930880870075,8.017238472724665,46.3179999999702
312802.6627,39.412493849582205,11.840988517498868,13.322792369046676,10.903349739890125,46.31899999995949
312802.6637,45.1912155107491,15.79040302371925,17.452708459911346,13.650596886439324,46.31999999994878
312802.6647,50.07877071803326,19.3186157948305,21.169547173069756,16.083896929299957,46.320999999996275
312802.6657,53.819886935586865,22.228957277266005,24.235390413493704,18.03695585001506,46.321999999985565
312802.6667,56.196606800511596,24.348124140654726,26.437765393031036,19.362927012144947,46.322999999974854
312802.6677,57.040554143690706,25.536470897430522,27.60268398802682,19.944177267052574,46.323999999964144
312802.6687,56.24281727285069,25.696550343503755,27.605582979752388,19.700436513413884,46.324999999953434
312802.6697,53.76078409157877,24.779313794784393,26.37939917457603,18.594716742671572,46.32600000000093
312802.6707,49.62146395719142,22.787543507512364,23.919217278538103,16.63654960549682,46.32699999999022
312802.6717,43.921070314674566,19.776285576395164,20.28317827091426,13.882293486009036,46.32799999997951
312802.6727,36.82089658916895,15.850265714613059,15.589610806901332,10.432484484788782,46.3289999999688
312802.6737,28.53977411676782,11.158484704938965,10.010624513166203,6.426431056605955,46.32999999995809
312802.6747,19.343633614804194,5.886387069361931,3.762658435740747,2.034459604027093,46.33099999994738
312802.6757,9.532881447968041,0.2461594149312874,-2.9053110663944866,-2.551609941180766,46.33199999999488
312802.6767,-0.5715668003605786,-5.534169082437628,-9.725048403339848,-7.129058257370766,46.33299999998417
312802.6777,-10.642690424830175,-11.222091226218991,-16.42289046331602,-11.49516930676375,46.33399999997346
312802.6787,-20.361310548098626,-16.591717471716127,-22.73319945130266,-15.457684071050819,46.33499999996275
312802.6797,-29.428765466295868,-21.43392534656296,-28.410579869739077,-18.844114447604284,46.33599999995204
312802.6807,-37.577641565617334,-25.56499261280793,-33.24014505392081,-21.50934832395295,46.336999999999534
312802.6817,-44.580075637763805,-28.83329122954988,-37.04531329379071,-23.34114163506974,46.337999999988824
312802.6827,-50.25336185573809,-31.12379154955626,-39.69284129388403,-24.26328467710775,46.338999999978114
312802.6837,-54.46282245793145,-32.36030765569405,-41.0950418505273,-24.236429821624032,46.339999999967404
312802.6847,-57.12211469343719,-32.50558885396687,-41.20936099495204,-23.25675746790487,46.34099999995669
312802.6857,-58.191328954476134,-31.559513957035556,-40.03568695889871,-21.352819516005713,46.34199999994598
312802.6867,-57.67336898334948,-29.555761726322707,-37.611912271753106,-18.581020901367346,46.34299999999348
312802.6877,-55.609184289093925,-26.557404161937054,-34.00835938110398,-15.020270285575894,46.34399999998277
312802.6887,-52.0724430007317,-22.65189526979963,-29.321703899884923,-10.766346569257456,46.34499999997206
312802.6897,-47.16419201528253,-17.945907315621465,-23.668989027753074,-5.926489721741798,46.34599999996135
312802.6907,-41.00795795974359,-12.560404743448586,-17.182227307746786,-0.6146389834134217,46.34699999995064
312802.6917,-33.74560954900354,-6.626252056336814,-10.003944522103156,5.052380294406261,46.34799999999814
312802.6927,-25.534145267482575,-0.2805379390204281,-2.2838520596027556,10.957563911305197,46.34899999998743
312802.6937,-16.543407643381634,6.336322901184765,5.823342440119975,16.985323272628666,46.34999999997672
312802.6947,-6.954574455831485,13.082762896122338,14.159141645887843,23.02210086123641,46.35099999996601
312802.6957,3.0408459829815766,19.817658010886873,22.56177422793326,28.95625717997075,46.3519999999553
312802.6967,13.241871074497606,26.40156282286261,30.866405056234584,34.67756054454427,46.352999999944586
312802.6977,23.4391413546664,32.69783245280104,38.905466316420814,40.07664869423795,46.353999999992084
312802.6987,33.4166310308912,38.57387540914278,46.509520844172364,45.04482244963396,46.35499999998137
312802.6997,42.9542765288855,43.90274221885989,53.50899991677194,49.47447846165723,46.35599999997066
312802.7007,51.831719096878906,48.56518597573562,59.7370426073043,53.260396956217264,46.35699999995995
312802.7017,59.833218766091406,52.45224132327696,65.03351533845098,56.30198168576539,46.35799999994924
312802.7027,66.75364334038379,55.46826879705143,69.25012475858868,58.506416279964185,46.35899999999674
312802.7037,72.40528420267066,57.53431381538269,72.25637268937622,59.792568527768424,46.35999999998603
312802.7047,76.6251170944462,58.5915456329166,73.94595688866694,60.09535645220691,46.36099999997532
312802.7057,79.28202536560111,58.6044814848579,74.2431121335004,59.37020042135947,46.36199999996461
312802.7067,80.28344691983872,57.563672606491004,73.10832552863975,57.59713412467797,46.3629999999539
312802.7077,79.58090114334424,55.48753608008255,70.54285599130618,54.78414022299682,46.3640000000014
312802.7087,77.17390027688069,52.42305996073089,66.59154283517705,50.96931544948399,46.36499999999069
312802.7097,73.11184740845248,48.445185389915025,61.343498563769195,46.22155174191752,46.36599999997998
312802.7107,67.4936619886016,43.654771408503244,54.930437009864065,40.63953704637228,46.366999999969266
312802.7117,60.465040860673135,38.17516610177111,47.52257568790354,34.34902052437325,46.367999999958556
312802.7127,52.21344276687416,32.147529907342474,39.322253140392704,27.498438284296256,46.368999999947846
312802.7137,42.96106033233834,25.72517112029738,30.555598963644986,20.25314257221295,46.36999999999534
312802.7147,32.9561991590907,19.067248169001942,21.462767099632966,12.788605068104147,46.37099999998463
312802.7157,22.463604310371792,12.332258217323433,12.287374942936616,5.283060787961072,46.37199999997392
312802.7167,11.754348880791417,5.671759954383039,3.2658686162379027,-2.089886626871873,46.37299999996321
312802.7177,1.0959206745084291,-0.7752335525829335,-5.382449777164222,-9.168170463692128,46.3739999999525
312802.7187,-9.256890544488467,-6.88680805695896,-13.46404634111553,-15.807191011293906,46.375
312802.7197,-19.069787769791972,-12.561351284798214,-20.81785453319059,-21.88437012625049,46.37599999998929
312802.7207,-28.135054078237747,-17.719225757572858,-27.319634135337367,-27.302053439257882,46.37699999997858
312802.7217,-36.275701947373456,-22.302864234945037,-32.88377292881741,-31.98863176036625,46.37799999996787
312802.7227,-43.347627983262015,-26.275378925142498,-37.46253047872157,-35.89791272714249,46.37899999995716
312802.7237,-49.23988906051091,-29.617905690638292,-41.04293845607232,-39.00692897664663,46.37999999994645
312802.7247,-53.8733705181524,-32.32601399983613,-43.641765500406784,-41.31250514160116,46.380999999993946
312802.7257,-57.198239143801764,-34.40559177465074,-45.29910879838915,-42.82700963773413,46.381999999983236
312802.7267,-59.19065191885572,-35.868653911329474,-46.07127509577979,-43.57377852358764,46.382999999972526
312802.7277,-59.84921901140804,-36.72952013720275,-46.02365163931982,-43.582711803318745,46.383999999961816
312802.7287,-59.19169448687939,-37.00176211199538,-45.224239400520524,-42.88650623948978,46.384999999951106
312802.7297,-57.25229407720009,-36.69623546149757,-43.73842996804525,-41.51790669577239,46.3859999999986
312802.7307,-54.079924380117035,-35.82039759016138,-41.625462768127534,-39.50823834435553,46.38699999998789
312802.7317,-49.737464335485534,-34.37897743243949,-38.93681492165231,-36.88733651922237,46.38799999997718
312802.7327,-44.302082814072286,-32.3759214546165,-35.71656993343873,-33.68483386550479,46.38899999996647
312802.7337,-37.86642201832779,-29.817404608404328,-32.00360341114135,-29.932611159311072,46.38999999995576
312802.7347,-30.54034118170273,-26.71557842129021,-27.835234125808412,-25.668083840787233,46.39099999994505
312802.7357,-22.452812931248403,-23.092642099448145,-23.251835167989814,-20.93789421429919,46.39199999999255
312802.7367,-13.753506561716303,-18.984774752774502,-18.301797423053433,-15.80151966022944,46.39299999998184
312802.7377,-4.6135849683628996,-14.445462417472726,-13.046195882360207,-10.334296272001822,46.39399999997113
312802.7387,4.774713224903557,-9.54779325582106,-7.5625323928878,-4.629396650696553,46.39499999996042
312802.7397,14.200041145303878,-4.385374911457499,-1.9470141073985021,1.2016130520261987,46.39599999994971
312802.7407,23.43566122746262,0.9283575001302423,3.6850330545490575,7.029886052181945,46.396999999997206
312802.7417,32.24495051924643,6.262535984515465,9.200835553040376,12.712173460012776,46.397999999986496
312802.7427,40.38855526160654,11.472900263002582,14.453942783020578,18.0953968420852,46.398999999975786
312802.7437,47.63288338004166,16.407279888219406,19.28990283501701,23.022677994336796,46.399999999965075
312802.7447,53.759470495000606,20.912180702045468,23.5534560602529,27.34044142174067,46.400999999954365
312802.7457,58.57463692270869,24.840032971179987,27.096700191563595,30.90608904365028,46.40200000000186
312802.7467,61.91878196537255,28.056589896597416,29.78757160962598,33.595673695008266,46.40299999999115
312802.7477,63.67464551822626,30.447939777395714,31.517938528883704,35.310975497187556,46.40399999998044
312802.7487,63.773908654676546,31.926615431051584,32.21061836259539,35.98541590518848,46.40499999996973
312802.7497,62.201602100967264,32.43634892220402,31.824712059206227,35.5883260070742,46.40599999995902
312802.7507,58.99793692614963,31.95512261711859,30.35878541931386,34.127211442057025,46.40699999994831
312802.7517,54.25735335811416,30.49629993862248,27.85160851826563,31.647814898911676,46.40799999999581
312802.7527,48.124785922967966,28.107769152710723,24.38037238918012,28.23195418021216,46.4089999999851
312802.7537,40.78934856209394,24.869187708633074,20.056517520370143,23.993293101244745,46.40999999997439
312802.7547,32.475834039703095,20.887559399199276,15.019511275947085,19.071367626815203,46.41099999996368
312802.7557,23.434581080082122,16.291499195017973,9.42908212593166,13.6243255661972,46.41199999995297
312802.7567,13.930376329238342,11.22463047287997,3.4565417354578813,7.820932562431407,46.413000000000466
312802.7577,4.23111657189,5.838609059386612,-2.724109725367929,1.8324416942771014,46.413999999989755
312802.7587,-5.403045193074745,0.2862743834970913,-8.944599811880055,-4.175084846155799,46.414999999979045
312802.7597,-14.729407599840602,-5.284609499222896,-15.04969031318221,-10.047474382416178,46.415999999968335
312802.7607,-23.530735402585552,-10.736636748699329,-20.902863941241545,-15.64774156987956,46.416999999957625
312802.7617,-31.62119095889337,-15.94678766912069,-26.390047362205618,-20.85970582854292,46.417999999946915
312802.7627,-38.84997872665761,-20.809050651304254,-31.421221732163353,-25.5898115843345,46.41899999999441
312802.7637,-45.102695319952105,-25.2356225068031,-35.9299766159891,-29.767202751576512,46.4199999999837
312802.7647,-50.30056704991758,-29.156801772789212,-39.87125773793393,-33.34226049390451,46.42099999997299
312802.7657,-54.39792191990566,-32.51980225982889,-43.21772466149504,-36.28394533053492,46.42199999996228
312802.7667,-57.37836900392887,-35.28679895588767,-45.955255356250376,-38.57637878621492,46.42299999995157
312802.7677,-59.25023409787062,-37.43256794127672,-48.07819925911062,-40.21514749458656,46.42399999999907
312802.7687,-60.04182042796754,-38.942092349557825,-49.58498300554404,-41.203810047507766,46.42499999998836
312802.7697,-59.797026366744454,-39.80847768311866,-50.47461373103199,-41.55103499894498,46.42599999997765
312802.7707,-58.571763308345,-40.03145586394253,-50.74451002849115,-41.26870317851394,46.42699999996694
312802.7717,-56.43148578890885,-39.616665574838,-50.38993202157153,-40.37117896525184,46.42799999995623
312802.7727,-53.44998625598066,-38.575786645695715,-49.405095554042894,-38.875806728486324,46.42899999994552
312802.7737,-49.709434857706654,-36.927489973289234,-47.785859844861974,-36.80453542942542,46.429999999993015
312802.7747,-45.30147753455805,-34.69905366974728,-45.53369259554677,-34.186431919851096,46.430999999982305
312802.7757,-40.32906023232986,-31.928402010049652,-42.66045988563319,-31.06072613928137,46.431999999971595
312802.7767,-34.90853771276907,-28.666255683946254,-39.19347586025129,-27.479951028073053,46.432999999960884
312802.7777,-29.17156320166114,-24.978046581360367,-35.18019052031769,-23.512704721423365,46.433999999950174
312802.7787,-23.266246467627816,-20.94525133677247,-30.691898855364798,-19.24557625241065,46.43499999999767
312802.7797,-17.35711428742593,-16.665835100174316,-25.825921226683118,-14.783837634974333,46.43599999998696
312802.7807,-11.623504874735962,-12.253567011219879,-20.705827572856283,-10.2506092807242,46.43699999997625
312802.7817,-6.256168164372937,-7.836065069169674,-15.479445625777936,-5.784342624090436,46.43799999996554
312802.7827,-1.4520142523793258,-3.5515415148921434,-10.314590581691544,-1.534620832398659,46.43899999995483
312802.7837,2.5928627058122404,0.45566011125758343,-5.392662419831873,2.343559152335633,46.44000000000233
312802.7847,5.6915752490297296,4.040529577995028,-0.9004580046648969,5.696707549499799,46.44099999999162
312802.7857,7.675774933660168,7.063549373885371,2.9792803987043497,8.380521892741726,46.44199999998091
312802.7867,8.405324771475732,9.397166437236173,6.077926777951583,10.267791186875636,46.4429999999702
312802.7877,7.777629239554893,10.932149708554855,8.250913045305483,11.25594292454285,46.44399999995949
312802.7887,5.735913894061007,11.583398706258517,9.38680620223015,11.273656132054933,46.44499999994878
312802.7897,2.275780373450819,11.294796572239813,9.414826040441044,10.286018285465211,46.445999999996275
312802.7907,-2.5505461615707605,10.042763348650812,8.310217680463843,8.297804461959249,46.446999999985565
312802.7917,-8.632718065387081,7.838256085849591,6.097052520698348,5.354594767162927,46.447999999974854
312802.7927,-15.803774031806196,4.727073662192484,2.8482262842040003,1.541608816884518,46.448999999964144
312802.7937,-23.844708560218383,0.7884460560119724,-1.3173635251572164,-3.0196905088281008,46.449999999953434
312802.7947,-32.491940542778714,-3.8679904807968395,-6.240265182171683,-8.177002989461633,46.45100000000093
312802.7957,-41.44731480878871,-9.106619939101925,-11.728155489629454,-13.754236234008467,46.45199999999022
312802.7967,-50.39009236619898,-14.771371621690058,-17.56520935503192,-19.559702734129193,46.45299999997951
312802.7977,-58.99024801296714,-20.691977601852425,-23.522498217851567,-25.394906902763317,46.4539999999688
312802.7987,-66.92230881994203,-26.69056584526034,-29.3687071725856,-31.06333402571333,46.45499999995809
312802.7997,-73.87894001341137,-32.58819578067023,-34.88046896355535,-36.378676667955766,46.45599999994738
312802.8007,-79.5835172203965,-38.210979023930236,-39.8516792830006,-41.17200425993345,46.45699999999488
312802.8017,-83.80101195497343,-43.39549154369385,-44.10127408163462,-45.29749081311068,46.45799999998417
312802.8027,-86.34665198125626,-47.99326750405129,-47.479103530966064,-48.636452903336675,46.45899999997346
312802.8037,-87.09198730126066,-51.87426024109713,-49.86971330097267,-51.099601702744174,46.45999999996275
312802.8047,-85.96818085200867,-54.92925240418463,-51.19402475737481,-52.627564330357664,46.46099999995204
312802.8057,-82.96653420685627,-57.07128548532401,-51.40907444239694,-53.189866870165936,46.461999999999534
312802.8067,-78.1364366073777,-58.23625022100896,-50.50611442293781,-52.782681554788894,46.462999999988824
312802.8077,-71.58107620275227,-58.382827167431444,-48.507476605287465,-51.42571425973986,46.463999999978114
312802.8087,-63.45136416338804,-57.4919872848637,-45.4626580671721,-49.15863987053692,46.464999999967404
312802.8097,-53.93858807485896,-55.56625481209078,-41.444087965070715,-46.037480903802035,46.46599999995669
312802.8107,-43.26632799212782,-52.62890133265263,-36.542991908563344,-42.131272050802316,46.46699999994598
312802.8117,-31.682138749475886,-48.723185800941096,-30.865683945932368,-37.51926720773227,46.46799999999348
312802.8127,-19.4494320030568,-43.91168772789021,-24.530500590740736,-32.28883650984131,46.46899999998277
312802.8137,-6.839891140683012,-38.2757085092503,-17.665459588924172,-26.53408155988418,46.46999999997206
312802.8147,5.873365671178232,-31.91464832808793,-10.40659371125177,-20.355080999174074,46.47099999996135
312802.8157,18.421780480907657,-24.94521201832786,-2.896791881348738,-13.857578868924834,46.47199999995064
312802.8167,30.546526095157443,-17.500264144847097,4.715110227572532,-7.152856043597373,46.47299999999814
312802.8177,42.00295888689471,-9.727146488243585,12.275300161128694,-0.35748854680056313,46.47399999998743
312802.8187,52.5645186017985,-1.7852924173450377,19.626337397516355,6.4072999466707765,46.47499999997672
312802.8197,62.02626155683592,6.156978566219459,26.609161930234794,13.016940739998837,46.47599999996601
312802.8207,70.20819814698264,13.926530504002452,33.06596536116212,19.345648359674524,46.4769999999553
312802.8217,76.95855659611772,21.35030018314636,38.844015593759956,25.269438959849,46.477999999944586
312802.8227,82.15701999277836,28.260864203000672,43.800393675901695,30.669981782176553,46.478999999992084
312802.8237,85.7178934840509,34.50244752276546,47.80746237415055,35.43910251822007,46.47999999998137
312802.8247,87.59306554063996,39.937054990681666,50.758756202718764,39.4836448027625,46.48099999997066
312802.8257,87.77454435894849,44.450347378237446,52.574876780844804,42.73030782384903,46.48199999995995
312802.8267,86.29628962218044,47.95685333564741,53.20890826439445,45.13002489267487,46.48299999994924
312802.8277,83.23503055621121,50.404113560583944,52.65084438413274,46.661437160805086,46.48399999999674
312802.8287,78.709769641534,51.77539525742644,50.930546018553066,47.333051766926296,46.48499999998603
312802.8297,72.87971953174628,52.09069212645863,48.11882589693734,47.183753291251634,46.48599999997532
312802.8307,65.94050635442898,51.40583271643882,44.326379565883194,46.28145577559659,46.48699999996461
312802.8317,58.11858909725672,49.80965000530653,39.700439152924865,44.719830016317836,46.4879999999539
312802.8327,49.66398206944961,47.41930714759807,34.419205025799634,42.6132044968903,46.4890000000014
312802.8337,40.84151269810749,44.37401652991771,28.684294062364657,40.08990335291568,46.48999999999069
312802.8347,31.920986001026183,40.8275192162241,22.7116149054624,37.284435686859204,46.49099999997998
312802.8357,23.16674581254495,36.9397977846667,16.721223992750627,34.32907272185069,46.491999999969266
312802.8367,14.827208498801497,32.86856741640039,10.926817323901624,31.34543025978257,46.492999999958556
312802.8377,7.124987491690796,28.761120529393533,5.525561506738769,28.436704663945346,46.493999999947846
312802.8387,0.24822029957331518,24.74708531084569,0.688957942026104,25.681186433417547,46.49499999999534
312802.8397,-5.656347980671192,20.932598115763895,-3.4446343208729435,23.127596561004783,46.49599999998463
312802.8407,-10.488076143901502,17.39628777381415,-6.775313491268319,20.792662421406263,46.49699999997392
312802.8417,-14.194630579441494,14.187334020180481,-9.24444974614822,18.66118167750047,46.49799999996321
312802.8427,-16.771552762291265,11.325703310165355,-10.834856906164642,16.688628184060285,46.4989999999525
312802.8437,-18.259250493073527,8.804496198882568,-11.5683859266357,14.806149322664837,46.5
312802.8447,-18.737659163608654,6.5941753918603006,-11.501207026910352,12.927607062071091,46.50099999998929
312802.8457,-18.318987331469298,4.648296503608642,-10.717225669698113,10.958142427555726,46.50199999997858
312802.8467,-17.13909578158439,2.910247132134827,-9.320216568068695,8.803610241364405,46.50299999996787
312802.8477,-15.348149077437913,1.3204241825418974,-7.4253471340817105,6.380149969435147,46.50399999995716
312802.8487,-13.101215404239163,-0.17674889176840594,-5.150789676049585,3.6231369083189175,46.50499999994645
312802.8497,-10.549471127278574,-1.6265415625325303,-2.6100880218941676,0.4947982900664024,46.505999999993946
312802.8507,-7.8325929242013945,-3.0588792146653594,0.0941474133075608,-3.01012170630169,46.506999999983236
312802.8517,-5.072799598790637,-4.484944583339665,2.8747829153609565,-6.861113644034364,46.507999999972526
312802.8527,-2.370849118425804,-5.895668531139321,5.662686448077649,-10.99134801764795,46.508999999961816
312802.8537,0.19588128465292332,-7.262197571915337,8.407173142562284,-15.29987952723014,46.509999999951106
312802.8547,2.5732863722143278,-8.538257080732208,11.074506078216459,-19.656460378681896,46.5109999999986
312802.8557,4.728619910056651,-9.664170519296235,13.644765114528056,-23.908610789914732,46.51199999998789
312802.8567,6.647144001269404,-10.572160086927946,16.107539923079877,-27.890423988394904,46.51299999997718
312802.8577,8.327809115908888,-11.19245450722226,18.456999009343704,-31.432457049711957,46.51399999996647
312802.8587,9.77848614659829,-11.459673330220879,20.686925978557184,-34.37198787577662,46.51499999995576
312802.8597,11.01127240711413,-11.318948202230489,22.78629471487647,-36.56290732940086,46.51599999994505
312802.8607,12.038343428894713,-10.731279617834796,24.735879442372013,-37.88456348935351,46.51699999999255
312802.8617,12.86872842387908,-9.677707974849916,26.506272237107662,-38.248976342979226,46.51799999998184
312802.8627,13.506260354262489,-8.161991757366645,28.057522485091166,-37.60598553002016,46.51899999997113
312802.8637,13.948805743693692,-6.211621926215204,29.340436328329734,-35.94606696833372,46.51999999996042
312802.8647,14.188730340812938,-3.8771469116966193,30.299397227988575,-33.30074014376988,46.52099999994971
312802.8657,14.21442013097176,-1.2299233609458313,30.876409133484117,-29.740669761377,46.521999999997206
312802.8667,14.012566964036527,1.641468734265072,31.015937157021447,-25.371727578798872,46.522999999986496
312802.8677,13.570855129453317,4.6358123397901405,30.670039375205185,-20.329409306742434,46.523999999975786
312802.8687,12.880656301668722,7.644446821719059,29.803254964286342,-14.77208787743223,46.524999999965075
312802.8697,11.939357326225247,10.556653442095465,28.39674046231026,-8.873623045467092,46.525999999954365
312802.8707,10.75200530393535,13.26483619466443,26.451224119389224,-2.8158379142444363,46.52700000000186
312802.8717,9.33204978881806,15.669154858046891,23.988469482417344,3.218680036075781,46.52799999999115
312802.8727,7.701081382302491,17.681348691122885,21.05109078032529,9.053084060534045,46.52899999998044
312802.8737,5.887595855262035,19.2275889663952,17.70072865941927,14.521821960144674,46.52999999996973
312802.8747,3.9249384378930543,20.250305373299764,14.014758398789942,19.4751034918604,46.53099999995902
312802.8757,1.8486899170241247,20.70903380174,10.081847346606017,23.78226541278235,46.53199999994831
312802.8767,-0.30616746266353834,20.580420608223246,5.996789428102213,27.33412155366698,46.53299999999581
312802.8777,-2.5079294178724285,19.857582588114575,1.8551111116187997,30.04446267225462,46.5339999999851
312802.8787,-4.730326699306466,18.54905672567596,-2.252041357821682,31.850915303118313,46.53499999997439
312802.8797,-6.953843333554992,16.677576898606155,-6.242260705381038,32.71537749937197,46.53599999996368
312802.8807,-9.16596985085355,14.278887143069078,-10.045096207429104,32.62422355611046,46.53699999995297
312802.8817,-11.360285595752895,11.40074728503902,-13.603868267565963,31.588414792643444,46.538000000000466
312802.8827,-13.534401958882372,8.102214033124218,-16.875970263006604,29.64357785705798,46.538999999989755
312802.8837,-15.686938922788645,4.45319839499694,-19.831711185807354,26.850026750104345,46.539999999979045
312802.8847,-17.813835392190317,0.5342189618896813,-22.451910086472953,23.29262190350764,46.540999999968335
312802.8857,-19.90439501569753,-3.5637994430852102,-24.724588604217477,19.08029101013206,46.541999999957625
312802.8867,-21.937531672443107,-7.739881900875696,-26.641206623849172,14.344992142725637,46.542999999946915
312802.8877,-23.878694285671457,-11.883736802528766,-28.192937624411933,9.23988752673973,46.54399999999441
312802.8887,-25.67791558756453,-15.87708016827041,-29.36747861814033,3.936520029140448,46.5449999999837
312802.8897,-27.269345485509984,-19.595724128845948,-30.146834188519723,-1.3791562809544315,46.54599999997299
312802.8907,-28.572503458558433,-22.912534112547043,-30.506410057584816,-6.511949740548234,46.54699999996228
312802.8917,-29.495327163363687,-25.701268823528512,-30.415609006513456,-11.263753910454891,46.54799999995157
312802.8927,-29.93892085338235,-27.841214114682224,-29.83995514949345,-15.440839962522318,46.54899999999907
312802.8937,-29.803734074376607,-29.22241729575085,-28.744598552373883,-18.861815993621086,46.54999999998836
312802.8947,-28.996745559802918,-29.75123379088507,-27.09888903160944,-21.365842917822167,46.55099999997765
312802.8957,-27.439105170033766,-29.35582424168953,-24.881572866593146,-22.820616814243213,46.55199999996694
312802.8967,-25.073611048747743,-27.9911962085293,-22.08607370705563,-23.12958605399373,46.55299999995623
312802.8977,-21.87137861685389,-25.64337682604759,-18.72527963188164,-22.23787499894694,46.55399999994552
312802.8987,-17.837096126852604,-22.332333877435865,-14.835277352123878,-20.1364370775263,46.554999999993015
312802.8997,-13.012356190745889,-18.113331641468022,-10.477551343564445,-16.86405645616166,46.555999999982305
312802.9007,-7.476696409154717,-13.076509548842532,-5.7392937755640645,-12.506952621254186,46.556999999971595
312802.9017,-1.3461625639489145,-7.344597727891282,-0.731638716432304,-7.195905221388828,46.557999999960884
312802.9027,5.23059130919046,-1.0688228325903846,4.414174687360796,-1.1009936932549311,46.558999999950174
312802.9037,12.07844854738231,5.576802546765123,9.552509082313325,5.5757780487322,46.55999999999767
312802.9047,19.003817086344274,12.402486087038966,14.530522824670745,12.609543049134265,46.56099999998696
312802.9057,25.80390119560848,19.210533662962767,19.19631829490797,19.762763270002925,46.56199999997625
312802.9067,32.27659549517936,25.803606263650234,23.407409823151006,26.79591317130484,46.56299999996554
312802.9077,38.23029141068433,31.99283513348695,27.03883235738483,33.477984050193754,46.56399999995483
312802.9087,43.49290036606668,37.605289914646605,29.990230875708786,39.59616074486903,46.56500000000233
312802.9097,47.91947229770471,42.490352227159114,32.191351074042124,44.964097240711965,46.56599999999162
312802.9107,51.397915208575945,46.52464144104142,33.60548668122993,49.42833824357891,46.56699999998091
312802.9117,53.85248922577365,49.61526144177276,34.23061513722046,52.872588800901035,46.5679999999702
312802.9127,55.244941012694525,51.70127546201684,34.09815450393678,55.2197092960042,46.56899999995949
312802.9137,55.57334330785355,52.75345762817429,33.26948115081696,56.43149260148025,46.56999999994878
312802.9147,54.86889134010957,52.77250169590604,31.830540280478353,56.50644765153978,46.570999999996275
312802.9157,53.191065855376486,51.785977613465384,29.88504152725165,55.47595435617841,46.571999999985565
312802.9167,50.62168747780515,49.84440542584128,27.546844727868613,53.39925658851508,46.572999999974854
312802.9177,47.25844944991542,47.01685715594305,24.932196278925016,50.3578147751498,46.573999999964144
312802.9187,43.208520965632346,43.38649794223173,22.152469649941807,46.44954384824473,46.574999999953434
312802.9197,38.58276236461356,39.04643907414498,19.307996028364762,41.7834172723435,46.57600000000093
312802.9207,33.49099277067867,34.096202601579364,16.483449973652682,36.474829489269496,46.57699999999022
312802.9217,28.038611366355426,28.638998096334706,13.74509266801434,30.641987410669692,46.57799999997951
312802.9227,22.32470999061825,22.779897535911072,11.139988042156553,24.40345954886665,46.5789999999688
312802.9237,16.44164384787993,16.624876185632246,8.697113171610239,17.876863805259475,46.57999999995809
312802.9247,10.475866049146214,10.280578026773222,6.430102812252284,11.178536967445273,46.58099999994738
312802.9257,4.509696531183701,3.854575000101265,4.341216346367037,4.423914611677981,46.58199999999488
312802.9267,-1.3764000524885804,-2.5441706998487605,2.426008248761506,-2.2717291217309077,46.58299999998417
312802.9277,-7.101500305562602,-8.80495665938522,0.6781304757173153,-8.792568644412722,46.58399999997346
312802.9287,-12.58233931795413,-14.815404666813649,-0.9062985173560605,-15.021917489229981,46.58499999996275
312802.9297,-17.732269222656384,-20.462191730138834,-2.325259455889156,-20.842643610534612,46.58599999995204
312802.9307,-22.461366215928322,-25.632618736245874,-3.5687194031277327,-26.13853634136243,46.586999999999534
312802.9317,-26.677855465773668,-30.21708379154925,-4.618074133372413,-30.796728582998345,46.587999999988824
312802.9327,-30.290865182559795,-34.112411316845716,-5.447203769578297,-34.711138549782966,46.588999999978114
312802.9337,-33.2143588974654,-37.22587220087645,-6.0250193742239375,-37.78675502432972,46.589999999967404
312802.9347,-35.37194543737516,-39.4796269522064,-6.319211464323134,-39.944463565511846,46.59099999995669
312802.9357,-36.70214466517948,-40.81524384300624,-6.3007751560611895,-41.12601209034151,46.59199999994598
312802.9367,-37.16360643768623,-41.19789624282265,-5.94879449788492,-41.29865365496639,46.59299999999348
312802.9377,-36.73974905848503,-40.61983329111762,-5.254929731642814,-40.45898923276566,46.59399999998277
312802.9387,-35.44230556042788,-39.10274768001139,-4.227069622801709,-38.63556647662803,46.59499999997206
312802.9397,-33.31334003219775,-36.69873169310811,-2.891684865503984,-35.889869745877064,46.59599999996135
312802.9407,-30.425415438568354,-33.48961219415776,-1.2945406944709619,-32.31545539740591,46.59699999995064
312802.9417,-26.879748067748825,-29.584578271840574,0.5004147034365102,-28.0351338681877,46.59799999999814
312802.9427,-22.802357562439905,-25.11615070378917,2.4139900788594257,-23.196262861375068,46.59899999998743
312802.9437,-18.338399106791098,-20.234678010401144,4.356340809894455,-17.964378798249015,46.59999999997672
312802.9447,-13.645028934051899,-15.101667225670594,6.232861903197841,-12.515541242594953,46.60099999996601
312802.9457,-8.883290233254018,-9.882357293715955,7.950900966125623,-7.02788318884194,46.6019999999553
312802.9467,-4.209600795468857,-4.738010045388342,9.426715619371082,-1.6729375721519328,46.602999999944586
312802.9477,0.2325326717208836,0.1815780996344615,10.592061487320816,3.392660436047591,46.603999999992084
312802.9487,4.319959917991873,4.744853725203196,11.39981640289084,8.034517827526141,46.60499999998137
312802.9497,7.955943710696049,8.844136517647794,11.82812216403256,12.146368772113144,46.60599999997066
312802.9507,11.07439197583747,12.39975330882486,11.882650019350248,15.654108509243922,46.60699999995995
312802.9517,13.641980001988484,15.362442625773818,11.596758256632846,18.51773113981577,46.60799999994924
312802.9527,15.65805051261968,17.713927882340652,11.029494479908184,20.731092105258934,46.60899999999674
312802.9537,17.1523599908955,19.465693628290968,10.261583995526847,22.31958586198313,46.60999999998603
312802.9547,18.18091102817474,20.65612836145981,9.389721437140661,23.335987732894584,46.61099999997532
312802.9557,18.8202573232821,21.346308375356845,8.519628957554035,23.854842230503138,46.61199999996461
312802.9567,19.16077749324709,21.61478099198659,7.758447554150979,23.96587698647097,46.6129999999539
312802.9577,19.29947699725549,21.55175610574828,7.207079138644524,23.76697411417671,46.6140000000014
312802.9587,19.33288966509515,21.253129284094477,6.953091639723491,23.357235995256083,46.61499999999069
312802.9597,19.350611853739448,20.81473821077898,7.064738976450738,22.83064126635295,46.61599999997998
312802.9607,19.42991814966423,20.32720076866031,7.586538620431405,22.270704647599548,46.616999999969266
312802.9617,19.6317869602414,19.8716041040954,8.536702665480226,21.746440341373585,46.617999999958556
312802.9627,19.998519668127894,19.516218260427262,9.906548248566475,21.309794896557506,46.618999999947846
312802.9637,20.55298260945556,19.314305304155724,11.661836210946516,20.994575053345663,46.61999999999534
312802.9647,21.29935192835109,19.30299544263019,13.745819855251638,20.816762731584692,46.62099999998463
312802.9657,22.225111490263348,19.503114889113878,16.083644151390605,20.775995475525356,46.62199999997392
312802.9667,23.30395550467666,19.919784026225276,18.587632721309568,20.857906520491483,46.62299999996321
312802.9677,24.499189071355058,20.54356430113501,21.162944480492612,21.036971194171652,46.6239999999525
312802.9687,25.76720623626222,21.351920998411497,23.713078334799917,21.279498773885415,46.625
312802.9697,27.060656570924667,22.310786285013886,26.1447521546966,21.546440292074834,46.62599999998929
312802.9707,28.33098355217827,23.376049435533016,28.371775727122575,21.795748304077627,46.62699999997858
312802.9717,29.530122850520332,24.494863023107104,30.317666455119507,21.98411611249918,46.62799999996787
312802.9727,30.61127452368224,25.606727173881577,31.91690773715804,22.06803066152037,46.62899999995716
312802.9737,31.52879641810931,26.644389578311024,33.11490757971279,22.004183117317652,46.62999999994645
312802.9747,32.23739236258162,27.534667386346506,33.86686282435804,21.74938167166994,46.630999999993946
312802.9757,32.69087416615268,28.199349620535266,34.13585710938487,21.26019100884049,46.631999999983236
312802.9767,32.84084916683402,28.556368157795422,33.89060550219519,20.492572995524096,46.632999999972526
312802.9777,32.635716472874456,28.52142687787424,33.10329654459322,19.401817429242286,46.633999999961816
312802.9787,32.020340562445135,28.01025042300914,31.74796884468247,17.94302779467757,46.634999999951106
312802.9797,30.936710673536503,26.941557558417863,29.799795101791208,16.072366636058536,46.6359999999986
312802.9807,29.325793271185436,25.24078396051281,27.235537513463854,13.749173975050988,46.63699999998789
312802.9817,27.130652026645173,22.844482814156603,24.03529549107383,10.938959219173269,46.63799999997718
312802.9827,24.30075792348732,19.70522846477288,20.18550377732201,7.6171438141579895,46.63899999996647
312802.9837,20.797256411991093,15.796749400819992,15.682972991999392,3.773311543084089,46.63999999995576
312802.9847,16.598814969062282,11.118933092637564,10.53961259745369,-0.5843809207185087,46.64099999994505
312802.9857,11.707558341101945,5.7022868285429045,4.787354521928298,-5.4250567872427835,46.64199999999255
312802.9867,6.154523334522298,-0.3885861512501882,-1.5172821828281187,-10.69169725078966,46.64299999998184
312802.9877,0.0040399476119543165,-7.052921883033471,-8.289569655018505,-16.298901332712113,46.64399999997113
312802.9887,-6.643523941624341,-14.153514146927051,-15.414442847575199,-22.13223216622673,46.64499999996042
312802.9897,-13.651131173378868,-21.518494429973465,-22.746324067454566,-28.049458894729987,46.64599999994971
312802.9907,-20.84689776768872,-28.945324816035004,-30.11121872827083,-33.88387064442247,46.646999999997206
312802.9917,-28.028533300528668,-36.20700415236915,-37.311220235929625,-39.44967956392216,46.647999999986496
312802.9927,-34.9703605262588,-43.06032406014365,-44.13135793374983,-44.549357015080865,46.648999999975786
312802.9937,-41.43266353500235,-49.25584805897787,-50.34851245497389,-48.982575675496626,46.649999999965075
312802.9947,-47.172910537111555,-54.54913794665863,-55.74192661286895,-52.55627594512713,46.650999999954365
312802.9957,-51.958220868661435,-58.712629590142136,-60.10467521929005,-55.09525194059968,46.65200000000186
312802.9967,-55.57831193266697,-61.54747655047727,-63.2553395690187,-56.45257241577242,46.65299999999115
312802.9977,-57.858083072439086,-62.89464270918759,-65.049073396905,-56.51912354583408,46.65399999998044
312802.9987,-58.66897782711052,-62.64453886204924,-65.3872534733859,-55.231587698267205,46.65499999996973
312802.9997,-57.938316375981785,-60.74456356537231,-64.22498050466422,-52.57825437324266,46.65599999995902
312803.0007,-55.65590341429469,-57.20402162179237,-61.57582967069371,-48.60219096681029,46.65699999994831
312803.0017,-51.877385064474744,-52.096046805602285,-57.51343458007573,-43.401472124262085,46.65799999999581
312803.0027,-46.72403893195272,-45.556337763485196,-52.16970876334222,-37.126363963779994,46.6589999999851
312803.0037,-40.37891776616191,-37.778714086075965,-45.729747013289646,-29.973567784407713,46.65999999997439
312803.0047,-33.07951099027829,-29.007698632523198,-38.42368530620614,-22.177830467347043,46.66099999996368
312803.0057,-25.107320715502915,-19.52851753159232,-30.5160132887501,-14.001409527771166,46.66199999995297
312803.0067,-16.774951965086725,-9.655067253162617,-22.293009898089416,-5.722025411098735,46.663000000000466
312803.0077,-8.411475516817392,0.28348261670993724,-14.049096561941337,2.3799690452335587,46.663999999989755
312803.0087,-0.3469247042753814,9.956709930658455,-6.07296423775953,10.03442922956034,46.664999999979045
312803.0097,7.103171883478925,19.046821820141464,1.3656736123546487,16.993510936688896,46.665999999968335
312803.0107,13.652342976955863,27.261666169605196,8.027918331324395,23.04232470037889,46.666999999957625
312803.0117,19.05601666825748,34.34621907575417,13.715455053227782,28.00758009708099,46.667999999946915
312803.0127,23.12199052041179,40.09201272202983,18.277764758384418,31.763802567124422,46.66899999999441
312803.0137,25.718041795953702,44.344115779495326,21.61649004650789,34.236884000068954,46.6699999999837
312803.0147,26.77638737857768,47.005443288246504,23.68687615837366,35.404915834060574,46.67099999997299
312803.0157,26.294908352643592,48.03834170655606,24.496413248033072,35.29643428348844,46.67199999996228
312803.0167,24.335251498967406,47.46355452009525,24.100987193216266,33.98636720871861,46.67299999995157
312803.0177,21.018094818512804,45.356813040828584,22.598990323798972,31.590099127551202,46.67399999999907
312803.0187,16.516005074729993,41.843406792288874,20.123940326715946,28.2561563931793,46.67499999998836
312803.0197,11.044414404769231,37.09116231539017,16.83620003039687,24.158054171997673,46.67599999997765
312803.0207,4.85129662682876,31.30229600461883,12.91438269615932,19.485840472677555,46.67699999996694
312803.0217,-1.7938674418636391,24.70460692237932,8.546971719031912,14.437824276137043,46.67799999995623
312803.0227,-8.611278042288967,17.54244389237511,3.9245894298152493,9.212892657385503,46.67899999994552
312803.0237,-15.321664685538472,10.067824577972967,-0.7667706328632207,4.003716318978222,46.679999999993015
312803.0247,-21.65638850101892,2.5320114405374956,-5.351365848845223,-1.0089735765338925,46.680999999982305
312803.0257,-27.366491807579383,-4.822230156958117,-9.66812857378516,-5.660969433544458,46.681999999971595
312803.0267,-32.2304882778786,-11.767543874351572,-13.573953498256552,-9.808066289409705,46.682999999960884
312803.0277,-36.06077909066579,-18.097984101807867,-16.94599701350446,-13.328549728389433,46.683999999950174
312803.0287,-38.70865696804494,-23.634079363596584,-19.683191039947545,-16.124857384251097,46.68499999999767
312803.0297,-40.06791647680271,-28.226963072994817,-21.70719106110793,-18.12459829875742,46.68599999998696
312803.0307,-40.077123941078455,-31.761592352590753,-22.96296036628015,-19.281103542018034,46.68699999997625
312803.0317,-38.72061516823583,-34.15907430043098,-23.419145148992982,-19.573644718008474,46.68799999996554
312803.0327,-36.028287797715215,-35.37810573965953,-23.068326747898123,-19.00740155084776,46.68899999995483
312803.0337,-32.07424310575752,-35.4155129390568,-21.927158686289175,-17.61319484496164,46.69000000000233
312803.0347,-26.97431616915749,-34.30585844776282,-20.036318854429016,-15.446936715064028,46.69099999999162
312803.0357,-20.8825201322807,-32.12006924136582,-17.460142318048767,-12.588695748926227,46.69199999998091
312803.0367,-13.986425909759392,-28.96303902923556,-14.285757287405026,-9.14123897510801,46.6929999999702
312803.0377,-6.501507499537061,-24.970171405356478,-10.621532525465618,-5.227901168601796,46.69399999995949
312803.0387,1.335492331054362,-20.302861064652813,-6.594662303747709,-0.9896482439080838,46.69499999994878
312803.0397,9.274080741950653,-15.142956823025198,-2.3477645796152364,3.418754877147106,46.695999999996275
312803.0407,17.058268562051115,-9.686309716777917,1.9655546974047795,7.833493854937764,46.696999999985565
312803.0417,24.435346575839368,-4.135577102404382,6.186120722068741,12.08730848797217,46.697999999974854
312803.0427,31.16490601388538,1.3074769683582654,10.155434134527143,16.015792181874197,46.698999999964144
312803.0437,37.02776399537014,6.44988101123199,13.722475557207872,19.464135622332417,46.699999999953434
312803.0447,41.83440672655826,11.115200018730437,16.750711911083535,22.29398066619303,46.70100000000093
312803.0457,45.43253587063188,15.15073774520017,19.124876743591305,24.38998939198496,46.70199999999022
312803.0467,47.71330294247917,18.433804789975,20.757060809980388,25.665701537628767,46.70299999997951
312803.0477,48.6158470250846,20.876681948146956,21.591652625282137,26.068256816701517,46.7039999999688
312803.0487,48.12981404108105,22.42995968631999,21.60871413887499,25.581599295419267,46.70499999995809
312803.0497,46.2956296895649,23.084013710264973,20.825462571661255,24.227858079233982,46.70599999994738
312803.0507,43.20241830603608,22.868479216147644,19.2956503186721,22.066707440166716,46.70699999999488
312803.0517,38.98359876711257,21.849706011431845,17.106781605911728,19.192642460755184,46.70799999998417
312803.0527,33.810336215421465,20.126304831305685,14.375265412694205,15.730252946380931,46.70899999997346
312803.0537,27.883173297575055,17.82302219836493,11.239765323378766,11.827726716065579,46.70999999996275
312803.0547,21.422294632714642,15.083296950958115,7.8531541403860485,7.648950695897746,46.71099999995204
312803.0557,14.656981666434769,12.060946365310356,4.3736006564619485,3.3646922381669118,46.711999999999534
312803.0567,7.814881806535454,8.911495147670651,0.9553963194351888,-0.8565769078969624,46.712999999988824
312803.0577,1.1117383103273921,5.783690079538883,-2.2598378547175373,-4.857613596995222,46.713999999978114
312803.0587,-5.2577981706219985,2.81173311654331,-5.150943276235492,-8.500501577569215,46.714999999967404
312803.0597,-11.12772906359709,0.10871584113590167,-7.623465277578224,-11.67337930579696,46.71599999995669
312803.0607,-16.366208212575874,-2.238348668375437,-9.613913087492064,-14.29536102954801,46.71699999994598
312803.0617,-20.878705153052874,-4.171617995143357,-11.09176313831209,-16.31935034919042,46.71799999999348
312803.0627,-24.60872865005905,-5.663497067568913,-12.059110789945423,-17.732605816600266,46.71899999998277
312803.0637,-27.536191598373065,-6.715709258988023,-12.54806444419314,-18.55508985899796,46.71999999997206
312803.0647,-29.67367498064693,-7.356519164710676,-12.616156797155488,-18.83580064419933,46.72099999996135
312803.0657,-31.061002589569622,-7.636397315079157,-12.340204366174145,-18.64743680525574,46.72199999995064
312803.0667,-31.758656008927673,-7.622524492945694,-11.809164255773252,-18.079864108228453,46.72299999999814
312803.0677,-31.840630410190062,-7.392606146660459,-11.116605717868188,-17.23293086318605,46.72399999998743
312803.0687,-31.38734975624682,-7.028499711152514,-10.353427312951634,-16.209208633495233,46.72499999997672
312803.0697,-30.47922359714613,-6.610147226130573,-9.601407494402464,-15.107214526702238,46.72599999996601
312803.0707,-29.19134047063034,-6.210254133091997,-8.928081645039617,-14.015603645586825,46.7269999999553
312803.0717,-27.58966345662271,-5.890067964815723,-8.383301336388742,-13.00871215006923,46.727999999944586
312803.0727,-25.728934176201978,-5.696496485028316,-7.997665217072291,-12.143693577708431,46.728999999992084
312803.0737,-23.652317807345067,-5.660674778586185,-7.782831545484194,-11.459337031719414,46.72999999998137
312803.0747,-21.39265020336855,-5.797957253981527,-7.733547186337148,-10.976500385030524,46.73099999997066
312803.0757,-18.97499535769906,-6.109186034788857,-7.831073567029463,-10.69994950098158,46.73199999995995
312803.0767,-16.420101769196293,-6.582983199303157,-8.047571128122076,-10.621278840583786,46.73299999994924
312803.0777,-13.748270887289275,-7.198739951645037,-8.350931084884383,-10.7225100929386,46.73399999999674
312803.0787,-10.983126458434059,-7.929937117549729,-8.70952306040814,-10.97993017742869,46.73499999998603
312803.0797,-8.154801838690684,-8.747430708850958,-9.09636031929642,-11.36774022473701,46.73599999997532
312803.0807,-5.302139508219698,-9.622372183258966,-9.49226657928409,-11.861140444195623,46.73699999996461
312803.0817,-2.4736145896992614,-10.528500294576004,-9.887750528181435,-12.438565329761682,46.7379999999539
312803.0827,0.2731603662672436,-11.443631900692514,-10.283443171686955,-13.082899103370414,46.7390000000014
312803.0837,2.8733338871772607,-12.35028245922306,-10.689113394584565,-13.781629858817931,46.73999999999069
312803.0847,5.257947337387275,-13.235451860668459,-11.12143209408396,-14.526028670867452,46.74099999997998
312803.0857,7.35799463501882,-14.089706573083811,-11.600789121822597,-15.309553439181215,46.741999999969266
312803.0867,9.109002343925361,-14.905764985879141,-12.147566545696177,-16.125764653419967,46.742999999958556
312803.0877,10.455663362830856,-15.67684186703092,-12.778326574097356,-16.96609274740953,46.743999999947846
312803.0887,11.356046961309374,-16.39502558387396,-13.50237767298109,-17.817809239486955,46.74499999999534
312803.0897,11.784946765039534,-17.049947247448756,-14.319137889953327,-18.662525723012358,46.74599999998463
312803.0907,11.736012041341166,-17.627956775940184,-15.216625232280329,-19.47547959428847,46.74699999997392
312803.0917,11.222427330458354,-18.111952718885096,-16.17128074409586,-20.2257706993769,46.74799999996321
312803.0927,10.276048608615707,-18.48192867667868,-17.149183857835663,-20.877599420506243,46.7489999999525
312803.0937,8.945056027685162,-18.71620894882194,-18.10856699804149,-21.392436593970626,46.75
312803.0947,7.290328426666365,-18.793259763837373,-19.003393224548795,-21.731942124349448,46.75099999998929
312803.0957,5.38086870103454,-18.693889563945884,-19.787641805780233,-21.861354514824598,46.75199999997858
312803.0967,3.2886995291628307,-18.403600189515377,-20.419864343480395,-21.753007990010225,46.75299999996787
312803.0977,1.0836972000568392,-17.91482585595083,-20.86753696177007,-21.389604563109813,46.75399999995716
312803.0987,-1.171166980496104,-17.228801011524908,-21.110746015616908,-20.766878596349553,46.75499999994645
312803.0997,-3.423752635582141,-16.3568308244747,-21.1448046411938,-19.89534029643823,46.755999999993946
312803.1007,-5.635504110302436,-15.320795457316562,-20.981499258658904,-18.800867327581226,46.756999999983236
312803.1017,-7.782810301275076,-14.152795138886479,-20.648798588606542,-17.52402195838025,46.757999999972526
312803.1027,-9.85688640822803,-12.893929138293991,-20.189009393774654,-16.118093890409007,46.758999999961816
312803.1037,-11.862237225137516,-11.592288866712003,-19.655517704578735,-14.645993640634428,46.759999999951106
312803.1047,-13.813896959076562,-10.300324236497525,-19.10839613222482,-13.176235334381568,46.7609999999986
312803.1057,-15.733754197475069,-9.071804785772734,-18.60927269234737,-11.778339351961769,46.76199999998789
312803.1067,-17.646351511825163,-7.958636430934359,-18.215932744304283,-10.518045068874233,46.76299999997718
312803.1077,-19.57458969726978,-7.007807022720685,-17.97715546399754,-9.452745772937119,46.76399999996647
312803.1087,-21.535763383112556,-6.258718032526124,-17.928266634192962,-8.627539428267767,46.76499999995576
312803.1097,-23.538308771419853,-5.741117569547014,-18.08782234523513,-8.07223208173424,46.76599999994505
312803.1107,-25.579560972433736,-5.473786211900596,-18.45573012207374,-7.799541089739483,46.76699999999255
312803.1117,-27.64470696973624,-5.464048813329132,-19.0129758202207,-7.804632042190811,46.76799999998184
312803.1127,-29.706992627392832,-5.708101065962759,-19.722970193125434,-8.065997757212177,46.76899999997113
312803.1137,-31.729111860101174,-6.192058346493215,-20.53437380706996,-8.54756274170966,46.76999999996042
312803.1147,-33.665586784189266,-6.893565088262493,-21.385118535821896,-9.201784722644106,46.77099999994971
312803.1157,-35.465851729677794,-7.7837531353700085,-22.2072322823002,-9.973437539074743,46.771999999997206
312803.1167,-37.077691225282514,-8.82931263728736,-22.932001996082654,-10.8037055792356,46.772999999986496
312803.1177,-38.450658677387196,-9.994441681782456,-23.494985561743807,-11.634204313382229,46.773999999975786
312803.1187,-39.5391204243769,-11.24247064244659,-23.840408008667843,-12.410565551139406,46.774999999965075
312803.1197,-40.304626711960296,-12.537010723369594,-23.92454900175264,-13.08528692842859,46.775999999954365
312803.1207,-40.71740031848318,-13.842547357241438,-23.717839246663427,-13.619636050243487,46.77700000000186
312803.1217,-40.75684505697051,-15.12447989872679,-23.205521857339537,-13.9845108045994,46.77799999999115
312803.1227,-40.41109783458571,-16.348690265804578,-22.386886672680337,-14.160276659934024,46.77899999998044
312803.1237,-39.67576594492632,-17.48079547649632,-21.273235407763238,-14.135716468623091,46.77999999996973
312803.1247,-38.552092718517436,-18.485293892099666,-19.884868021388563,-13.906326116593734,46.78099999995902
312803.1257,-37.04486814473685,-19.324845609049213,-18.247482139764546,-13.472259725174288,46.78199999994831
312803.1267,-35.16043801802863,-19.959929461071482,-16.388437224459935,-12.836263292054532,46.78299999999581
312803.1277,-32.905160680865265,-20.349091017802813,-14.333346945773398,-12.001931534315815,46.7839999999851
312803.1287,-30.28461390663004,-20.44993940621478,-12.103425211358989,-10.972579201520334,46.78499999997439
312803.1297,-27.303769630894255,-20.220970355075156,-9.713926757756662,-9.750939295308664,46.78599999996368
312803.1307,-23.968238933482173,-19.624195830715976,-7.1739000977981835,-8.339794254359774,46.78699999995297
312803.1317,-20.2865551475114,-18.628456282202702,-4.487320890811523,-6.743523077502871,46.788000000000466
312803.1327,-16.273322880215122,-17.213190340539935,-1.655512337793026,-4.970420433587476,46.788999999989755
312803.1337,-11.952929859455974,-15.37234956053139,1.3193976055420942,-3.035526713418043,46.789999999979045
312803.1347,-7.363411360258355,-13.118082416724068,4.430368211925061,-0.9636138380684947,46.790999999968335
312803.1357,-2.5599862619156877,-10.483780449493716,7.661173287609127,1.2080883120152046,46.791999999957625
312803.1367,2.3822408038308382,-7.526085730023611,10.982502792363903,3.4278575798919184,46.792999999946915
312803.1377,7.366889751662336,-4.325504876414682,14.348976211587527,5.628541150028365,46.79399999999441
312803.1387,12.276627163637782,-0.9853592076544418,17.697547160960692,7.728041923469371,46.7949999999837
312803.1397,16.97547289144089,2.371081974121198,20.947667910708745,9.631442490381982,46.79599999997299
312803.1407,21.313199087683188,5.605296193991738,24.003427797125116,11.234832038260446,46.79699999996228
312803.1417,25.13174068092517,8.569887179136678,26.75769437306537,12.430735538489845,46.79799999995157
312803.1427,28.273339967253595,11.116350792081432,29.098087587005473,13.114875488828652,46.79899999999907
312803.1437,30.589962569957475,13.103789184309578,30.914424081831022,13.193840740144008,46.79999999998836
312803.1447,31.95336563648519,14.40802189855015,32.10709975974345,12.593110277416525,46.80099999997765
312803.1457,32.26508794064833,14.930468487995196,32.59575121002185,11.264795868120398,46.80199999996694
312803.1467,31.46557807649007,14.606150215503051,32.32746413448341,9.194436298630539,46.80299999995623
312803.1477,29.541688781522687,13.410183061629919,31.283788372141213,6.40620293473839,46.80399999994552
312803.1487,26.531844424561907,11.36221072551725,29.48587754771325,2.9659617398406057,46.804999999993015
312803.1497,22.528330522204172,8.528350133352522,26.997193548447253,-1.018224586380265,46.805999999982305
312803.1507,17.67634862542942,5.0203845140221555,23.923392725372796,-5.398389336673331,46.806999999971595
312803.1517,12.169711825547308,0.9921281361368398,20.409227401327826,-9.991774730620328,46.807999999960884
312803.1527,6.243306539047737,-3.366912439854933,16.632534453191862,-14.588569903620124,46.808999999950174
312803.1537,0.162694199047254,-7.840259293026176,12.79562163818353,-18.96186630887845,46.80999999999767
312803.1547,-5.788549061361091,-12.19506873342889,9.11458081371892,-22.879236905677914,46.81099999998696
312803.1557,-11.3229749809627,-16.193982433359444,5.80723573119558,-26.115202505947327,46.81199999997625
312803.1567,-16.16398510862109,-19.60748963040404,3.080554579548784,-28.463761564999597,46.81299999996554
312803.1577,-20.060175394860615,-22.226024670801074,1.1184127679474758,-29.750136715880537,46.81399999995483
312803.1587,-22.79836706141057,-23.87104035118047,0.0705743954776765,-29.84093513159136,46.81500000000233
312803.1597,-24.21448036062345,-24.404369778260474,0.043672731279550674,-28.65202725034249,46.81599999999162
312803.1607,-24.201565740569094,-23.735311801538554,1.0948184103571987,-26.153610895093696,46.81699999998091
312803.1617,-22.714516491416223,-21.825037401218736,3.2282621340986046,-22.372131981831135,46.8179999999702
312803.1627,-19.77123055909407,-18.688103450722984,6.395304033506885,-17.388961890280687,46.81899999995949
312803.1637,-15.450246488374436,-14.39106069663004,10.497394863517036,-11.335966143847008,46.81999999994878
312803.1647,-9.88512804453188,-9.048338574425303,15.39213611864061,-4.388319903201854,46.820999999996275
312803.1657,-3.2560935287433557,-2.8157652483357394,20.901677241934188,3.244885160574018,46.821999999985565
312803.1667,4.220438554445134,4.117776331825738,26.822845731957575,11.331555940762351,46.822999999974854
312803.1677,12.303599414697736,11.539956749587784,32.93824310211853,19.628264002958254,46.823999999964144
312803.1687,20.740278219629786,19.22522422921046,39.02750370146428,27.89187115456527,46.824999999953434
312803.1697,29.27697129005203,26.94499858331164,44.877945546299834,35.89036590009965,46.82600000000093
312803.1707,37.67053952971779,34.477240574639616,50.293937470943725,43.41226332466387,46.82699999999022
312803.1717,45.69728082142273,41.61489577395836,55.104454325625156,50.274069632239986,46.82799999997951
312803.1727,53.15990374280977,48.172837179311834,59.16847628694708,56.3254942731363,46.8289999999688
312803.1737,59.89219096714829,53.99307505586965,62.378091221658245,61.452290202734055,46.82999999995809
312803.1747,65.76134592714365,58.94815190439554,64.65936087729573,65.57679825507691,46.83099999994738
312803.1757,70.66820599599451,62.94278165818556,65.97119361792112,68.65644758546406,46.83199999999488
312803.1767,74.54566306520869,65.91391314438823,66.30261220179615,70.68060569748572,46.83299999998417
312803.1777,77.35574518695215,67.82948911720204,65.66890254141164,71.66626749286766,46.83399999997346
312803.1787,79.08587293597309,68.68622774123598,64.10717152880268,71.65311650425132,46.83499999996275
312803.1797,79.74480877928511,68.50677103248177,61.67182763239867,70.69848158168735,46.83599999995204
312803.1807,79.3587699241297,67.33652604617357,58.43043156086487,68.8726525312511,46.836999999999534
312803.1817,77.96808272762489,65.24047463655938,54.46025542175891,66.25491691736279,46.837999999988824
312803.1827,75.62463171986779,62.30015436437335,49.8457510487975,62.93054953042808,46.838999999978114
312803.1837,72.39021329943549,58.610926521792976,44.676977629653045,58.988840460538704,46.839999999967404
312803.1847,68.33575914240102,54.27955812825179,39.04889238285501,54.522102912602264,46.84099999995669
312803.1857,63.541262929567466,49.42206378097666,33.0612818722336,49.62547297015486,46.84199999994598
312803.1867,58.09613990427846,44.16168982448072,26.81901918190696,44.39721364768898,46.84299999999348
312803.1877,52.09968263533103,38.626884654080584,20.432283343380107,38.93917475329796,46.84399999998277
312803.1887,45.661254648375184,32.94908942074678,14.016377076405725,33.357044164925505,46.84499999997206
312803.1897,38.89988806141819,27.260203976474074,7.690826818692458,27.760056272344872,46.84599999996135
312803.1907,31.943018936737072,21.689631196207653,1.5775397613403104,22.259895945633463,46.84699999995064
312803.1917,24.924197172024535,16.360873259579584,-4.202083817648455,16.968643442947652,46.84799999999814
312803.1927,17.97973510995072,11.387737866914218,-9.531041770835651,11.995735533953892,46.84899999998743
312803.1937,11.24439677632049,6.870300679428384,-14.301437293478012,7.44405669227557,46.84999999997672
312803.1947,4.846362700002866,2.890851699249875,-18.419680957156533,3.4054063381458426,46.85099999996601
312803.1957,-1.098181109675964,-0.4898826392173273,-21.811760841903855,-0.04430091144815077,46.8519999999553
312803.1967,-6.4904001458502885,-3.2359122249711127,-24.4280892144948,-2.849667944024978,46.852999999944586
312803.1977,-11.253645190773709,-5.338216683004227,-26.247418791664202,-4.9798130207831015,46.853999999992084
312803.1987,-15.337302006483164,-6.815736690644446,-27.279359430617067,-6.431279769217751,46.85499999998137
312803.1997,-18.719252479344366,-7.7148875851956635,-27.56511551143695,-7.229469711197782,46.85599999997066
312803.2007,-21.40664310457105,-8.107458173358584,-27.17619839203991,-7.428315142527746,46.85699999995995
312803.2017,-23.434792025421483,-8.086879703671856,-26.211035461546476,-7.108052163717591,46.85799999994924
312803.2027,-24.864223535870238,-7.7629848407994535,-24.789582163437498,-6.3711171409325305,46.85899999999674
312803.2037,-25.775983900996724,-7.255511639181595,-23.046228370330333,-5.336359318519376,46.85999999998603
312803.2047,-26.26554845402469,-6.686729783376247,-21.121457625560925,-4.131921257217572,46.86099999997532
312803.2057,-26.435761742373,-6.173663267058452,-19.15285024988036,-2.887271496185661,46.86199999996461
312803.2067,-26.38934677319709,-5.820444722318294,-17.266105318094702,-1.724966884527853,46.8629999999539
312803.2077,-26.221566464273778,-5.71135437798715,-15.5667825734006,-0.752765603829084,46.8640000000014
312803.2087,-26.013615103998628,-5.905067635152852,-14.133429362648084,-0.05670087140818044,46.86499999999069
312803.2097,-25.827259921147178,-6.43056039027163,-13.01266139219443,0.3043402536024204,46.86599999997998
312803.2107,-25.701147832694357,-7.285005798026675,-12.216617040918079,0.3021033314167153,46.866999999969266
312803.2117,-25.649049771335125,-8.433849408143113,-11.723015765765538,-0.05975740378196703,46.867999999958556
312803.2127,-25.660148055200235,-9.813083939766331,-11.477838402773562,-0.7467097967965838,46.868999999947846
312803.2137,-25.701296759567025,-11.333574773753968,-11.400429924676693,-1.6965894411080167,46.86999999999534
312803.2147,-25.72101749361128,-12.88712757714892,-11.390623110017678,-2.8247882358073775,46.87099999998463
312803.2157,-25.65484906700896,-14.353854548281607,-11.337313018274266,-4.030958206823724,46.87199999997392
312803.2167,-25.4315625976142,-15.61029763448412,-11.127792580230167,-5.206685960099163,46.87299999996321
312803.2177,-24.97969336669156,-16.537714438485068,-10.657099982202396,-6.243525056179495,46.8739999999525
312803.2187,-24.233832294210647,-17.029929919899907,-9.836634321323691,-7.0407601263131525,46.875
312803.2197,-23.140163325716564,-17.000204305824933,-8.601366662798249,-7.512318171245829,46.87599999998929
312803.2207,-21.660823249840664,-16.386660099450392,-6.915102536305049,-7.592334454826565,46.87699999997858
312803.2217,-19.77678785931096,-15.155939767737083,-4.773427022642763,-7.239013238442679,46.87799999996787
312803.2227,-17.48913963392252,-13.304918299125138,-2.204168521561457,-6.4365840013587166,46.87899999995716
312803.2237,-14.818731636844214,-10.860456887139613,0.7345671299216239,-5.195325956609825,46.87999999994645
312803.2247,-11.804413701286387,-7.877340302670419,3.9585344727432212,-3.54980086291331,46.880999999993946
312803.2257,-8.500114806925575,-4.434676610968206,7.363223147466413,-1.5555803391350287,46.881999999983236
312803.2267,-4.971166935389693,-0.6311415235465824,10.830902268039075,0.715134562261858,46.882999999972526
312803.2277,-1.2903017426995311,3.4204879381165965,14.238191902811884,3.178536814090482,46.883999999961816
312803.2287,2.466251857007978,7.5990490800571155,17.463506908261053,5.74439803403169,46.884999999951106
312803.2297,6.222192156453832,11.780525676005434,20.393769020152984,8.3209649317448,46.8859999999986
312803.2307,9.903806203649012,15.843032584110297,22.929890075734566,10.81919515298859,46.88699999998789
312803.2317,13.441705191951586,19.670988511387407,24.990680291341313,13.156071373297024,46.88799999997718
312803.2327,16.771607130772775,23.158330874887795,26.515014048142422,15.256864643164743,46.88899999996647
312803.2337,19.834275522367765,26.21074954169648,27.462272432063504,17.05635546952658,46.88999999995576
312803.2347,22.574840512322044,28.747029501975355,27.811257064581138,18.499148117763387,46.89099999994505
312803.2357,24.941815078671507,30.69968361994413,27.557915334910735,19.539315794040373,46.89199999999255
312803.2367,26.886162838704173,32.01511579161778,26.712318269858287,20.13968043911447,46.89299999998184
312803.2377,28.360770398056275,32.6535763357287,25.295379244081104,20.27105384007273,46.89399999997113
312803.2387,29.32062574480552,32.58915400751134,23.335790827876938,19.911744680313845,46.89499999996042
312803.2397,29.723910398424344,31.809995998797014,20.867590895073153,19.04757223111846,46.89599999994971
312803.2407,29.534087144519734,30.318866150549514,17.9286562200597,17.672529658349422,46.896999999997206
312803.2417,28.72292125097811,28.134053051936853,14.56027567301832,15.79012024861451,46.897999999986496
312803.2427,27.274227304631605,25.290536392483336,10.807792695013848,13.415262638707075,46.898999999975786
312803.2437,25.188002915617826,21.841225050194716,6.72214649558503,10.57654167064937,46.899999999965075
312803.2447,22.484509871668408,17.858006175107796,2.362001462514852,7.318484360240478,46.900999999954365
312803.2457,19.20780532007837,13.43230093316215,-2.203949580694835,3.703477927505671,46.90200000000186
312803.2467,15.428218434920135,8.67481625829465,-6.8949784700027195,-0.18707243349733396,46.90299999999115
312803.2477,11.243314962878223,3.7142155643749164,-11.617082319977012,-4.252720200404102,46.90399999998044
312803.2487,6.776990811393221,-1.305496737086514,-16.262927822747923,-8.375387914720424,46.90499999996973
312803.2497,2.176479007817476,-6.2289776281623075,-20.713289065692543,-12.422394864216514,46.90599999995902
312803.2507,-2.3927700791261235,-10.89490782292929,-24.84014109972718,-16.251138936492815,46.90699999994831
312803.2517,-6.754182879809893,-15.142548162369593,-28.511396945979158,-19.715305532172408,46.90799999999581
312803.2527,-10.728786901304249,-18.81918752282674,-31.597091552703752,-22.672310842741073,46.9089999999851
312803.2537,-14.145047750976312,-21.78805911978835,-33.97664100050542,-24.991536076074294,46.90999999997439
312803.2547,-16.849163918737755,-23.936210357422105,-35.546657100177,-26.562788958499798,46.91099999996368
312803.2557,-18.71507646605964,-25.181758999208526,-36.22869229109623,-27.304352314518965,46.91199999995297
312803.2567,-19.653422723871866,-25.47996263852283,-35.97623949701495,-27.169956324655956,46.913000000000466
312803.2577,-19.618699873307758,-24.82757240334863,-34.780323395075506,-26.15404612947659,46.913999999989755
312803.2587,-18.61400520161415,-23.26503424738954,-32.67309469843359,-24.294809467298556,46.914999999979045
312803.2597,-16.692878457931744,-20.876236287394992,-29.728972826970452,-21.67457429994903,46.915999999968335
312803.2607,-13.95797631295232,-17.78566857144007,-26.063064333382755,-18.417373166045987,46.916999999957625
312803.2617,-10.55654327499479,-14.153049209024207,-21.826799418560444,-14.683684394132092,46.917999999946915
312803.2627,-6.6728882989808564,-10.165662549694423,-17.200958070807012,-10.662582478043491,46.91899999999441
312803.2637,-2.5183111260842788,-6.0288347866167955,-12.386480265146991,-6.561741688264765,46.9199999999837
312803.2647,1.6808730527687916,-1.955124315897833,-7.593650843322352,-2.595919589682569,46.92099999997299
312803.2657,5.6964055823042345,1.8470852106412772,-3.0304007897883958,1.0253160682770452,46.92199999996228
312803.2667,9.311353574842654,5.184842210290903,1.1094419356701088,4.10977552262317,46.92299999995157
312803.2677,12.33265336389317,7.890986497312661,4.657096372529126,6.4938971607270455,46.92399999999907
312803.2687,14.602054900155219,9.83291933012056,7.4781613358544154,8.052263814801199,46.92499999998836
312803.2697,16.004713182484895,10.91920442799783,9.479649313305796,8.704711282831713,46.92599999997765
312803.2707,16.47485201994856,11.103577335820798,10.614211114149008,8.420532166006943,46.92699999996694
312803.2717,15.998149473888867,10.386130408983812,10.88126206206776,7.2194955126911315,46.92799999995623
312803.2727,14.610744403762643,8.811647690131274,10.32496634157628,5.169642339195472,46.92899999994552
312803.2737,12.395018660662268,6.465270975977354,9.029285117943234,2.3820586962588046,46.929999999993015
312803.2747,9.472548395577345,3.465868465955437,7.110524505731415,-0.9969486925090248,46.930999999982305
312803.2757,5.994821059311091,-0.04236478780404485,4.708011346831936,-4.795662601055377,46.931999999971595
312803.2767,2.132465697805613,-3.899432214032153,1.9736616309452728,-8.82800496637639,46.932999999960884
312803.2777,-1.9361684410801023,-7.939484218289077,-0.9387231383771445,-12.90500736845427,46.933999999950174
312803.2787,-6.03623202752733,-12.000483694105524,-3.883597595041013,-16.84587846952899,46.93499999999767
312803.2797,-10.00659281232405,-15.93293435327404,-6.732489999843172,-20.487905536612203,46.93599999998696
312803.2807,-13.70836244699073,-19.607119226323285,-9.380868393080211,-23.69454756293795,46.93699999997625
312803.2817,-17.031211399451912,-22.91843788741096,-11.75261339230067,-26.361245574230825,46.93799999996554
312803.2827,-19.897152079218888,-25.790598780392884,-13.801873634513532,-28.418675865210364,46.93899999995483
312803.2837,-22.261689442388064,-28.176602539287668,-15.512310775205558,-29.833386174984618,46.94000000000233
312803.2847,-24.112455595003684,-30.057627937851638,-16.893963977662274,-30.605964435868934,46.94099999999162
312803.2857,-25.465641595177626,-31.440089418857127,-17.978159247936702,-30.76707689826391,46.94199999998091
312803.2867,-26.360699491336465,-32.351261471645905,-18.81103994961104,-30.371861807389838,46.9429999999702
312803.2877,-26.853898134483615,-32.833951003632386,-19.446388891175115,-29.493264845740555,46.94399999995949
312803.2887,-27.011369802833975,-32.94073872781046,-19.93844249499321,-28.21494646737345,46.94499999994878
312803.2897,-26.902278927605806,-32.72830318242192,-20.33536273861716,-26.62437750649407,46.945999999996275
312803.2907,-26.5926824543087,-32.25228931357506,-20.673937858250987,-24.806671802077567,46.946999999985565
312803.2917,-26.140541929036562,-31.563094493751507,-20.975938765100373,-22.83959163618728,46.947999999974854
312803.2927,-25.592202756418278,-30.70282849960878,-21.246379722755368,-20.790016070591708,46.948999999964144
312803.2937,-24.980491631707547,-29.703572571940004,-21.473736994786606,-18.7119990067143,46.949999999953434
312803.2947,-24.32441566840625,-28.586929424837656,-21.631987022062685,-16.646379402259786,46.95100000000093
312803.2957,-23.630292702368713,-27.36473382750705,-21.68415468958557,-14.621756560532546,46.95199999999022
312803.2967,-22.894016231729598,-26.040693450855194,-21.586928396989347,-12.656522814185251,46.95299999997951
312803.2977,-22.104071717448036,-24.61266071154715,-21.295813961963702,-10.761564997731874,46.9539999999688
312803.2987,-21.24488041431406,-23.07520357873968,-20.77027073743809,-8.943211273354796,46.95499999995809
312803.2997,-20.300054432938857,-21.42214806988602,-19.97830184544929,-7.206012693752731,46.95599999994738
312803.3007,-19.255199176173825,-19.648804861502512,-18.900051489297052,-5.555005959757046,46.95699999999488
312803.3017,-18.099988829663783,-17.753660920670498,-17.53008605682664,-3.997197258208115,46.95799999998417
312803.3027,-16.829355665022646,-15.73940532169159,-15.878188198568507,-2.542125336418069,46.95899999997346
312803.3037,-15.443760548671396,-13.613255616112093,-13.968657644022242,-1.2014912233617578,46.95999999996275
312803.3047,-13.948635357745705,-11.386645800790948,-11.83827170388123,0.012032473130651006,46.96099999995204
312803.3057,-12.353193831554515,-9.074418215093461,-9.533195618807765,1.0865919871449823,46.961999999999534
312803.3067,-10.668883835160923,-6.693720513240528,-7.105234213128216,2.0132436112875176,46.962999999988824
312803.3077,-8.907792715394114,-4.2628388697306105,-4.60787179994427,2.7880065246711703,46.963999999978114
312803.3087,-7.0813144372602315,-1.80019686310826,-2.0925520937573086,3.413539845721377,46.964999999967404
312803.3097,-5.199343354376308,0.67628318493445,0.39439538879969926,3.900149804994455,46.96599999995669
312803.3107,-3.2701803124207025,3.1493189319240478,2.813865410866115,4.265912549318081,46.96699999994598
312803.3117,-1.3012318496265785,5.601847863831949,5.134929660146481,4.535804915842186,46.96799999999348
312803.3127,0.6995349822186486,8.016077578393643,7.334580862370358,4.739857475059551,46.96899999998277
312803.3137,2.721537181578483,10.372123071799454,9.396363968382689,4.910467525233121,46.96999999997206
312803.3147,4.749177551431812,12.646423281800235,11.308124544535675,5.079120663294252,46.97099999996135
312803.3157,6.759437030079645,14.810183882991092,13.059212273003038,5.272855516982342,46.97199999995064
312803.3167,8.719829720949438,16.828120016322178,14.637546889863136,5.510857293958517,46.97299999999814
312803.3177,10.58708890138545,18.6577671549871,16.026977462338827,5.801575737041864,46.97399999998743
312803.3187,12.306904627658996,20.24958999151716,17.205340960527572,6.140729907161736,46.97499999997672
312803.3197,13.814945460063527,21.54805091769594,18.14355496489913,6.510488452872616,46.97599999996601
312803.3207,15.039276004267549,22.4937074365993,18.805969148521466,6.880006378773569,46.9769999999553
312803.3217,15.904139669463397,23.026300419389667,19.152061947930914,7.20736804365539,46.977999999944586
312803.3227,16.33492605260558,23.088683041021152,19.13941654008007,7.442843993230218,46.978999999992084
312803.3237,16.26399966162862,22.63133486676542,18.727759365643283,7.533230371109212,46.97999999998137
312803.3247,15.636946097059477,21.61711803864504,17.883710539026485,7.426918141677541,46.98099999997066
312803.3257,14.418706544808241,20.02587264132086,16.585792709982435,7.079247914891632,46.98199999995995
312803.3267,12.599031839177101,17.858423638829525,14.829184662130652,6.457654884753941,46.98299999994924
312803.3277,10.196699823823211,15.139586702350407,12.629695605935899,5.546103727671537,46.98399999999674
312803.3287,7.262005940135032,11.919815579097913,10.02647847989234,4.348357322814163,46.98499999998603
312803.3297,3.877153499427317,8.275226273930581,7.083093232256259,2.889713207565676,46.98599999997532
312803.3307,0.15432856514065313,4.305856346352467,3.8866666094078646,1.216970513858928,46.98699999996461
312803.3317,-3.7685679856309124,0.1321609117165735,0.5450615747426818,-0.603453547767227,46.9879999999539
312803.3327,-7.734357949619785,-4.110102097802498,-2.817848129587774,-2.4891691217038256,46.9890000000014
312803.3337,-11.5748238423833,-8.27630006655972,-6.068521828799707,-4.346965965100466,46.98999999999069
312803.3347,-15.120206075506223,-12.220245086176908,-9.071275811272475,-6.0790700075672595,46.99099999997998
312803.3357,-18.209285502763798,-15.801890098290317,-11.69642221561146,-7.58998816298319,46.991999999969266
312803.3367,-20.699298976512257,-18.894837089141962,-13.828379513253454,-8.793357534582027,46.992999999958556
312803.3377,-22.47491977351913,-21.393090649846116,-15.373089983514443,-9.618200680720692,46.993999999947846
312803.3387,-23.455585271776066,-23.216538058654532,-16.26411893352844,-10.014030042867054,46.99499999999534
312803.3397,-23.600568512408614,-24.314731642641465,-16.466908002328108,-9.954339156308738,46.99599999998463
312803.3407,-22.9113597195818,-24.668682965333662,-15.980802745862917,-9.438157835464898,46.99699999997392
312803.3417,-21.43113464030183,-24.290539933845515,-14.83865993287834,-8.48952061936584,46.99799999996321
312803.3427,-19.241320780774387,-23.221192969615085,-13.104045947805242,-7.154886520625145,46.9989999999525
312803.3437,-16.45550986123177,-21.52602919091762,-10.866245571278483,-5.498735868927792,47.0
312803.3447,-13.211184098119373,-19.289208358904776,-8.233490973525068,-3.5977389917886726,47.00099999998929
312803.3457,-9.65990562427611,-16.606956889847712,-5.32497623720543,-1.534025459579338,47.00199999997858
312803.3467,-5.956746052131773,-13.580455155513281,-2.2623285026217594,0.6118313419780069,47.00299999996787
312803.3477,-2.2497952057615462,-10.308921175834678,0.8387471607519867,2.767469979152955,47.00399999995716
312803.3487,1.32942140757537,-6.883467943056828,3.875950330330754,4.874422858688834,47.00499999994645
312803.3497,4.673867128886452,-3.382234260906117,6.766377536127421,6.892297404440938,47.005999999993946
312803.3507,7.706655604163339,0.13283284457209227,9.450543203029952,8.80106652391494,47.006999999983236
312803.3517,10.384039416310069,3.617321259354999,11.894127796573857,10.601252155064818,47.007999999972526
312803.3527,12.695545348495267,7.043773911605517,14.087357962229932,12.31198044218158,47.008999999961816
312803.3537,14.661318591534249,10.399314919559082,16.0421373224956,13.967084853921643,47.009999999951106
312803.3547,16.32697337576043,13.681775404425753,17.787248540728832,15.609616066688316,47.0109999999986
312803.3557,17.756454468792846,16.89474933781673,19.362118846436932,17.285267834628705,47.01199999998789
312803.3567,19.023574870830274,20.042106241886675,20.80976686514789,19.035332449833916,47.01299999997718
312803.3577,20.202996225235506,23.122535068122655,22.16961700345027,20.88984808372501,47.01399999996647
312803.3587,21.361451724858032,26.124687960051986,23.470872801726774,22.86158871738453,47.01499999995576
312803.3597,22.549974522016573,29.023434522378757,24.727082414806944,24.941476458709435,47.01599999994505
312803.3607,23.79779198540403,31.77763213313383,25.932413385516796,27.09587219072032,47.01699999999255
312803.3617,25.108387577096227,34.32967550433449,27.059991119910805,29.266034948560023,47.01799999998184
312803.3627,26.45803254160866,36.606922288955,28.06246122980029,31.369848282703206,47.01899999997113
312803.3637,27.796867426317757,38.524916416043816,28.87472832284729,33.30571070175842,47.01999999996042
312803.3647,29.05238892646043,39.992163151751015,29.418622210636737,34.95829551266593,47.02099999994971
312803.3657,30.134990846770243,40.91606503003704,29.609065542149814,36.2057205216559,47.021999999997206
312803.3667,30.945037343706087,41.20951897624676,29.361180812334215,36.92754512044617,47.022999999986496
312803.3677,31.380826693307814,40.797611923185244,28.597691849134204,37.01294228857583,47.023999999975786
312803.3687,31.34674431896603,39.62384040938123,27.255952446122787,36.36838201312825,47.024999999965075
312803.3697,30.760908635651056,37.65531964635564,25.293974220570224,34.924211013727536,47.025999999954365
312803.3707,29.561680303332874,34.88653511695083,22.69492263171835,32.639616343572555,47.02700000000186
312803.3717,27.71252688465614,31.3413163372429,19.469694622588026,29.50560726376253,47.02799999999115
312803.3727,25.204897950667146,27.072865921151713,15.657369414603604,25.545826596002,47.02899999998044
312803.3737,22.058954084213795,22.161843183002276,11.32351848073953,20.81519277114933,47.02999999996973
312803.3747,18.322188747753952,16.71266494158989,6.556553228490855,15.39655923976159,47.03099999995902
312803.3757,14.066166173311615,10.84833221227229,1.462461457539985,9.395741727213863,47.03199999994831
312803.3767,9.381754417081781,4.70420722622949,-3.841579634407219,2.9353912301468954,47.03299999999581
312803.3777,4.373346746980807,-1.5787591400415526,-9.23413749723488,-3.8517294482876836,47.0339999999851
312803.3787,-0.8473727798936357,-7.860819862206496,-14.596395924402307,-10.829481892294494,47.03499999997439
312803.3797,-6.167556534403063,-14.009732601207487,-19.818379791420515,-17.864546537948794,47.03599999996368
312803.3807,-11.478697389680363,-19.906120145960156,-24.804027452326025,-24.831601406048183,47.03699999995297
312803.3817,-16.681088482144563,-25.447542434680628,-29.47473053652116,-31.617133885297875,47.038000000000466
312803.3827,-21.68694888322895,-30.55106029584037,-33.77111908586697,-38.12168667041873,47.038999999989755
312803.3837,-26.422079026943017,-35.15421398697479,-37.653045367461544,-44.260505358655024,47.039999999979045
312803.3847,-30.82606933737695,-39.21448348793999,-41.09789493672419,-49.96271906457125,47.040999999968335
312803.3857,-34.85123464155456,-42.70742873155294,-44.097511474772425,-55.169330575774886,47.041999999957625
312803.3867,-38.46057067817324,-45.62381447794243,-46.65414735408677,-59.830404935289486,47.042999999946915
312803.3877,-41.62511533813554,-47.96609700052503,-48.775932967968,-63.901914215276356,47.04399999999441
312803.3887,-44.321138367220264,-49.74468235732348,-50.47238732092969,-67.34271541573476,47.0449999999837
312803.3897,-46.5275761814719,-50.97435704919217,-51.750468202323646,-70.11210670425443,47.04599999997299
312803.3907,-48.22407535448274,-51.67124375585663,-52.611585853981815,-72.16832856436558,47.04699999996228
312803.3917,-49.38991618270435,-51.85055385869996,-53.04988781874506,-73.4682594923029,47.04799999995157
312803.3927,-50.00396744274362,-51.525303982791165,-53.051977165298844,-73.96841311452803,47.04899999999907
312803.3937,-50.04568870085379,-50.70604728501562,-52.59806687279077,-73.62718993262509,47.04999999998836
312803.3947,-49.497062268691856,-49.40155402207527,-51.66441638379007,-72.40818825418269,47.05099999997765
312803.3957,-48.345217753980826,-47.62027199732872,-50.226758267514924,-70.28425051808209,47.05199999996694
312803.3967,-46.58542092356399,-45.37231615830559,-48.26431753581852,-67.24182628579881,47.05299999995623
312803.3977,-44.22404493040218,-42.67168564206032,-45.76396387755557,-63.285181303811946,47.05399999994552
312803.3987,-41.28113140879683,-39.53839036346102,-42.7240238541406,-58.439978509700474,47.054999999993015
312803.3997,-37.792182451326326,-36.00018853851293,-39.15731678435795,-52.75580203795466,47.055999999982305
312803.4007,-33.80889832951145,-32.093688372150076,-35.093060377511016,-46.30728467971618,47.056999999971595
312803.4017,-29.398682069857273,-27.864645248760358,-30.577411246076334,-39.19362395847546,47.057999999960884
312803.4027,-24.64285934431292,-23.36738126219279,-25.672548630301492,-31.536419600721075,47.058999999950174
312803.4037,-19.633697098358553,-18.6633562608753,-20.454361980798637,-23.475921057326307,47.05999999999767
312803.4047,-14.470432660444605,-13.819017645523951,-15.008948588686291,-15.165922432148589,47.06099999998696
312803.4057,-9.254633182710494,-8.903139400945893,-9.428251102221184,-6.7676690119054514,47.06199999997625
312803.4067,-4.085281668214179,-3.9839203836946213,-3.8052537054418134,1.5567679135095793,47.06299999996554
312803.4077,0.9459776775536284,0.8738586019231472,1.7707992415934621,9.651142132416433,47.06399999995483
312803.4087,5.7590095822039,5.611323049746017,7.218701824836942,17.3712026398775,47.06500000000233
312803.4097,10.288399288070705,10.177378836295995,12.46869384734602,24.589922884588844,47.06599999999162
312803.4107,14.485421346211924,14.529777978203755,17.464662529474573,31.201419236471693,47.06699999998091
312803.4117,18.318600910110906,18.63526921930599,22.164951692115544,37.123312788494275,47.0679999999702
312803.4127,21.7728400114569,22.46882669859493,26.541738364436682,42.297434153699704,47.06899999995949
312803.4137,24.847222268248643,26.012052222646172,30.579087952334998,46.688923511292025,47.06999999994878
312803.4147,27.551739877911157,29.250940266912387,34.26993884873426,50.2839227271648,47.070999999996275
312803.4157,29.903293278346,32.1732697801113,37.61238108430836,53.08617879969436,47.071999999985565
312803.4167,31.921385603032714,34.76593508656677,40.60566941146953,55.11296638751279,47.072999999974854
312803.4177,33.62396360253792,37.012544323848395,43.246441090441024,56.39078349855877,47.073999999964144
312803.4187,35.023840901129745,38.89159584071331,45.525589322049456,56.95127459788938,47.074999999953434
312803.4197,36.126079723583466,40.37549221331291,47.42617650535309,56.827790118704186,47.07600000000093
312803.4207,36.92660940619943,41.43057274173995,48.92266389847874,56.05290586378026,47.07699999999022
312803.4217,37.41223376453624,42.01824602869829,49.98159660868647,54.65710924879934,47.07799999997951
312803.4227,37.56203723923504,42.09719415157683,50.56372898718654,52.66872394352297,47.0789999999688
312803.4237,37.350055776497356,41.62650975508835,50.62742098375112,50.11500412990012,47.07999999995809
312803.4247,36.74894689713118,40.56952788930289,50.13299646962382,47.024198567842866,47.08099999994738
312803.4257,35.73428741553372,38.89803536118861,49.0476441668721,43.42827610248954,47.08199999999488
312803.4267,34.28905733648482,36.59648957521649,47.35037198611085,39.36592895104404,47.08299999998417
312803.4277,32.40784161954944,33.66586145282964,45.03650367292484,34.88543545874802,47.08399999997346
312803.4287,30.1003006166346,30.12673504206886,42.121235417441895,30.046973312152126,47.08499999996275
312803.4297,27.39352347524081,26.02134854624178,38.641847263874205,24.924026378156356,47.08599999995204
312803.4307,24.33298078958476,21.414343223541124,34.65828279270538,19.603618107074926,47.086999999999534
312803.4317,20.981923671294666,16.392090681342488,30.251959563423497,14.185222812379354,47.087999999988824
312803.4327,17.419223759640467,11.060586142714444,25.522838059865443,8.77834131619162,47.088999999978114
312803.4337,13.735798378862487,5.5420146646046335,20.584942492679588,3.498865942856057,47.089999999967404
312803.4347,10.02990260403692,-0.029791899733959702,15.560676665988264,-1.535512219612142,47.09099999995669
312803.4357,6.401681964616467,-5.514697409606743,10.574397399236634,-6.2104964073000755,47.09199999994598
312803.4367,2.94745476554522,-10.772029023088507,5.74578466099479,-10.420549943062648,47.09299999999348
312803.4377,-0.2457761644385853,-15.666364293263442,1.1835735432517633,-14.073978282753856,47.09399999998277
312803.4387,-3.1050995594146586,-20.072937395141967,-3.0198147658412595,-17.097287148381593,47.09499999997206
312803.4397,-5.575340728401478,-23.88230511649101,-6.792285788476023,-19.438436546076826,47.09599999996135
312803.4407,-7.621261444848385,-27.003986084655775,-10.084395929289757,-21.06870875358951,47.09699999995064
312803.4417,-9.228136754680188,-29.36888425302174,-12.869813694841511,-21.98303553345169,47.09799999999814
312803.4427,-10.400685085483472,-30.93042037321142,-15.143920020857262,-22.198773472105703,47.09899999998743
312803.4437,-11.160485720496773,-31.66441194743185,-16.92072743854976,-21.753062256944236,47.09999999997672
312803.4447,-11.542163313449837,-31.567851474101385,-18.2284594394241,-20.69903429003795,47.10099999996601
312803.4457,-11.588738265299018,-30.656823873560363,-19.104260998241703,-19.101251781177822,47.1019999999553
312803.4467,-11.34662249514485,-28.963867825560644,-19.58859572976778,-17.030818288847687,47.102999999944586
312803.4477,-10.860774079505724,-26.535116114690567,-19.71991576584462,-14.560638092378502,47.103999999992084
312803.4487,-10.170507555469763,-23.427544097268232,-19.530163466456546,-11.76127565999695,47.10499999998137
312803.4497,-9.306390438151709,-19.706613907008308,-19.04158139893182,-8.697800435130212,47.10599999997066
312803.4507,-8.288546593495138,-15.444529481931054,-18.265175943830368,-5.427895426368523,47.10699999995995
312803.4517,-7.126543751133953,-10.719221608310738,-17.20101250722697,-2.0013719290269574,47.10799999994924
312803.4527,-5.820879213506594,-5.614073078445932,-15.840332391946468,1.5389195367280997,47.10899999999674
312803.4537,-4.365910359948403,-0.21828332839124906,-14.169290839021691,5.154945215437142,47.10999999998603
312803.4547,-2.753921077018093,5.372328578693468,-12.173941006046665,8.810413009947586,47.11099999997532
312803.4557,-0.9798870137223689,11.054363075028133,-9.845946831425051,12.467178538957999,47.11199999996461
312803.4567,0.9535856221559581,16.71605095507792,-7.188413051106257,16.081614834095834,47.1129999999539
312803.4577,3.0317119786078854,22.236978638976066,-4.2211830067653295,19.601450558185444,47.1140000000014
312803.4587,5.223920550392304,27.488644792967943,-0.9849789802508738,22.963553036299263,47.11499999999069
312803.4597,7.481666199612906,32.336102114795146,2.456155440469642,26.09305450882252,47.11599999997998
312803.4607,9.738028499856728,36.64084240156272,6.014512711385167,28.904099298063237,47.116999999969266
312803.4617,11.909304550191461,40.26496294790837,9.580699175207318,31.30233664574442,47.117999999958556
312803.4627,13.89862513377814,43.07651852957975,13.02794673252804,33.18911262682343,47.118999999947846
312803.4637,15.601433486432736,44.95582790961336,16.218556106199628,34.467140481743485,47.11999999999534
312803.4647,16.912483814394655,45.80237961591556,19.012065051725,35.04726810918627,47.12099999998463
312803.4657,17.73385844995458,45.54188067486699,21.274560135431766,34.855829496557114,47.12199999997392
312803.4667,17.983382700988187,44.13292432285682,22.888421764986543,33.841976331805995,47.12299999996321
312803.4677,17.6027464655169,41.572726101136034,23.761721284434252,31.984346200342195,47.1239999999525
312803.4687,16.564628854738856,37.90139647875685,23.836483465325518,29.296439507711643,47.125
312803.4697,14.878168915431383,33.20428278332849,23.095089339418926,25.830148620221067,47.12599999998929
312803.4707,12.592229512026604,27.612020389256028,21.56421890768269,21.677004828078427,47.12699999997858
312803.4717,9.796055037476007,21.298075747906825,19.315911189255804,16.96687224114228,47.12799999996787
312803.4727,6.617115019202981,14.47373166893252,16.465535980299645,11.864009516550873,47.12899999995716
312803.4737,3.2161395968035316,7.380645584089848,13.166709699903715,6.5606246436998195,47.12999999994645
312803.4747,-0.22042816892685482,0.2812902457467486,9.603426954516033,1.2682478369083467,47.130999999993946
312803.4757,-3.4901322738632956,-6.55225091526559,5.979899851143763,-3.7925739485779397,47.131999999983236
