TimeStamp,ECR,FCR,ECU,FCU,time_index
312807.3437,-25.795764001993312,-12.909149002537866,-16.601201767249545,-18.975242975069463,51.0
312807.3447,-21.819598401761734,-11.512266912487139,-12.879652739876681,-16.789931949620687,51.00099999998929
312807.3457,-17.121283012546524,-9.785196289952932,-8.56647639909433,-14.103949407258517,51.00199999997858
312807.3467,-11.81852760034783,-7.763557210949075,-3.7777489323510713,-10.989531904957364,51.00299999996787
312807.3477,-6.050577679735139,-5.493092657713864,1.3518482491857697,-7.533753974667014,51.00399999995716
312807.3487,0.02874827686478367,-3.0262086039688594,6.67654036222688,-3.8331550739370837,51.00499999994645
312807.3497,6.258246221326648,-0.4186003824165031,12.047025964734722,0.011604776968335638,51.005999999993946
312807.3507,12.47624009749425,2.2737303502478823,17.317559248733666,3.9006434942696444,51.006999999983236
312807.3517,18.526794731274418,4.996834546806589,22.352093495294373,7.738973967557301,51.007999999972526
312807.3527,24.264906037828947,7.700408603624362,27.029150887590436,11.439613137986493,51.008999999961816
312807.3537,29.56047272789197,10.338580909068163,31.245225374518025,14.925581056613305,51.009999999951106
312807.3547,34.300987541674175,12.869952835645169,34.91667418981248,18.130814256178144,51.0109999999986
312807.3557,38.393013579774156,15.257044059077394,37.980195295051836,21.00013292170566,51.01199999998789
312807.3567,41.76261968164242,17.46536004491609,40.392108966258824,23.488493543913876,51.01299999997718
312807.3577,44.35502756007125,19.46233924244837,42.126750987906,25.559818919854273,51.01399999996647
312807.3587,46.133765494517036,21.216444974503712,43.17433494693002,27.185719991447368,51.01499999995576
312807.3597,47.079625879978636,22.696641675792026,43.538648588781854,28.344407602661153,51.01599999994505
312807.3607,47.18968824819539,23.872439976774217,43.23491519658673,29.020039499549526,51.01699999999255
312807.3617,46.476601124217794,24.71461631185747,42.28808083725504,29.202665352987825,51.01799999998184
312807.3627,44.96822440436135,25.196618969444387,40.731691111183636,28.888829985825925,51.01899999997113
312807.3637,42.70763054567707,25.296574187425655,38.607408480977654,28.08278422528554,51.01999999996042
312807.3647,39.75336073209775,24.999714024751768,35.96510654717865,26.798146682674957,51.02099999994971
312807.3657,36.17974419230828,24.300972766474434,32.8633740767576,25.059770661910424,51.021999999997206
312807.3667,32.07702632144044,23.207449375415788,29.370181152320793,22.905508956644972,51.022999999986496
312807.3677,27.551022751212052,21.740416249292476,25.5634119043177,20.3875432826499,51.023999999975786
312807.3687,22.722026820105615,19.93657228390949,21.530958759398523,17.57295855865193,51.024999999965075
312807.3697,17.722747491925517,17.848290371314548,17.37010364448605,14.543295057717163,51.025999999954365
312807.3707,12.695139689091974,15.54269175475863,13.185979413746182,11.39289923427829,51.02700000000186
312807.3717,7.786101184055654,13.09948465750159,9.089003091549497,8.226008582719361,51.02799999999115
312807.3727,3.142138259364778,10.607622302221836,5.191291107614691,5.15263594848956,51.02899999998044
312807.3737,-1.0967672255416276,8.16095428042004,1.602192926862155,2.2834511028128874,51.02999999996973
312807.3747,-4.803738236905586,5.853153233632441,-1.576800346787118,-0.27602169512309543,51.03099999995902
312807.3757,-7.871586355236189,3.772284766472719,-4.257415046867184,-2.4314750029052474,51.03199999994831
312807.3767,-10.218898862045371,1.9954431397135524,-6.369794641184767,-4.105682175549457,51.03299999999581
312807.3777,-11.795118019766122,0.5838921852674998,-7.867083031117505,-5.243659775198313,51.0339999999851
312807.3787,-12.584139133724744,-0.4208727904215494,-8.728949066119158,-5.816662608200155,51.03499999997439
312807.3797,-12.606039314179496,-0.9997895137747906,-8.96366951587314,-5.824619513812748,51.03599999996368
312807.3807,-11.916675932189118,-1.1573647663323647,-8.608488245985171,-5.296731899369615,51.03699999995297
312807.3817,-10.605052352595296,-0.9211508700732998,-7.728102394438249,-4.2901012457951895,51.038000000000466
312807.3827,-8.78852496404456,-0.339570487781721,-6.411280172533199,-2.8864136309190336,51.038999999989755
312807.3837,-6.606103975958683,0.5217611641974442,-4.765775396946559,-1.1868739916294235,51.039999999979045
312807.3847,-4.210264416999734,1.584937149311097,-2.9118558781193618,0.6942649488294628,51.040999999968335
312807.3857,-1.757817677982998,2.765495805121215,-0.9748916817636205,2.637108837615978,51.041999999957625
312807.3867,0.5995153210215395,3.978533027363897,0.922457723014526,4.523906336877304,51.042999999946915
312807.3877,2.724150042724245,5.144695547401892,2.6678709118342367,6.246616879831156,51.04399999999441
312807.3887,4.500642947127222,6.195571469557413,4.166223463091134,7.713679153183293,51.0449999999837
312807.3897,5.842069857519239,7.0780481747114665,5.345150390839916,8.855462058332376,51.04599999997299
312807.3907,6.694319164233807,7.757300003564614,6.158886474987269,9.627989747356699,51.04699999996228
312807.3917,7.038006940110118,8.218190436062846,6.590099994208591,10.014678106309981,51.04799999995157
312807.3927,6.887912513307978,8.465014447801215,6.649602513874635,10.025988570090604,51.04899999999907
312807.3937,6.290033065661787,8.519653230977193,6.373995420485604,9.697081023214922,51.04999999998836
312807.3947,5.316546583914396,8.41835187205121,5.821486486775624,9.083714676690981,51.05099999997765
312807.3957,4.059136971506109,8.207448022886714,5.066260965868181,8.256788942972856,51.05199999996694
312807.3967,2.6212587232528466,7.938465254324079,4.191907572412148,7.296022473911048,51.05299999995623
312807.3977,1.1099904589345808,7.663030876541067,3.2844695603742355,6.2833282243498525,51.05399999994552
312807.3987,-0.3718591976896597,7.428080597940685,2.425708669317398,5.296450631121465,51.054999999993015
312807.3997,-1.73277404883019,7.27177171012452,1.6871336964171604,4.4033876326772114,51.055999999982305
312807.4007,-2.8981593963966947,7.22044692234588,1.125259702626519,3.658030080271766,51.056999999971595
312807.4017,-3.814197575459482,7.2868806347180834,0.7784369818419599,3.0973233149001116,51.057999999960884
312807.4027,-4.449721305965747,7.469909364967172,0.6654334386472678,2.7401030315199666,51.058999999950174
312807.4037,-4.79608141362965,7.7554110941545895,0.7857851576175928,2.5875950206960114,51.05999999999767
312807.4047,-4.865166809892896,8.118467911038943,1.121764132106884,2.625411767394313,51.06099999998696
312807.4057,-4.685895191313483,8.526435205647124,1.6416653656095106,2.826743254890449,51.06199999997625
312807.4067,-4.299618009099562,8.94255949372545,2.304001885155149,3.1563375153968165,51.06299999996554
312807.4077,-3.7549617557878956,9.329743412425955,3.0621262626470065,3.5748078759375117,51.06399999995483
312807.4087,-3.102653039970213,9.654054399583213,3.8687772593318397,4.042793493454599,51.06500000000233
312807.4097,-2.3908460116680055,9.887612787733001,4.680081405020929,4.524537849433381,51.06599999999162
312807.4107,-1.6613914924519728,10.010571131453135,5.458617793232145,4.990531749825055,51.06699999998091
312807.4117,-0.9473665391244407,10.012001500067317,6.1752715056193175,5.418984081423341,51.0679999999702
312807.4127,-0.2720339537576407,9.88963030920634,6.80974443848243,5.7960227187210815,51.06899999995949
312807.4137,0.3507610723275834,9.648488371195919,7.349746892209574,6.114674991541116,51.06999999994878
312807.4147,0.91490882949953,9.298664052101492,7.789043054302016,6.372816741521353,51.070999999996275
312807.4157,1.4193583990311598,8.852447381612198,8.124652979107488,6.570396766457059,51.071999999985565
312807.4167,1.864843071420088,8.32122236571534,8.353609486961076,6.706327197653416,51.072999999974854
312807.4177,2.250466278867939,7.712496373008745,8.469720680007478,6.775471388547907,51.073999999964144
312807.4187,2.5706181846335263,7.027445878563944,8.46079206364751,6.766154884523512,51.074999999953434
312807.4197,2.8126539086952738,6.259307782320557,8.306716130530452,6.658572460043195,51.07600000000093
312807.4207,2.9556785505710104,5.392859789440116,7.9787463060947035,6.424370265647324,51.07699999999022
312807.4217,2.9706606507874325,4.4051203842328945,7.440145543834378,6.027556269570332,51.07799999997951
312807.4227,2.8219472669280488,3.267269970873002,6.6482504220231435,5.426747139574379,51.0789999999688
312807.4237,2.470095697910372,1.9476626940797501,5.557834527882318,4.5786102389183645,51.07999999995809
312807.4247,1.8757853238053905,0.41567659184257655,4.125506265384313,3.442220798921003,51.08099999994738
312807.4257,1.004443649412079,-1.3539495473484648,2.3147512806542703,1.9839408902317635,51.08199999999488
312807.4267,-0.1688731371226389,-3.376710710467824,0.10114147697255309,0.18235044742291262,51.08299999998417
312807.4277,-1.6548530670760153,-5.654306218355384,-2.5228094738397475,-1.9672703883336924,51.08399999997346
312807.4287,-3.446060149221071,-8.171414411055158,-5.543655207686482,-4.4493900800975625,51.08499999996275
312807.4297,-5.514276579973738,-10.893640851330158,-8.924341430964116,-7.226021563475719,51.08599999995204
312807.4307,-7.809406717785128,-13.7669136546543,-12.603191627744584,-10.236171904050972,51.086999999999534
312807.4317,-10.260156699294866,-16.718475379646826,-16.49475693085636,-13.397110609536943,51.087999999988824
312807.4327,-12.776542028752534,-19.659479824959277,-20.4925684121986,-16.607460079638408,51.088999999978114
312807.4337,-15.254105288416511,-22.48905724805237,-24.473657768377645,-19.751945959122402,51.089999999967404
312807.4347,-17.579563704459982,-25.099576555945436,-28.304549231083918,-22.707490839031138,51.09099999995669
312807.4357,-19.63746741470255,-27.38272066625763,-31.848287217058786,-25.350206599755474,51.09199999994598
312807.4367,-21.317347495892037,-29.23591217427147,-34.97196418384632,-27.562751100953996,51.09299999999348
312807.4377,-22.52077819719979,-30.568588275025302,-37.55416123734456,-29.241472714661118,51.09399999998277
312807.4387,-23.167775991110855,-31.307830352807667,-39.49171556794861,-30.302775752920244,51.09499999997206
312807.4397,-23.202009555750365,-31.40290436239771,-40.7052840175875,-30.688200670524967,51.09599999996135
312807.4407,-22.59439509741287,-30.828358541011355,-41.143276110459226,-30.367819688471663,51.09699999995064
312807.4417,-21.344791269081266,-29.58544683986356,-40.783873130114536,-29.341691483076264,51.09799999999814
312807.4427,-19.481674276080593,-27.701788536726536,-39.63501890541933,-27.63928465950992,51.09899999998743
312807.4437,-17.05985093601401,-25.229323683732627,-37.73244695037652,-25.316953497567898,51.09999999997672
312807.4447,-14.156438741154977,-22.24076660393628,-35.13598054271709,-22.453714780674424,51.10099999996601
312807.4457,-10.865491142576076,-18.82488247160014,-31.92449089158151,-19.145716030733787,51.1019999999553
312807.4467,-7.291759208834953,-15.081003882383834,-28.190009599751363,-15.499890051146409,51.102999999944586
312807.4477,-3.544146840131862,-11.113256983227473,-24.031554611404573,-11.627348713557087,51.103999999992084
312807.4487,0.27057032285450255,-7.024975667464781,-19.549237809307034,-7.637075229580138,51.10499999998137
312807.4497,4.053233316983583,-2.913747190303535,-14.839176654223106,-3.6304284826158866,51.10599999997066
312807.4507,7.716557719424159,1.1325428469360255,-9.989636312794076,0.3031199221242161,51.10699999995995
312807.4517,11.187855079910157,5.038406216958187,-5.078692038077481,4.088726164714466,51.10799999994924
312807.4527,14.410071961625176,8.74205849045748,-0.1735375542180361,7.6672586419452875,51.10899999999674
312807.4537,17.341172727247724,12.195345255773818,4.668610071938678,10.99475870220746,51.10999999998603
312807.4547,19.95205956818136,15.362431953252097,9.398227925825617,14.040469852734256,51.11099999997532
312807.4557,22.223369438362038,18.2175184940459,13.970192726515526,16.783765696304954,51.11199999996461
312807.4567,24.141598126189855,20.74192857775364,18.339949631235203,19.21040992724087,51.1129999999539
312807.4577,25.695065769660992,22.920975399716774,22.45968144279464,21.308639916919507,51.1140000000014
312807.4587,26.870249340461978,24.741015555836746,26.275022748272256,23.065573299959084,51.11499999999069
312807.4597,27.64896483035742,26.1870708316365,29.72281556085325,24.46439401654921,51.11599999997998
312807.4607,28.00678921229239,27.24132677334882,32.730303881254926,25.482684924438818,51.116999999969266
312807.4617,27.9129787684693,27.882714830867872,35.21602336513123,26.092147336152596,51.117999999958556
312807.4627,27.33197914940746,28.087661823324694,37.09247215925708,26.25979626708298,51.118999999947846
312807.4637,26.226449370549894,27.831958901586283,38.27046594848427,25.950558799697955,51.11999999999534
312807.4647,24.56155389417558,27.093575244287454,38.664901647028124,25.13104771376157,51.12099999998463
312807.4657,22.31013056927835,25.8561320912142,38.20149697340943,23.774148724575213,51.12199999997392
312807.4667,19.458232049550492,24.112671311464045,36.82395247394517,21.863960539465353,51.12299999996321
312807.4677,16.010475471826194,21.869307643781966,34.50091020601192,19.400572350561323,51.1239999999525
312807.4687,11.994626235825857,19.148349573488506,31.232066657045838,16.404158886605778,51.125
312807.4697,7.464888124324439,15.990511060654281,27.052838864080282,12.917919476926382,51.12599999998929
312807.4707,2.5034699130031335,12.455911505262135,22.037079108415842,9.009480581101027,51.12699999997858
312807.4717,-2.7798606881436467,8.623667243703022,16.297476951651866,4.7705122806980516,51.12799999996787
312807.4727,-8.250354240703324,4.590004364626199,9.983465413256473,0.31446605379554854,51.12899999995716
312807.4737,-13.752921388733618,0.46495758427908723,3.276645255384631,-4.227490954153087,51.12999999994645
312807.4747,-19.118590380990682,-3.6321495885172252,-3.6160596258867956,-8.712106743595893,51.130999999993946
312807.4757,-24.172368503451914,-7.578134603256429,-10.471119242298212,-12.990858715874362,51.131999999983236
312807.4767,-28.74196711940524,-11.251900906881561,-17.05843866448299,-16.9174598732168,51.132999999972526
312807.4777,-32.66676767110596,-14.540453653312701,-23.152067850562585,-20.355499193331504,51.133999999961816
312807.4787,-35.806377268101556,-17.344531963876438,-28.54087146537512,-23.185641797252277,51.134999999951106
312807.4797,-38.048149854642475,-19.58343535157656,-33.038454831761236,-25.31184897353238,51.1359999999986
312807.4807,-39.31312971535825,-21.198691678789196,-36.49170407310226,-26.66616021385114,51.13699999998789
312807.4817,-39.5600006551704,-22.156314962921638,-38.78741142564012,-27.211701293461925,51.13799999997718
312807.4827,-38.7867848414911,-22.447523697282982,-39.85661004156454,-26.94373255167395,51.13899999996647
312807.4837,-37.03021527915729,-22.087922356063736,-39.6764223188828,-25.888715788414494,51.13999999995576
312807.4847,-34.362888858201124,-21.11527782167467,-38.269415694561815,-24.101541288129617,51.14099999994505
312807.4857,-30.888476482189166,-19.58613643678837,-35.70064312415749,-21.661203375812423,51.14199999999255
312807.4867,-26.73540805683153,-17.571615661369496,-32.07270630075357,-18.66533026953568,51.14299999998184
312807.4877,-22.049551080804473,-15.152758938411102,-27.519304613423408,-15.224051453672569,51.14399999997113
312807.4887,-16.98645419350244,-12.41585874291069,-22.197812123120222,-11.4537169268352,51.14499999996042
312807.4897,-11.703727935496108,-9.448130101384297,-16.281453154526883,-7.470965567690429,51.14599999994971
312807.4907,-6.354085729815543,-6.3340581592089835,-9.95162410470527,-3.3875772626698444,51.146999999997206
312807.4917,-1.079474956696523,-3.15265518779072,-3.390839268959259,0.693557540540421,51.147999999986496
312807.4927,3.9933987464606013,0.024245848109510644,3.2233292454981837,4.681145818159823,51.148999999975786
312807.4937,8.755997927118148,3.132651116280561,9.72308081467967,8.496815455554955,51.149999999965075
312807.4947,13.119327045568472,6.116122913861597,15.953892660721406,12.075135056725625,51.150999999954365
312807.4957,17.01389305098762,8.92475656904304,21.77675178033802,15.362539342877598,51.15200000000186
312807.4967,20.388512112171536,11.513694039920574,27.069283388897205,18.315470764160448,51.15299999999115
312807.4977,23.208307220042023,13.84149271895514,31.726039123949366,20.898112444197203,51.15399999998044
312807.4987,25.452285110485764,15.868673210763726,35.65826189843103,23.08010926451561,51.15499999996973
312807.4997,27.110880062031633,17.556738282167967,38.79345511286664,24.834651245981146,51.15599999995902
312807.5007,28.183808295572096,18.867890203805167,41.07505243237089,26.13722941789534,51.15699999994831
312807.5017,28.67849604836561,19.76558218614875,42.46241558512441,26.965276333928628,51.15799999999581
312807.5027,28.609236762567637,20.21593121241778,42.93129070738453,27.298782034370323,51.1589999999851
312807.5037,27.99711077126064,20.18990575852007,42.474740697468626,27.121844692766725,51.15999999997439
312807.5047,26.870578319757936,19.66609480707857,41.10445558282107,26.424987599796275,51.16099999996368
312807.5057,25.26654759486072,18.63377579171623,38.85223899401932,25.207964310651835,51.16199999995297
312807.5067,23.23163600071423,17.095938489988367,35.77138913643509,23.482693690667826,51.163000000000466
312807.5077,20.823294757755935,15.07189649604088,31.937647172223965,21.27592517579947,51.163999999989755
312807.5087,18.11045973614388,12.59913130696477,27.449380970388855,18.631236791968245,51.164999999979045
312807.5097,15.17342656340127,9.734065884606185,22.42670963945642,15.610014827255066,51.165999999968335
312807.5107,12.102722180156622,6.551550502320065,17.00935137695588,12.29115043142281,51.166999999957625
312807.5117,8.996850607269183,3.142955894134727,11.353086823604901,8.769306558060837,51.167999999946915
312807.5127,5.958916686079175,-0.3871034719312008,5.624861506252641,5.151746935524558,51.16899999999441
312807.5137,3.092264555169326,-3.925262198401653,-0.0033092594800597907,1.5538633276564149,51.1699999999837
312807.5147,0.4953932554777403,-7.354837845293067,-5.361335995601922,-1.906326405186195,51.17099999997299
312807.5157,-1.7434837369897103,-10.56183166346848,-10.288540931545336,-5.114322962020158,51.17199999996228
312807.5167,-3.5517969305942314,-13.441054828039363,-14.641143347952042,-7.965466654218194,51.17299999995157
312807.5177,-4.877429459850009,-15.901910976507418,-18.299215265076743,-10.37093138878658,51.17399999999907
312807.5187,-5.692524775729509,-17.87338062184,-21.172587368546786,-12.26289803248834,51.17499999998836
312807.5197,-5.995904708545125,-19.307809607678223,-23.20524208368827,-13.598470325562388,51.17599999997765
312807.5207,-5.8138127365288765,-20.18319733940698,-24.377831596623288,-14.36199514107063,51.17699999996694
312807.5217,-5.198832626753252,-20.503802585605687,-24.708094886945716,-14.565580376126531,51.17799999995623
312807.5227,-4.226987216586336,-20.299023937198616,-24.249107452034924,-14.247755803324061,51.17899999994552
312807.5237,-2.9931812788729975,-19.620655589255648,-23.085465965582614,-13.470380442534147,51.179999999993015
312807.5247,-1.6053007823749934,-18.53875360646068,-21.327672254824883,-12.314049437429304,51.180999999982305
312807.5257,-0.17740388303035298,-17.13646076406249,-19.105121862006296,-10.872379879722024,51.181999999971595
312807.5267,1.177475582987147,-15.50421902921768,-16.558209197924512,-9.245646585931178,51.182999999960884
312807.5277,2.3543522077300443,-13.733840458557102,-13.830124218358891,-7.534286954382188,51.183999999950174
312807.5287,3.262592319731652,-11.9129062089001,-11.058929090294315,-5.832794385202385,51.18499999999767
312807.5297,3.8310096502339213,-10.11992005507719,-8.370466522216702,-4.224472624528786,51.18599999998696
312807.5307,4.011372737949591,-8.420561858190656,-5.872568060079856,-2.7774336597782825,51.18699999997625
312807.5317,3.7800845836633843,-6.865275946029778,-3.6509087547233983,-1.5420983875763299,51.18799999996554
312807.5327,3.1379579226979653,-5.4883002031863315,-1.7667057649039402,-0.5503143300679672,51.18899999995483
312807.5337,2.108178717619937,-4.308106336360815,-0.25629665588285416,0.18394768832978592,51.19000000000233
312807.5347,0.7327100501460362,-3.329093244029145,0.8675265590972182,0.6625010410044136,51.19099999999162
312807.5357,-0.9324766604090485,-2.5442658408596266,1.6126945132068313,0.8997619421292528,51.19199999998091
312807.5367,-2.8228590954534667,-1.938551261834246,2.0039287923272453,0.9188770747783562,51.1929999999702
312807.5377,-4.870975921795218,-1.4923603613207568,2.078155034739779,0.7476075434737691,51.19399999995949
312807.5387,-7.011660343388023,-1.1849984770230786,1.8797421794479272,0.41442029528487173,51.19499999994878
312807.5397,-9.186415336206904,-0.9975652522096475,1.4560297120395969,-0.0548035265284763,51.195999999996275
312807.5407,-11.346549488500251,-0.9150547111407669,0.8535410475463583,-0.639116301196322,51.196999999985565
312807.5417,-13.454827620323695,-0.9274660998965765,0.11518066046457581,-1.3236952663631003,51.197999999974854
312807.5427,-15.485548599059921,-1.0298528624124723,-0.7214138330821627,-2.09979974857415,51.198999999964144
312807.5437,-17.423128339430964,-1.2213594531671461,-1.6243323148196809,-2.963557621670026,51.199999999953434
312807.5447,-19.25942242685528,-1.5034109263550526,-2.566770042327255,-3.913777219000809,51.20100000000093
312807.5457,-20.990154505777127,-1.8773165622307513,-3.5255479397961205,-4.949091988521706,51.20199999999022
312807.5467,-22.61091027684221,-2.341616291089292,-4.479092588894905,-6.064822935817749,51.20299999997951
312807.5477,-24.113203099857376,-2.889530366634228,-5.405247462334314,-7.249980218552483,51.2039999999688
312807.5487,-25.4811109373896,-3.506865264876659,-6.279298016134683,-8.48481618796353,51.20499999995809
312807.5497,-26.68892603673907,-4.1706827691434984,-7.072560353080985,-9.739288374509606,51.20599999994738
312807.5507,-27.700153892227732,-4.848959218739687,-7.75181010005929,-10.97269761067814,51.20699999999488
312807.5517,-28.468056917636275,-5.5013560300260735,-8.279722928060334,-12.134642974630433,51.20799999998417
312807.5527,-28.93777487320082,-6.081101641935287,-8.616372193155168,-13.167293991317736,51.20899999997346
312807.5537,-29.04988477014565,-6.537861433535084,-8.721696108312765,-14.008835943084772,51.20999999996275
312807.5547,-28.74510479628121,-6.8213587437404195,-8.558721095986856,-14.597811112761597,51.21099999995204
312807.5557,-27.969715886624208,-6.885418823424831,-8.097223264778448,-14.877971193932623,51.211999999999534
312807.5567,-26.68118444315943,-6.692048177751107,-7.317437939320808,-14.803185420843823,51.212999999988824
312807.5577,-24.853429977463158,-6.215140987708339,-6.213396170577571,-14.341923060813913,51.213999999978114
312807.5587,-22.481196761165958,-5.443424972775263,-4.795481284713004,-13.480851216652065,51.214999999967404
312807.5597,-19.583058135408304,-4.382319848121873,-3.091857258733329,-12.227158034356444,51.21599999995669
312807.5607,-16.20269976296963,-3.054477047628229,-1.1485188675343676,-10.609321310585026,51.21699999994598
312807.5617,-12.408282790056054,-1.4988906681731782,0.9721581948583671,-8.676182897980597,51.21799999999348
312807.5627,-8.289864833995908,0.23139502519800814,3.194343223725683,-6.494346795913425,51.21899999998277
312807.5637,-3.9550388117381727,2.072819944332702,5.432979682275916,-4.144078105942652,51.21999999997206
312807.5647,0.4768809005042252,3.9557991716895966,7.599008269037933,-1.7140254762372478,51.22099999996135
312807.5657,4.881655313854177,5.809786856768185,9.605164152893558,0.7047932120369226,51.22199999995064
312807.5667,9.13733408651,7.568465914660884,11.371856336498963,3.025225202539735,51.22299999999814
312807.5677,13.131274725780342,9.174595051591934,12.832610947892697,5.169891804382448,51.22399999998743
312807.5687,16.7663711328764,10.584068006506506,13.93858393299213,7.076249336186328,51.22499999997672
312807.5697,19.965965602692425,11.768806417280675,14.661720923827225,8.700352419239998,51.22599999996601
312807.5707,22.6770394855836,12.7182115814996,14.996256956540028,10.018986456665264,51.2269999999553
312807.5717,24.87143778847734,13.439032067835475,14.958395877554677,11.029985417555837,51.227999999944586
312807.5727,26.545066766886464,13.953651316123036,14.584175029736604,11.750719059797794,51.228999999992084
312807.5737,27.71519337117494,14.296948075988428,13.9256894269877,12.21490447623874,51.22999999998137
312807.5747,28.416152910565003,14.512018515129478,13.04600484258702,12.468053945430457,51.23099999997066
312807.5757,28.693919243178435,14.645158908333133,12.013215839382443,12.561999320094499,51.23199999995995
312807.5767,28.600095741747246,14.740581203715479,10.894190097736395,12.54902009251526,51.23299999994924
312807.5777,28.18593499520677,14.83536310289522,9.748575616249752,12.476139259213019,51.23399999999674
312807.5787,27.49698569849726,14.955116415493404,8.62362837765341,12.380134372603978,51.23499999998603
312807.5797,26.56889721825588,15.110793696463984,7.550345992301347,12.28374209559664,51.23599999997532
312807.5807,25.424792359961184,15.296949295543909,6.541273905633864,12.193419609949117,51.23699999996461
312807.5817,24.074458448757845,15.491636562320807,5.590195823172983,12.098876268246048,51.2379999999539
312807.5827,22.515421494043174,15.65797063807486,4.673743479646098,11.974418226784778,51.2390000000014
312807.5837,20.735775932959907,15.747230363040615,3.754779370691873,11.781973781522787,51.23999999999069
312807.5847,18.718461963421202,15.703228052748917,2.787236794224632,11.47550452495834,51.24099999997998
312807.5857,16.44653141526591,15.46755593595493,1.7219606766729791,11.006372843153713,51.241999999969266
312807.5867,13.908836298040827,14.985234241823019,0.512993733762204,10.329142588873244,51.242999999958556
312807.5877,11.105522195125404,14.21024618960063,-0.8762948410132249,9.40724598128304,51.243999999947846
312807.5887,8.052716871593095,13.110453203466701,-2.4678319845703762,8.21796009065945,51.24499999999534
312807.5897,4.785872374654488,11.671438753165063,-4.264743715499072,6.7561996834292914,51.24599999998463
312807.5907,1.3613403441528489,9.898926070198472,-6.248952710697706,5.036743669804509,51.24699999997392
312807.5917,-2.1440761101679997,7.81954444247104,-8.380730565457542,3.0946593735053516,51.24799999996321
312807.5927,-5.635660150599673,5.479868634827429,-10.600285360952022,0.9838583298851683,51.2489999999525
312807.5937,-9.005275453995742,2.943812132482544,-12.831277153624699,-1.2261067998534125,51.25
312807.5947,-12.137494533132086,0.28860274285839005,-14.985974876922354,-3.4547290212477946,51.25099999998929
312807.5957,-14.916877350764935,-2.400305137880063,-16.9716145642237,-5.616302698235762,51.25199999997858
312807.5967,-17.23579834184454,-5.034935180759578,-18.69740506556929,-7.626232823363193,51.25299999996787
312807.5977,-19.002156396609177,-7.530614193886832,-20.08156416021818,-9.407330558488859,51.25399999995716
312807.5987,-20.14629948270958,-9.81141733442705,-21.05776111451183,-10.89552904918107,51.25499999994645
312807.5997,-20.626553860747453,-11.81477566823009,-21.58039203166901,-12.044507827754765,51.255999999993946
312807.6007,-20.43286201488043,-13.494872531437077,-21.628217227875776,-12.828816109025446,51.256999999983236
312807.6017,-19.588193005246765,-14.824572775011267,-21.206035916722588,-13.245225127099198,51.257999999972526
312807.6027,-18.14757926586168,-15.795768487375344,-20.34424925991391,-13.312203992503447,51.258999999961816
312807.6037,-16.19483741696419,-16.4181727257342,-19.096352155790086,-13.067586740133853,51.259999999951106
312807.6047,-13.837228770056296,-16.716735004931415,-17.534579540065167,-12.564663903662092,51.2609999999986
312807.6057,-11.19848980961255,-16.72797534541794,-15.74409737938759,-11.867074510234684,51.26199999998789
312807.6067,-8.410798259279947,-16.495626097286227,-13.816256815014963,-11.042980545360123,51.26299999997718
312807.6077,-5.606324358121031,-16.06602412729196,-11.84151029329895,-10.159065937068059,51.26399999996647
312807.6087,-2.909042513896511,-15.483705719235239,-9.902613700218206,-9.274910645279913,51.26499999995576
312807.6097,-0.42744388207104955,-14.787622386109755,-8.068706349288957,-8.438247138770977,51.26599999994505
312807.6107,1.7513004464327013,-14.008321659598817,-6.3907743626847875,-7.6815159515829645,51.26699999999255
312807.6117,3.5653139905023687,-13.166330568620793,-4.898870799221166,-7.020008151587095,51.26799999998184
312807.6127,4.9798873234464205,-12.271851745525568,-3.601300367240105,-6.451728019904451,51.26899999997113
312807.6137,5.987197876076963,-11.325745680501548,-2.4857933624400395,-5.958943976095767,51.26999999996042
312807.6147,6.604015581977563,-10.321641077822466,-1.5225098576367007,-5.5112356462656615,51.27099999994971
312807.6157,6.867704148349951,-9.248901458771275,-0.6685483929780387,-5.0697052074668445,51.271999999997206
312807.6167,6.830965776207088,-8.096091177999572,0.12650093735625395,-4.5919149395939955,51.272999999986496
312807.6177,6.5558697679590585,-6.854536049075316,0.9145085854203049,-4.037050153205427,51.273999999975786
312807.6187,6.107744962542987,-5.5215673134007535,1.742848911182021,-3.370792978351624,51.274999999965075
312807.6197,5.549499800516435,-4.103073142283959,2.649101370504848,-2.5694287775673392,51.275999999954365
312807.6207,4.936864855469818,-2.6150555236506534,3.656902954753377,-1.6227892469374063,51.27700000000186
312807.6217,4.314938693874074,-1.0839947966798873,4.773326048286099,-0.5357562327427284,51.27799999999115
312807.6227,3.7162709644648007,0.4540512058542688,5.988002399328732,0.6718040393595128,51.27899999998044
312807.6237,3.1605516886367524,1.9555539151622885,7.274041351231818,1.966649635527544,51.27999999996973
312807.6247,2.655809356118242,3.3726400370120957,8.590615730122265,3.305134899064407,51.28099999995902
312807.6257,2.20086905015876,4.656941079876722,9.886928795033002,4.637232294571645,51.28199999994831
312807.6267,1.7887001543465568,5.763790564073224,11.1071458219972,5.911188831204447,51.28299999999581
312807.6277,1.4102028237269932,6.656350046369312,12.195786540613383,7.078341831928195,51.2839999999851
312807.6287,1.0579506955759455,7.309243591707996,13.103037837037851,8.097606418604366,51.28499999997439
312807.6297,0.7294267043098845,7.711320727789858,13.789462921726658,8.93918323747625,51.28599999996368
312807.6307,0.429356655566852,7.867246491277044,14.229651280486582,9.58711587174616,51.28699999995297
312807.6317,0.17085388281464495,7.797726415844826,14.414465894218088,10.040444891232013,51.288000000000466
312807.6327,-0.024773720715428535,7.538303683913843,14.351688854671124,10.312847796165576,51.288999999989755
312807.6337,-0.12955018705967827,7.136802613116929,14.065028940425517,10.430807018727707,51.289999999979045
312807.6347,-0.11153558586595717,6.6496238317934635,13.59161863447253,10.430496424597196,51.290999999968335
312807.6357,0.061583167388533144,6.137209084010434,12.978277139911384,10.353705662664437,51.291999999957625
312807.6367,0.41841007796464685,5.6590765318298475,12.27693547108593,10.243218439549018,51.292999999946915
312807.6377,0.9797244995384082,5.268872484189153,11.539698010255353,10.138115748785989,51.29399999999441
312807.6387,1.7548050029708588,5.009888135764291,10.814044567159534,10.069482820438125,51.2949999999837
312807.6397,2.738630320416986,4.91144972010613,10.138655415843,10.056958326854636,51.29599999997299
312807.6407,3.9103133486849977,4.986511210375115,9.540271604437129,10.1064802019953,51.29699999996228
312807.6417,5.233004095274342,5.2306678881541,9.0318914895811,10.209462689659594,51.29799999995157
312807.6427,6.6553508716128515,5.62267737366611,8.61246347918213,10.343495849316028,51.29899999999907
312807.6437,8.114450677759033,6.126434740917441,8.268078838450275,10.474505988781733,51.29999999998836
312807.6447,9.540065540875677,6.694213609902938,7.974513051760788,10.560168570136607,51.30099999997765
312807.6457,10.859747199691606,7.270868590607837,7.700825426683507,10.554238688564133,51.30199999996694
312807.6467,12.004411718979323,7.798607353790681,7.413618443463368,10.411370872451132,51.30299999995623
312807.6477,12.913848865349014,8.22189125949944,7.081491726466232,10.091949045162341,51.30399999994552
312807.6487,13.54164456196283,8.49201654445792,6.679207147421178,9.566444174075327,51.304999999993015
312807.6497,13.859039707748456,8.570964078282616,6.191113267985456,8.818861848657335,51.305999999982305
312807.6507,13.857341251388274,8.43418098576563,5.613455818006226,7.848930453879592,51.306999999971595
312807.6517,13.548633071338905,8.072064512045058,4.95531816668211,6.672804074713574,51.307999999960884
312807.6527,12.964692431522694,7.490046800499932,4.23807981906499,5.3222006256586205,51.308999999950174
312807.6537,12.15418734426366,6.707316124716748,3.4934371665820554,3.8420504904470607,51.30999999999767
312807.6547,11.178394622725275,5.754342114175081,2.7601830857969,2.2868788482320563,51.31099999998696
312807.6557,10.105821651556033,4.66948669080541,2.080074909754549,0.7162711559467521,51.31199999997625
312807.6567,9.006222792014793,3.4950676198198445,1.4932201063398813,-0.8101366558145818,51.31299999996554
312807.6577,7.944563047407803,2.2732894796834118,1.0334653074692777,-2.237653099206488,51.31399999995483
312807.6587,6.975490743468491,1.0424628741050763,0.724281121043334,-3.5210208326802075,51.31500000000233
312807.6597,6.138836196976822,-0.16610360560508675,0.5755913857626116,-4.627959357876167,51.31599999999162
312807.6607,5.4565585643086925,-1.3302290600657884,0.5819052645866324,-5.541411529614472,51.31699999998091
312807.6617,4.931427083438945,-2.4377999081670123,0.7219826016935292,-6.26027241561575,51.3179999999702
312807.6627,4.547558618946697,-3.4864460348110486,0.9601099322017735,-6.798529377165485,51.31899999995949
312807.6637,4.2727564968117555,-4.482009976815278,1.2489016789981895,-7.182900422849259,51.31999999994878
312807.6647,4.062423100884988,-5.4359938181753,1.5333847268035747,-7.449208308007356,51.320999999996275
312807.6657,3.8646672869961503,-6.362277928501802,1.755990511277577,-7.637855607544755,51.321999999985565
312807.6667,3.6261120780871425,-7.273485380122009,1.8619806483232346,-7.788858347369817,51.322999999974854
312807.6677,3.297839645781451,-8.177407684934101,1.804780094420115,-7.9369434422927885,51.323999999964144
312807.6687,2.840896040828207,-9.073907010713484,1.5506914744378486,-8.10721321666183,51.324999999953434
312807.6697,2.2308190789317544,-9.952667062651864,1.0825160281232242,-8.311828594549915,51.32600000000093
312807.6707,1.4607454142804732,-10.792083357650448,0.40170592196572363,-8.548065929542418,51.32699999999022
312807.6717,0.5427883155695358,-11.559471511225423,-0.4711899649567496,-8.797970105264657,51.32799999997951
312807.6727,-0.49245699607605276,-12.212640297749005,-1.4978624631059387,-9.029671203355042,51.3289999999688
312807.6737,-1.5982442849953824,-12.702737530114085,-2.6252650926149093,-9.200268715953712,51.32999999995809
312807.6747,-2.715631357712297,-12.978144867597502,-3.7900641838866784,-9.26003180853091,51.33099999994738
312807.6757,-3.7786913426320616,-12.989085536892825,-4.924116529550812,-9.157531633197552,51.33199999999488
312807.6767,-4.720491792529061,-12.692527805511713,-5.9604721114962755,-8.845225084872729,51.33299999998417
312807.6777,-5.479279493079073,-12.056925080003941,-6.839344123189111,-8.284958176144057,51.33399999997346
312807.6787,-6.004288940440224,-11.066335148800041,-7.513486304028262,-7.452856516895759,51.33499999996275
312807.6797,-6.260628118152216,-9.723506584708979,-7.952468985806347,-6.343120504274792,51.33599999995204
312807.6807,-6.232782871044714,-8.051605670434814,-8.145445509523546,-4.97033916118027,51.336999999999534
312807.6817,-5.926412239590632,-6.094374570692635,-8.102140365248875,-3.3700700773300043,51.337999999988824
312807.6827,-5.368268817498069,-3.914649911881354,-7.851956281187122,-1.597591013232206,51.338999999978114
312807.6837,-4.60425485455508,-1.5913174664006517,-7.441273740998643,0.27510352030026286,51.339999999967404
312807.6847,-3.695799395192094,0.7850805037602706,-6.929186220483124,2.1638258571607167,51.34099999995669
312807.6857,-2.7148974536865014,3.11774676715421,-6.382061585778264,3.977864030983315,51.34199999994598
312807.6867,-1.7382742222664376,5.309609510170103,-5.867430528637194,5.626315578936277,51.34299999999348
312807.6877,-0.8412140769002836,7.269399061582997,-5.447766092376774,7.0245451276281825,51.34399999998277
312807.6887,-0.0916186265854168,8.917329758162218,-5.174728261347578,8.100213894392448,51.34499999997206
312807.6897,0.4551716949170961,10.189931671260064,-5.0844033552659385,8.798369518622119,51.34599999996135
312807.6907,0.7603386217395995,11.043653899215137,-5.193973889052154,9.085171871548203,51.34699999995064
312807.6917,0.8039989731979634,11.456971783955659,-5.500119703322392,8.949956193194959,51.34799999999814
312807.6927,0.5858922325857604,11.430864161775562,-5.979288504676879,8.405486957086671,51.34899999998743
312807.6937,0.12433381758231836,10.987670888505301,-6.5897990735160334,7.486419698019789,51.34999999997672
312807.6947,-0.5464083937866081,10.168481749679476,-7.275570013589116,6.246148045515122,51.35099999996601
312807.6957,-1.3800083216117074,9.029332238333119,-7.971117244775124,4.752354244689262,51.3519999999553
312807.6967,-2.3228249897143303,7.636577999100074,-8.60734862511291,3.081690310344237,51.352999999944586
312807.6977,-3.3190011348870803,6.061879237499616,-9.117614849241654,1.3140836501489779,51.353999999992084
312807.6987,-4.315401863363087,4.377243958317336,-9.443458378975187,-0.47282032341125046,51.35499999998137
312807.6997,-5.265908712264102,2.650553532204155,-9.539537856399189,-2.208596512390357,51.35599999997066
312807.7007,-6.134663610090509,0.9419290021189615,-9.37729034721944,-3.83395318606692,51.35699999995995
312807.7017,-6.897976421254529,-0.6988011990063863,-8.947019266039515,-5.303326802570834,51.35799999994924
312807.7027,-7.544756539626211,-2.233391629480186,-8.25824950252667,-6.586004544003495,51.35899999999674
312807.7037,-8.075488168396276,-3.6352181308107006,-7.3383580406786235,-7.665771007225557,51.35999999998603
312807.7047,-8.499924102160124,-4.888181073675601,-6.229652048564266,-8.53922249134565,51.36099999997532
312807.7057,-8.833808096564555,-5.984702024666586,-4.985211257714136,-9.213021237800671,51.36199999996461
312807.7067,-9.095037436265832,-6.923126904638255,-3.663923653096875,-9.70046017273727,51.3629999999539
312807.7077,-9.299734735032063,-7.704898302984994,-2.325212535798395,-10.017766729980533,51.3640000000014
312807.7087,-9.458705481627318,-8.331869630298282,-1.0239726472247228,-10.180586864432073,51.36499999999069
312807.7097,-9.57471463933143,-8.804103733151974,0.19379815950969634,-10.201056685291784,51.36599999997998
312807.7107,-9.640926137461827,-9.118432046904863,1.2942637221412978,-10.08579318938539,51.366999999969266
312807.7117,-9.640722492662139,-9.267954616815018,2.2576205801404514,-9.835025536773527,51.367999999958556
312807.7127,-9.548970985872105,-9.242546614458078,3.0784299849341736,-9.442955759676009,51.368999999947846
312807.7137,-9.33464320676762,-9.030315457275178,3.7644236323344984,-8.899296531789403,51.36999999999534
312807.7147,-8.964542717027438,-8.619837115226751,4.333950979711867,-8.191798286152839,51.37099999998463
312807.7157,-8.407766746943466,-8.002902845464279,4.8123730103126565,-7.309462566915617,51.37199999997392
312807.7167,-7.640435646849193,-7.17743876400905,5.227812628481157,-6.24605501924387,51.37299999996321
312807.7177,-6.650178094687088,-6.1502277753592915,5.6067351009199395,-5.003488625555452,51.3739999999525
312807.7187,-5.43986606343613,-4.939070218899087,5.969846836541113,-3.594650348906055,51.375
312807.7197,-4.030151408686373,-3.5740658976419657,6.328765826533372,-2.04529233715359,51.37599999998929
312807.7207,-2.4604606247825065,-2.097781647006203,6.683835682799519,-0.39469777353757896,51.37699999997858
312807.7217,-0.7882461308159276,-0.5641773847060926,7.023335463280983,1.3050473286890525,51.37799999996787
312807.7227,0.9135420756782872,0.9637110729403437,7.3241912420787365,2.9912035689257066,51.37899999995716
312807.7237,2.5606273350602216,2.4172047460139554,7.554137243481934,4.593828297336154,51.37999999994645
312807.7247,4.062918606640608,3.7262816937021968,7.6751201517670244,6.0402668336827805,51.380999999993946
312807.7257,5.330923955953194,4.824397489785389,7.647605486606759,7.2603088595792045,51.381999999983236
312807.7267,6.282525146692983,5.653411270903794,7.435343429887377,8.191552569387914,51.382999999972526
312807.7277,6.849522485066115,6.168174063186419,7.010093748600339,8.784481122737276,51.383999999961816
312807.7287,6.983363048527613,6.340349959739277,6.35580177299106,9.006765841257307,51.384999999951106
312807.7297,6.659524496045165,6.161096469766497,5.4717611445725804,8.846368235833785,51.3859999999986
312807.7307,5.880135893986497,5.642323304818474,4.374390544451588,8.313113450538687,51.38699999998789
312807.7317,4.67456668211061,4.8163706462411975,3.0973823833434375,7.438541930750578,51.38799999997718
312807.7327,3.0978914283588765,3.7340872987230402,1.6901390439470076,6.274001545825765,51.38899999996647
312807.7337,1.227325141770165,2.4614330116919665,0.21458149764035017,4.8871043129746505,51.38999999995576
312807.7347,-0.8430956897278394,1.0748640186647034,-1.2594205503919012,3.3568248001833716,51.39099999994505
312807.7357,-3.009154257257367,-0.34412636273272834,-2.659604613441637,1.7676464826653748,51.39199999999255
312807.7367,-5.163865893969276,-1.7148602740516932,-3.917357304627792,0.2032552039495482,51.39299999998184
312807.7377,-7.205041332458188,-2.963229897649744,-4.973680614131734,-1.2596737430390108,51.39399999997113
312807.7387,-9.042366336680896,-4.026868293114655,-5.784512715367878,-2.557051443875554,51.39499999996042
312807.7397,-10.603406429128007,-4.859300431178429,-6.324879665562882,-3.6418241926807995,51.39599999994971
312807.7407,-11.838041666333742,-5.432728074379822,-6.591451459331062,-4.4869048005952274,51.396999999997206
312807.7417,-12.720976864753586,-5.739223632254498,-6.603215234122382,-5.086331983744058,51.397999999986496
312807.7427,-13.252144394074278,-5.790250153388979,-6.400147298138343,-5.454563701226615,51.398999999975786
312807.7437,-13.455003829743946,-5.6145740458627715,-6.03994843679704,-5.62397980519314,51.399999999965075
312807.7447,-13.372928210586721,-5.254780080430666,-5.593086612426691,-5.640832247261744,51.400999999954365
312807.7457,-13.06403343157053,-4.762721477827552,-5.136550855664679,-5.560022122442254,51.40200000000186
312807.7467,-12.594940276465794,-4.194330027133067,-4.746844799196422,-5.439188831042559,51.40299999999115
312807.7477,-12.03404583524328,-3.6042637791264633,-4.492826087975631,-5.332657706043636,51.40399999998044
312807.7487,-11.444914947049991,-3.0408781940551997,-4.429021320992117,-5.285802931153622,51.40499999996973
312807.7497,-10.88038026072199,-2.5419701588043173,-4.590012797883498,-5.330341579663368,51.40599999995902
312807.7507,-10.377864139188658,-2.131666702741095,-4.986406003384802,-5.480986105710309,51.40699999994831
312807.7517,-9.956314534081713,-1.8187190703137872,-5.602753320546227,-5.733755054858459,51.40799999999581
312807.7527,-9.614991914764659,-1.5963287164132742,-6.3976420420517295,-6.066087222499534,51.4089999999851
312807.7537,-9.334170211980519,-1.4434875444268698,-7.305968585657508,-6.438737562761532,51.40999999997439
312807.7547,-9.077638027718269,-1.3276739506021067,-8.243232827432518,-6.799269520166055,51.41099999996368
312807.7557,-8.796723623985926,-1.2086221872455873,-9.111513640876478,-7.086813403059464,51.41199999995297
312807.7567,-8.435433468305057,-1.042786739790251,-9.806644560532115,-7.237647370154931,51.413000000000466
312807.7577,-7.9362014765505995,-0.7880645793014185,-10.22600952338906,-7.191086866084317,51.413999999989755
312807.7587,-7.245702579303238,-0.408321456490915,-10.276331341295482,-6.8951461414805495,51.414999999979045
312807.7597,-6.32019307539823,0.12270506532213087,-9.880833547000389,-6.311463400962,51.415999999968335
312807.7607,-5.129899600828043,0.8184864337078582,-8.985218035144454,-5.4190559451614275,51.416999999957625
312807.7617,-3.6620817856351615,1.6780283665945213,-7.562010059817662,-4.21658579178806,51.417999999946915
312807.7627,-1.922530024046529,2.685577795782068,-5.612967954893139,-2.7229583947855,51.41899999999441
312807.7637,0.06458456247317275,3.8117142276546407,-3.1694234973995092,-0.9762333974837395,51.4199999999837
312807.7647,2.258431399307951,5.015695639320586,-0.2905943490090644,0.9690181804950448,51.42099999997299
312807.7657,4.604588676293395,6.2488110767215375,2.9399236700216953,3.0456360959882196,51.42199999996228
312807.7667,7.039112474744476,7.4584000439516105,6.419134594389606,5.178687070181054,51.42299999995157
312807.7677,9.49317647021327,8.592141156365653,10.030635240012046,7.290717568607699,51.42399999999907
312807.7687,11.897812625518027,9.602194524822565,13.65110753456296,9.306958842176718,51.42499999998836
312807.7697,14.18829213475492,10.448805188570972,17.156784207794757,11.16002011546644,51.42599999997765
312807.7707,16.30774106128859,11.103035868274977,20.429400251256723,12.793670388622468,51.42699999996694
312807.7717,18.209680274925795,11.548389921401851,23.361224665407303,14.165411226372903,51.42799999995623
312807.7727,19.859304150775685,11.781200164172795,25.85888328347089,15.247671532383889,51.42899999994552
312807.7737,21.233453877961537,11.809784602243903,27.845821225052237,16.02759752851586,51.429999999993015
312807.7747,22.319384416409374,11.652493567940436,29.263398225815617,16.505552646892436,51.430999999982305
312807.7757,23.112554326701883,11.334882066936022,30.070746732132655,16.692568676042107,51.431999999971595
312807.7767,23.6137714692672,10.886325552875668,30.243637359805128,16.607088758903515,51.432999999960884
312807.7777,23.82609424926381,10.336448674098639,29.772677716443365,16.271405031603067,51.433999999950174
312807.7787,23.751910804265467,9.711749906460588,28.66121095589515,15.708212914327687,51.43499999999767
312807.7797,23.39059492729465,9.032779334728147,26.923276480059762,14.93767877781156,51.43599999998696
312807.7807,22.73706997185714,8.312164996700421,24.58194838939398,13.975350873970212,51.43699999997625
312807.7817,21.78150740608449,7.553691579730772,21.668283648276038,12.831142198699052,51.43799999996554
312807.7827,20.51025582139079,6.752523227399835,18.22100144712693,11.50948898434099,51.43899999995483
312807.7837,18.907952584287507,5.896541154489763,14.286890758980674,10.01065283658774,51.44000000000233
312807.7847,16.960628898806466,4.968648938576697,9.921818975928852,8.333002263397915,51.44099999999162
312807.7857,14.65949469263494,3.949795673354498,5.1921051499083966,6.475994286980681,51.44199999998091
312807.7867,12.004995739368132,2.8223900245665905,0.17593961840508499,4.443491054123797,51.4429999999702
312807.7877,9.010682126952704,1.5737344581870742,-5.035512350634043,2.246998986667853,51.44399999995949
312807.7887,5.706420907357926,0.19910300586904298,-10.337685794983127,-0.09158571711964515,51.44499999994878
312807.7897,2.140528147534021,-1.295881405112123,-15.613188629865686,-2.5381006971995546,51.445999999996275
312807.7907,-1.619516632183517,-2.8938459723713152,-20.733604063824632,-5.045404178072426,51.446999999985565
312807.7917,-5.487985414585422,-4.565422587400647,-25.562635955073382,-7.554004592952829,51.447999999974854
312807.7927,-9.363506932144816,-6.2702214148957385,-29.960569141839702,-9.994077070048922,51.448999999964144
312807.7937,-13.13326111875394,-7.958963778446514,-33.789868492504645,-12.288767130766084,51.449999999953434
312807.7947,-16.67850449769774,-9.576596440005398,-36.92160048553567,-14.358544998925726,51.45100000000093
312807.7957,-19.88103148901184,-11.066108056433789,-39.242244673915216,-16.126257683615542,51.45199999999022
312807.7967,-22.630074135761877,-12.37269450561799,-40.6603825169805,-17.522442562553945,51.45299999997951
312807.7977,-24.829085149085742,-13.447880526574577,-41.11271745878238,-18.490424467890822,51.4539999999688
312807.7987,-26.401842779216732,-14.253204884229191,-40.56889799966246,-18.99072307423041,51.45499999995809
312807.7997,-27.297362192271578,-14.763115326653628,-39.034684951091116,-19.00434890682233,51.45599999994738
312807.8007,-27.49319298387431,-14.966794281209818,-36.55311998444502,-18.53466005150873,51.45699999999488
312807.8017,-26.99681759061652,-14.868739264561984,-33.203505109172994,-17.60757891977728,51.45799999998417
312807.8027,-25.8450280677632,-14.488043191750382,-29.09817811938647,-16.270117041609087,51.45899999997346
312807.8037,-24.101333601384702,-13.856447098217991,-24.377251080253025,-14.587311430209459,51.45999999996275
312807.8047,-21.8516215499751,-13.015358476640971,-19.201650411014626,-12.637823376466407,51.46099999995204
312807.8057,-19.19844446180384,-12.012130301239297,-13.744941666629812,-10.508575075931335,51.461999999999534
312807.8067,-16.254420067073355,-10.895968502879365,-8.18452575492203,-8.288888907929884,51.462999999988824
312807.8077,-13.13529978544907,-9.7138716766944,-2.6928459092596295,-6.064639514656738,51.463999999978114
312807.8087,-9.953277411878739,-8.50700230539651,2.5707590193042855,-3.9129254198773102,51.464999999967404
312807.8097,-6.811072092223766,-7.307843982227104,7.466979373883754,-1.8977149327817735,51.46599999995669
312807.8107,-3.7972325059663765,-6.138418301337544,11.88177274211133,-0.06682545901963503,51.46699999994598
312807.8117,-0.9829812531371718,-5.0097261970197495,15.729601438534173,1.549534624034587,51.46799999999348
312807.8127,1.5792372925590974,-3.9224523891755574,18.954532787747127,2.938583967097366,51.46899999998277
312807.8137,3.8555103439607357,-2.8688408758172406,21.529252169707636,4.103226913225449,51.46999999997206
312807.8147,5.828679363490783,-1.8355272992411977,23.45221726188107,5.058983148475425,51.47099999996135
312807.8157,7.4953428120652825,-0.8070129204259235,24.743335595537573,5.829944658330804,51.47199999995064
312807.8167,8.862057737706232,0.23060474408610118,25.438662244520195,6.444206371016364,51.47299999999814
312807.8177,9.941221780855944,1.2860605338359572,25.584679837394482,6.9292621471444305,51.47399999998743
312807.8187,10.747129044016983,2.359914200483497,25.23273360869614,7.307853856940888,51.47499999997672
312807.8197,11.292653575316486,3.442458949802405,24.434149697075178,7.5947086340817345,51.47599999996601
312807.8207,11.586927563962298,4.512808813821138,23.236470491219308,7.794503302506628,51.4769999999553
312807.8217,11.634257100006629,5.539310538967092,21.681106437006573,7.901265039098878,51.477999999944586
312807.8227,11.434369651949208,6.481291986500127,19.80254305808386,7.899266514276834,51.478999999992084
312807.8237,10.98392984421834,7.292021973633086,17.629071143212425,7.76531706810275,51.47999999998137
312807.8247,10.279110113148773,7.9226296165727375,15.184844097142712,7.4722045395754515,51.48099999997066
312807.8257,9.318876026100606,8.32662723526592,12.492925503783061,6.992919823214196,51.48199999995995
312807.8267,8.10855573371841,8.464610244670451,9.578885796172987,6.3052103326689215,51.48299999994924
312807.8277,6.663218758715295,8.308677488179823,6.474449644066736,5.395967955684842,51.48399999999674
312807.8287,5.010396015819465,7.846129539726096,3.220690664483747,4.264965986690144,51.48499999998603
312807.8297,3.191730363727259,7.08205972096138,-0.12968243223902243,2.927517257981856,51.48599999997532
312807.8307,1.2632497312345305,6.040547866531941,-3.5113090693444975,1.4157267940260223,51.48699999996461
312807.8317,-0.7059070586829694,4.764291430850866,-6.846657178646132,-0.2218529464045343,51.4879999999539
312807.8327,-2.636321855471078,3.312650699272868,-10.048070856504728,-1.9222008531998431,51.4890000000014
312807.8337,-4.442530673413675,1.7582312246946312,-13.021288948571215,-3.6113157902524597,51.48999999999069
312807.8347,-6.038349009576014,0.18226326610651367,-15.670179530757112,-5.2089403071570315,51.49099999997998
312807.8357,-7.342850958224324,-1.3308480726462866,-17.902300284158194,-6.634119088722066,51.491999999969266
312807.8367,-8.286476205261259,-2.699348039332111,-19.634797114174887,-7.8111035683172405,51.492999999958556
312807.8377,-8.816700693523131,-3.849839952904372,-20.80010302406519,-8.675072080776566,51.493999999947846
312807.8387,-8.902722855878952,-4.722389061776544,-21.350901595040366,-9.17714342301952,51.49499999999534
312807.8397,-8.538687358854574,-5.274587432706833,-21.263874671476994,-9.288220218555399,51.49599999998463
312807.8407,-7.745086554776856,-5.48423620879384,-20.54185702833051,-9.001301699272341,51.49699999997392
312807.8417,-6.568135805979882,-5.3504246997548455,-19.214162201303505,-8.33204374212895,51.49799999996321
312807.8427,-5.077098219875047,-4.892929067152371,-17.335009770838557,-7.3175041348675975,51.4989999999525
312807.8437,-3.3597203606834185,-4.150003419754386,-14.980159180549956,-6.013177842439457,51.5
312807.8447,-1.5161155608959718,-3.1747788778386345,-12.242021655393577,-4.488584564855097,51.50099999998929
312807.8457,0.34842124977777883,-2.0306082401610404,-9.223663683139588,-2.821804028551662,51.50199999997858
312807.8467,2.131078085100445,-0.7857839127416871,-6.0322188558304966,-1.093450459185214,51.50299999996787
312807.8477,3.7390280817882466,0.4918935789435395,-2.7722793448184846,0.619372682512897,51.50399999995716
312807.8487,5.096133122722847,1.740214326062637,0.46016166892523486,2.2485981352873243,51.50499999994645
312807.8497,6.1482764992162195,2.9068829920007566,3.5826999501250687,3.7397133984810753,51.505999999993946
312807.8507,6.866868828845419,3.952706964522149,6.53003020104431,5.054883855212004,51.506999999983236
312807.8517,7.250230434291267,4.853401550307504,9.255707760969823,6.1744268529999555,51.507999999972526
312807.8527,7.322740217729807,5.599900682103332,11.732063555551175,7.096541590555274,51.508999999961816
312807.8537,7.131838513972074,6.197205857343515,13.94835311833934,7.835366362018502,51.509999999951106
312807.8547,6.743161195055642,6.661945014684908,15.907391767392765,8.4175936330871,51.5109999999986
312807.8557,6.234246832781521,7.0189334822574185,17.62107454093909,8.878009301393897,51.51199999998789
312807.8567,5.687382765091515,7.297119563845689,19.10528689680632,9.254422296032999,51.51299999997718
312807.8577,5.182228025345315,7.5253492905558454,20.374769824437088,9.582504859514586,51.51399999996647
312807.8587,4.788864737674277,7.728393643514102,21.438505060497537,9.891067300739888,51.51499999995576
312807.8597,4.561883715138013,7.9236466397858,22.296132070971996,10.19824348394354,51.51599999994505
312807.8607,4.536009165429441,8.118827799927484,22.935803342031317,10.508969524481342,51.51699999999255
312807.8617,4.723621295425623,8.310915278238031,23.333738278562578,10.814007268551649,51.51799999998184
312807.8627,5.1143580988391335,8.486407054376421,23.455562668287328,11.090608900660204,51.51899999997113
312807.8637,5.676785470549247,8.622869853686572,23.2593369805156,11.304754570426214,51.51999999996042
312807.8647,6.36193604891085,8.691602512797537,22.700000604371684,11.41473728114749,51.52099999994971
312807.8657,7.108349432429335,8.661125474169507,21.734807766673015,11.375733810409784,51.521999999997206
312807.8667,7.8481151293375975,8.501122343905966,20.329219306170543,11.144900373092721,51.522999999986496
312807.8677,8.513336690195313,8.18641146580473,18.462653978671458,10.686476897747365,51.523999999975786
312807.8687,9.042408179388415,7.700520023245761,16.133499928707355,9.976379591105696,51.524999999965075
312807.8697,9.3855243615684,7.038470867657023,13.362842278939809,9.005808414066284,51.525999999954365
312807.8707,9.508930137412301,6.20846942958024,10.196471716544783,7.7834897086446855,51.52700000000186
312807.8717,9.397544190794118,5.232287141618801,6.704891546035001,6.336305469154249,51.52799999999115
312807.8727,9.055753614312748,4.144268074165682,2.9812227036552716,4.708216929182707,51.52899999998044
312807.8737,8.506354613650014,2.98902411641974,-0.862899462516669,2.957556071248423,51.52999999996973
312807.8747,7.787791989166264,1.8180173200417882,-4.703154688178061,1.15291820582438,51.53099999995902
312807.8757,6.950009939795125,0.6853427266082628,-8.409647558858616,-0.6319736586090071,51.53199999994831
312807.8767,6.049353691463197,-0.3568903393492725,-11.854727340619611,-2.3239597928611317,51.53299999999581
312807.8777,5.143043697939597,-1.2631344706361156,-14.920875315632317,-3.856160559231934,51.5339999999851
312807.8787,4.283774303179997,-1.998491173447248,-17.50800365025994,-5.173184033065264,51.53499999997439
312807.8797,3.5149645088337493,-2.5419032644399633,-19.539556842758522,-6.2353357116682995,51.53599999996368
312807.8807,2.867112875060626,-2.888128774352954,-20.966909977218965,-7.021435336909089,51.53699999995297
312807.8817,2.355589588104058,-3.0482864323162193,-21.771707713319234,-7.5299780403690235,51.538000000000466
312807.8827,1.9800485163284478,-3.0488982889689695,-21.965970085977517,-7.778534855870487,51.538999999989755
312807.8837,1.7254757763164112,-2.929498922467608,-21.58998860037133,-7.801455822912649,51.539999999979045
312807.8847,1.564725548030807,-2.73901896536464,-20.70823017362468,-7.646101078414758,51.540999999968335
312807.8857,1.4622450663349422,-2.5312698874424955,-19.4036389418387,-7.367965717234829,51.541999999957625
312807.8867,1.3785735639047576,-2.3599453800203087,-17.77086069005393,-7.025169117400617,51.542999999946915
312807.8877,1.2751259335249585,-2.2736035864189814,-15.908999222653708,-6.672838649808882,51.54399999999441
312807.8887,1.1187481755661406,-2.3110989135699156,-13.914540797532231,-6.357925459573182,51.5449999999837
312807.8897,0.8855604343598817,-2.497891658209391,-11.875049816490435,-6.1149455810415505,51.54599999997299
312807.8907,0.5636815122116569,-2.843581984261639,-9.864150074830318,-5.963047398011017,51.54699999996228
312807.8917,0.15454817171891372,-3.3408997072871047,-7.938170167795803,-5.904675428175898,51.54799999995157
312807.8927,-0.3273088355515214,-3.966243945063808,-6.134662719949629,-5.925943428538884,51.54899999999907
312807.8937,-0.8560072931411588,-4.681720227171097,-4.472821635442134,-5.998662248351889,51.54999999998836
312807.8947,-1.3973894147056296,-5.438481255953804,-2.9556377112220784,-6.083806083797135,51.55099999997765
312807.8957,-1.91310406026495,-6.181054823155628,-1.573468546090319,-6.136060618880921,51.55199999996694
312807.8967,-2.365259398733313,-6.852250240558763,-0.3085695032822435,-6.1089916483204005,51.55299999995623
312807.8977,-2.721145547449784,-7.398181900988473,0.8599492424447643,-5.96031338690273,51.55399999994552
312807.8987,-2.9575131614072214,-7.772940280391216,1.9513013493808071,-5.6567275340310585,51.554999999993015
312807.8997,-3.063933151541363,-7.9424775365496085,2.9788702857174076,-5.177848021715407,51.555999999982305
312807.9007,-3.044851138035898,-7.8873531829746515,3.9471707968270264,-4.518817880309427,51.556999999971595
312807.9017,-2.9200793960261286,-7.6040974174122695,4.850246027733303,-3.691354797792089,51.557999999960884
312807.9027,-2.72362629479485,-7.105084586485696,5.671661147433542,-2.7231179335063036,51.558999999950174
312807.9037,-2.5009330234823084,-6.416953789093094,6.386079900847192,-1.6554550542389872,51.55999999999767
312807.9047,-2.30475280195828,-5.577753660507068,6.9622386392937665,-0.5397497363214463,51.56099999998696
312807.9057,-2.190052138444274,-4.633110294553264,7.366980382157343,0.5672725619066834,51.56199999997625
312807.9067,-2.2084222905266113,-3.6318092025987982,7.569894643585146,1.6088169763530766,51.56299999996554
312807.9077,-2.402550594163619,-2.621235275995341,7.548038887119207,2.533349402470845,51.56399999995483
312807.9087,-2.8013089830660043,-1.6431238352618045,7.29020162554866,3.2994564643424122,51.56500000000233
312807.9097,-3.4159693309670494,-0.7300402549883716,6.800207055347907,3.879752359786744,51.56599999999162
312807.9107,-4.237956175333143,0.09707102025206263,6.098852847321203,4.2634422240417935,51.56699999998091
312807.9117,-5.238406005031827,0.8300373425131073,5.22420728034848,4.457282793289788,51.5679999999702
312807.9127,-6.36963196599165,1.4732104454462767,4.230155994416349,4.4848380233189,51.56899999995949
312807.9137,-7.568409895995446,2.041864478435538,3.1832659703254325,4.384094564471835,51.56999999994878
312807.9147,-8.760823785103177,2.5594204026707486,2.1582072635073253,4.203663225097484,51.570999999996275
312807.9157,-9.86825348562303,3.053796563288353,1.232124243286868,3.9979319697651925,51.571999999985565
312807.9167,-10.813970137935327,3.553274117062106,0.47846240576127713,3.821639926873711,51.572999999974854
312807.9177,-11.529737146900954,4.08231603530454,-0.03917739336778892,3.7244001260655106,51.573999999964144
312807.9187,-11.961803709065787,4.657784653664918,-0.27257509636807137,3.745705519441285,51.574999999953434
312807.9197,-12.075725466437383,5.285964549625754,-0.19328236199192725,3.910907555485884,51.57600000000093
312807.9207,-11.859548817774312,5.960718605953714,0.20456803864541037,4.22856355004474,51.57699999999022
312807.9217,-11.325042445103623,6.662993170844057,0.9033278137508599,4.689417364030837,51.57799999997951
312807.9227,-10.5068380081768,7.361754194444928,1.8628945083744044,5.267120243373667,51.5789999999688
312807.9237,-9.45953493575346,8.016293208597832,3.0237034215199183,5.920630400903323,51.57999999995809
312807.9247,-8.253013542115006,8.579704002710274,4.311403511515471,6.598067333092938,51.58099999994738
312807.9257,-6.966368347491715,9.003211331677013,5.642811487550937,7.241655702797012,51.58199999999488
312807.9267,-5.681003523031903,9.240943678140274,6.932616593546446,7.793287518457931,51.58299999998417
312807.9277,-4.473512401621623,9.254691766937457,8.100236234513877,8.200170522986832,51.58399999997346
312807.9287,-3.40898531834895,9.018188217818002,9.076206622526255,8.420021003363718,51.58499999996275
312807.9297,-2.53535246153227,8.520482208791512,9.807534651406625,8.425301538781628,51.58599999995204
312807.9307,-1.8792743987749538,7.768062786447459,10.261533296402224,8.206094408343978,51.586999999999534
312807.9317,-1.4439513097545227,6.785498018879315,10.427803848049146,7.771330773050891,51.587999999988824
312807.9327,-1.2090460285429359,5.614493816571061,10.31820080951357,7.148251883330458,51.588999999978114
312807.9337,-1.1327223254897534,4.311423004809584,9.964802905033418,6.380146458689632,51.589999999967404
312807.9347,-1.1556066489679788,2.9435181925201306,9.416098545364195,5.522571963023309,51.59099999995669
312807.9357,-1.2063069275064744,1.5840475637152767,8.731758756444561,4.638411129763748,51.59199999994598
312807.9367,-1.2079823234218896,0.3068889709897966,7.976499457258499,3.792225091486389,51.59299999999348
312807.9377,-1.0853659901227615,-0.8190245383448838,7.213615985149227,3.044430404704042,51.59399999998277
312807.9387,-0.7716072846598668,-1.7349009067634762,6.498798425589783,2.445842940907413,51.59499999997206
312807.9397,-0.21432350946708204,-2.3964717440597663,5.87480442547657,2.033095676441723,51.59599999996135
312807.9407,0.6196685689137995,-2.7771803077823045,5.367480067139958,1.825353444995357,51.59699999995064
312807.9417,1.7413425059391066,-2.8699029960075193,4.98348752993884,1.8226239052852495,51.59799999999814
312807.9427,3.138409830553345,-2.687066943327208,4.709933479050877,2.005812316648935,51.59899999998743
312807.9437,4.776277750364937,-2.259172901864663,4.515910303821335,2.3385028457862034,51.59999999997672
312807.9447,6.600882669014691,-1.6318774596146541,4.35578094733717,2.7702869171719233,51.60099999996601
312807.9457,8.543094640885757,-0.8619180517013242,4.17387446698679,3.2413151291484312,51.6019999999553
312807.9467,10.524249229650637,-0.012265920590477914,3.9101291901269875,3.6876372341931187,51.602999999944586
312807.9477,12.462269486640743,0.8530433601918072,3.5061356363839615,4.046825224704394,51.603999999992084
312807.9487,14.27780036407524,1.6739308837798261,2.911000058376387,4.263354099983441,51.60499999998137
312807.9497,15.899793974711597,2.398699590245526,2.0864740871312413,4.293245048061551,51.60599999997066
312807.9507,17.270054282056208,2.987482101084226,1.010873696830816,4.1075532487947335,51.60699999995995
312807.9517,18.346366340500587,3.4144309870868814,-0.31856647732531523,3.694399381393362,51.60799999994924
312807.9527,19.103985899599706,3.6684978918330926,-1.8851018676939408,3.0593884810331327,51.60899999999674
312807.9537,19.53543459437229,3.7527873365152264,-3.653675290380523,2.224417677363014,51.60999999998603
312807.9547,19.648716936045176,3.6826094563076563,-5.573755277450214,1.225029994422287,51.61099999997532
312807.9557,19.464230806661412,3.4824798231699856,-7.583511422694901,0.10660956256994467,51.61199999996461
312807.9567,19.01076780165739,3.1824118913516157,-9.61489815867168,-1.0801791072573135,51.6129999999539
312807.9577,18.32108147167363,2.813909173810884,-11.599137571405976,-2.2842389520084634,51.6140000000014
312807.9587,17.427532639334196,2.4060843542522834,-13.47206232644014,-3.458687482327807,51.61499999999069
312807.9597,16.35829901741685,1.9823096509685143,-15.178803915012294,-4.564845024487683,51.61599999997998
312807.9607,15.134564198529535,1.557739640696445,-16.677386297538895,-5.575180675770323,51.616999999969266
312807.9617,13.768986611112643,1.1379511561957651,-17.940902690155863,-6.474944619737137,51.617999999958556
312807.9627,12.265604317897399,0.7188247908395642,-18.958101595125804,-7.262353254197773,51.618999999947846
312807.9637,10.621171591830361,0.2876612267422033,-19.732372149969617,-7.947343172867777,51.61999999999534
312807.9647,8.82776448384479,-0.17460368538337098,-20.279281954161515,-8.549056376433505,51.62099999998463
312807.9657,6.8763513103656635,-0.6903354712307125,-20.62296642182061,-9.092347572407292,51.62199999997392
312807.9667,4.760914505341337,-1.2816275393817382,-20.791782921407975,-9.60370234006759,51.62299999996321
312807.9677,2.4826437065126874,-1.9666089509754212,-20.813714265548334,-10.107012702394377,51.6239999999525
312807.9687,0.05370303131970364,-2.7560376262324295,-20.712027618902436,-10.619668739866148,51.625
312807.9697,-2.4998900042623093,-3.650554877453259,-20.501664719410826,-11.149390367552698,51.62599999998929
312807.9707,-5.136653961144797,-4.638910770658725,-20.186760744544674,-11.692145997981957,51.62699999997858
312807.9717,-7.799559055620046,-5.697372166498305,-19.75957029869077,-12.231392508184651,51.62799999996787
312807.9727,-10.417576555860316,-6.790406298425582,-19.200931934205432,-12.738735144336339,51.62899999995716
312807.9737,-12.908806947422105,-7.872604413769893,-18.482242196890923,-13.175960446097893,51.62999999994645
312807.9747,-15.184972439567987,-8.891685204660686,-17.568752537304174,-13.498254585108551,51.630999999993946
312807.9757,-17.156919204496734,-9.792308950323763,-16.423863359320336,-13.658297774709453,51.631999999983236
312807.9767,-18.74066767774732,-10.520351288181358,-15.013982905178027,-13.610834766369374,51.632999999972526
312807.9777,-19.863485953676346,-11.02723841863447,-13.313455260325654,-13.31727090821409,51.633999999961816
312807.9787,-20.46944813692492,-11.273937908695123,-11.309047855842625,-12.749837786146626,51.634999999951106
312807.9797,-20.523977895904085,-11.234231726227021,-9.003525883919881,-11.894912578679271,51.6359999999986
312807.9807,-20.016963798143358,-10.896967349124266,-6.417925403987774,-10.755156875352577,51.63699999998789
312807.9817,-18.964158996663386,-10.267081747517246,-3.5922602995444857,-9.350255653473994,51.63799999997718
312807.9827,-17.4067313228258,-9.365311790892019,-0.5845484860301712,-7.7161738911557,51.63899999996647
312807.9837,-15.408995994502419,-8.22663130412522,2.531794947541563,-5.902993266179215,51.63999999995576
312807.9847,-13.054525920611633,-6.897576949385489,5.671991659307845,-3.971530092990467,51.64099999994505
312807.9857,-10.44097827820905,-5.4327302086324325,8.745016282350555,-1.9890542548222228,51.64199999999255
312807.9867,-7.674086849097917,-3.8907005559072134,11.659344693899703,-0.024515566604437742,51.64299999998184
312807.9877,-4.861336962766701,-2.3299977565308305,14.328822174620115,1.8562698921516316,51.64399999997113
312807.9887,-2.1058575112176894,-0.8051849388713996,16.67812711839805,3.595020012407774,51.64499999996042
312807.9897,0.4989690179884574,0.6363315913580023,18.64734462919496,5.144564350638605,51.64599999994971
312807.9907,2.87375856935307,1.956591173987665,20.19525003608926,6.4712753761221125,51.646999999997206
312807.9917,4.955939917408451,3.1282613597428255,21.301026601046292,7.55614688322352,51.647999999986496
312807.9927,6.700979035241449,4.134647265268761,21.964292238772067,8.394451243263253,51.648999999975786
312807.9937,8.082020597292864,4.968584916329844,22.203472104594045,8.99405191017604,51.649999999965075
312807.9947,9.088109656669543,5.630393484403661,22.05271152691103,9.37258444229063,51.650999999954365
312807.9957,9.72129317851991,6.125160550737052,21.557661526361407,9.55383443686526,51.65200000000186
312807.9967,9.993004925933045,6.459705078158761,20.770573619712128,9.563722500621887,51.65299999999115
312807.9977,9.920197901077328,6.639597286188933,19.74520159782946,9.42634630581237,51.65399999998044
312807.9987,9.52170019312695,6.666609362477092,18.532019627316057,9.160523663278267,51.65499999996973
312807.9997,8.815231656132397,6.536926146535701,17.174227340919675,8.777228723444212,51.65599999995902
312808.0007,7.815434350999709,6.240364816166337,15.704927480438357,8.278220804856929,51.65699999994831
312808.0017,6.533147797962931,5.760744999825907,14.145738611691591,7.656040960655902,51.65799999999581
312808.0027,4.976013254860179,5.077426260053967,12.506956626878523,6.895407465741572,51.6589999999851
312808.0037,3.1503344830512825,4.1679009602370956,10.789218879520526,5.975892212521961,51.65999999997439
312808.0047,1.063971888241538,3.0112101240519196,8.986469628477082,4.875620445480922,51.66099999996368
312808.0057,-1.270081887229441,1.5918502990348726,7.089890301123445,3.575620417398567,51.66199999995297
312808.0067,-3.829890374732746,-0.0962290055833727,5.092356265145855,2.064369265657538,51.663000000000466
312808.0077,-6.5810193056499795,-2.0459676254496775,2.9929234111400267,0.3420451414829509,51.663999999989755
312808.0087,-9.473731013911761,-4.2342947557521935,0.8008387453756002,-1.5759924127492935,51.664999999979045
312808.0097,-12.441363512755277,-6.620350444163833,-1.4613895802321288,-3.65691212945745,51.665999999968335
312808.0107,-15.400229019033821,-9.145100797190343,-3.7562396765294523,-5.849626697992455,51.666999999957625
312808.0117,-18.25122739655887,-11.732498443753693,-6.030991865637617,-8.085694858275282,51.667999999946915
312808.0127,-20.883206059494565,-14.292201061522162,-8.21921253209304,-10.281934127900742,51.66899999999441
312808.0137,-23.177925069002146,-16.723716965943524,-10.243842188085848,-12.344606389570798,51.6699999999837
312808.0147,-25.01632129963203,-18.921711498422123,-12.021665474783305,-14.174886215324562,51.67099999997299
312808.0157,-26.285624910417766,-20.782094158326895,-13.468802056417802,-15.675193766250123,51.67199999996228
312808.0167,-26.886779031712663,-22.20842510387479,-14.506751885118613,-16.75588283080979,51.67299999995157
312808.0177,-26.741560118374345,-23.1181388017014,-15.068466381914016,-17.341729072757513,51.67399999999907
312808.0187,-25.7987977574561,-23.44808645538403,-15.103904760053403,-17.37766856106832,51.67499999998836
312808.0197,-24.03914956809867,-23.158947409084277,-14.58457330416326,-16.833292079869743,51.67599999997765
312808.0207,-21.47799458416761,-22.238148805541783,-13.506631313775188,-15.705701708134951,51.67699999996694
312808.0217,-18.166157651667028,-20.701054351212825,-11.892272484906458,-14.02047352298493,51.67799999995623
312808.0227,-14.188354378575887,-18.590326009140185,-9.789242853178385,-11.830631357723902,51.67899999994552
312808.0237,-9.659434799462382,-15.973513691343491,-7.268521573740957,-9.213706417210682,51.679999999993015
312808.0247,-4.718686752474412,-12.939073681406489,-4.420353087027138,-6.267120464156608,51.680999999982305
312808.0257,0.47737988732717895,-9.59114326736756,-1.3489632522961166,-3.1022711557146483,51.681999999971595
312808.0267,5.763224282329383,-6.043495415624924,1.8335957392617799,0.1621960426127664,51.682999999960884
312808.0277,10.972823154361707,-2.4131546987271046,5.013956886696708,3.40738373150988,51.683999999950174
312808.0287,15.947940126390476,1.1858307371366352,8.0837701724296,6.520849395777578,51.68499999999767
312808.0297,20.545517083002867,4.647997279138938,10.945347293443653,9.402505691391896,51.68599999998696
312808.0307,24.643679143977458,7.881061958921305,13.516187788844123,11.969282450373619,51.68699999997625
312808.0317,28.145978819856275,10.809219813067088,15.732069984686436,14.15824210435001,51.68799999996554
312808.0327,30.98366940421672,13.374984017378136,17.548532758061718,15.927989238675947,51.68899999995483
312808.0337,33.11597678230666,15.53954894097458,18.94073014618427,17.2583750299684,51.69000000000233
312808.0347,34.528515468965665,17.281791761993013,19.90179489260015,18.14865292124218,51.69099999999162
312808.0357,35.23015210425375,18.596147658053653,20.43998402657291,18.614378147897128,51.69199999998091
312808.0367,35.24874313237755,19.489685570235405,20.57498619390021,18.683447760073967,51.6929999999702
312808.0377,34.62625171269753,19.97876770792349,20.33383647970242,18.391739977721336,51.69399999995949
312808.0387,33.41377532935413,20.08569152400661,19.746903778246555,17.778826648278834,51.69499999994878
312808.0397,31.666988504107923,19.835687146106896,18.84438697539293,16.884199550039565,51.695999999996275
312808.0407,29.44242818270293,19.254579632078848,17.653682762659386,15.744374353850137,51.696999999985565
312808.0417,26.794931351136867,18.36733112126217,16.19787773482881,14.391123614405707,51.697999999974854
312808.0427,23.776387845725985,17.197563190459686,14.495482157927423,12.85095408490472,51.698999999964144
312808.0437,20.435811489616263,15.768036687284344,12.561376565515634,11.145798095687754,51.699999999953434
312808.0447,16.820576161979385,14.101947940490046,10.408800368883846,9.294748734757391,51.70100000000093
312808.0457,12.978526284396203,12.224798917969864,8.052088723521647,7.316548506562919,51.70199999999022
312808.0467,8.960567551256384,10.166525203134082,5.509772816778966,5.232453348237232,51.70299999997951
312808.0477,4.823284166965198,7.963527323183713,2.8076091363324545,3.0690473823985758,51.7039999999688
312808.0487,0.6311195352835938,5.660252103675907,-0.01889945020442089,0.8605834318988924,51.70499999995809
312808.0497,-3.5423006522106815,3.3100114334781243,-2.922883180087191,-1.3495296977227207,51.70599999994738
312808.0507,-7.6140347724552955,0.9748021619222407,-5.845689693086462,-3.5083843391879475,51.70699999999488
312808.0517,-11.49308539118684,-1.2760047660757692,-8.717854558125717,-5.554545721169354,51.70799999998417
312808.0527,-15.083104426329479,-3.3681158754705947,-11.461494130344901,-7.420366650903659,51.70899999997346
312808.0537,-18.286431533840798,-5.22579017348757,-13.994003656946012,-9.035524754985852,51.70999999996275
312808.0547,-21.00919733172761,-6.77610090763629,-16.232798057564914,-10.331521630746254,51.71099999995204
312808.0557,-23.167089157189174,-7.953648010760178,-18.100709958113793,-11.246765739961614,51.711999999999534
312808.0567,-24.691279803120153,-8.705316396153725,-19.53157221048707,-11.731778384239162,51.712999999988824
312808.0577,-25.53396966114798,-8.994644650373058,-20.475469739412908,-11.754023567446174,51.713999999978114
312808.0587,-25.672995930658132,-8.805380129468537,-20.90315320843301,-11.301872666689144,51.714999999967404
312808.0597,-25.115019891959825,-8.143849816191105,-20.80916486424396,-10.387273559175803,51.71599999995669
312808.0607,-23.896910242204402,-7.039867249084152,-20.21333020586766,-9.046796378776893,51.71699999994598
312808.0617,-22.08508779125778,-5.546016361860513,-19.160408496725616,-7.340865252086267,51.71799999999348
312808.0627,-19.772770990895417,-3.7352921534255765,-17.717857603246184,-5.351144547507338,51.71899999998277
312808.0637,-17.075246611025488,-1.6972227735711158,-15.971838809056008,-3.1762144273210318,51.71999999997206
312808.0647,-14.123467922080943,0.4672658277012136,-14.021748817536954,-0.9258280233424374,51.72099999996135
312808.0657,-11.056436971122462,2.6518661544958357,-11.9737035027859,1.2858237745676566,51.72199999995064
312808.0667,-8.012943020670152,4.751326777711979,-9.933497706662909,3.3473171212679906,51.72299999999814
312808.0677,-5.123294582038298,6.667809328973308,-7.999617659258688,5.15709645601326,51.72399999998743
312808.0687,-2.5016910361572258,8.316665447920533,-6.2568820974097035,6.629900331288396,51.72499999997672
312808.0697,-0.23983028232611694,9.631181920209185,-4.771234607917066,7.701993267068793,51.72599999996601
312808.0707,1.5977545909920625,10.565930849947737,-3.586107968649181,8.334785675646668,51.7269999999553
312808.0717,2.9762845855941213,11.098483151239694,-2.7206407848413554,8.516562643277306,51.727999999944586
312808.0727,3.8910838385376465,11.229386646170036,-2.169860731837497,8.262206366479052,51.728999999992084
312808.0737,4.365715360200005,10.980461262314513,-1.9067728823275343,7.610971025044808,51.72999999998137
312808.0747,4.448119800445549,10.391609076193907,-1.8861225144463134,6.622536571553268,51.73099999997066
312808.0757,4.205141676004826,9.516462668506168,-2.0494553979117462,5.371713679103385,51.73199999995995
312808.0767,3.7159587435795385,8.41728975116965,-2.33098856769532,3.9422823882480458,51.73299999994924
312808.0777,3.0650126349276334,7.15962662565762,-2.663741228534713,2.420511731142704,51.73399999999674
312808.0787,2.33506521931696,5.807122923708237,-2.9853644064450227,0.8889210826487771,51.73499999998603
312808.0797,1.600973555891021,4.417044764532121,-3.2431499625627023,-0.5791945736946401,51.73599999997532
312808.0807,0.9246904228489563,3.0368067818080298,-3.397790214935751,-1.9240396498336338,51.73699999996461
312808.0817,0.3518661029887032,1.7017932275798977,-3.4255896336535843,-3.102082814274609,51.7379999999539
312808.0827,-0.0897365183708987,0.4345955252331303,-3.318987076950985,-4.087153259140011,51.7390000000014
312808.0837,-0.38998133467483725,-0.7543487069458742,-3.085415488022467,-4.869873519478011,51.73999999999069
312808.0847,-0.554399251204593,-1.864868116749047,-2.744689495422104,-5.455593302400429,51.74099999997998
312808.0857,-0.6008357694184505,-2.9041947662491547,-2.325254106263917,-5.861128444243455,51.741999999969266
312808.0867,-0.5551388695136186,-3.8834901598049023,-1.8597358589170565,-6.110715804137165,51.742999999958556
312808.0877,-0.44640109922535565,-4.8141774817340846,-1.3803010015090729,-6.231658629949324,51.743999999947846
312808.0887,-0.30229797791017504,-5.704507814277417,-0.9143374616793,-6.250151985900215,51.74499999999534
312808.0897,-0.14503819552958452,-6.556755208383859,-0.4809375184670304,-6.1877433119557885,51.74599999998463
312808.0907,0.011637077280224931,-7.3653628444413055,-0.08857020106270722,-6.0588030712398515,51.74699999997392
312808.0917,0.16408984102300042,-8.116257624013839,0.2657947646400162,-5.869263175034047,51.74799999996321
312808.0927,0.31889208641099337,-8.787423985366653,0.5960035944056741,-5.616738515174273,51.7489999999525
312808.0937,0.4914074432688916,-9.350692229461961,0.9245332977410833,-5.291993960656841,51.75
312808.0947,0.7030172682738999,-9.77456571270065,1.2790230385564274,-4.881571056615525,51.75099999998929
312808.0957,0.9773086153223416,-10.027797953995098,1.6878801905799758,-4.371260327811355,51.75199999997858
312808.0967,1.3356565138013803,-10.083346298594217,2.175424429708489,-3.7500094526556618,51.75299999996787
312808.0977,1.7927036640624592,-9.922281695218059,2.7570930166219623,-3.0138042722638683,51.75399999995716
312808.0987,2.3522600108596783,-9.53722910753529,3.4352386733921723,-2.169054038411249,51.75499999994645
312808.0997,3.0041107245082133,-8.934950686849188,4.196006939718609,-1.2350551357389656,51.755999999993946
312808.1007,3.7221372160440658,-8.137760483517162,5.007686532971384,-0.24519457757347363,51.756999999983236
312808.1017,4.464030164142615,-7.183567750074159,5.820792711610374,0.7533226788412094,51.757999999972526
312808.1027,5.1727184584683235,-6.1244752841213925,6.569982546140636,1.7012922102741,51.758999999961816
312808.1037,5.77946865728961,-5.0239972219272016,7.177727616231985,2.530788498068058,51.759999999951106
312808.1047,6.208442579279995,-3.9530938601214696,7.55950046338166,3.1696679390752633,51.7609999999986
312808.1057,6.382352310341702,-2.9853365833739485,7.630082233899433,3.546932785246125,51.76199999998789
312808.1067,6.228736673354187,-2.191602686236692,7.310484510114971,3.598497417305125,51.76299999997718
312808.1077,5.686312308011693,-1.6347494890241112,6.534909227130178,3.272846454578058,51.76399999996647
312808.1087,4.710832852256919,-1.3647249555297007,5.25715338103458,2.536070495657487,51.76499999995576
312808.1097,3.279923262548422,-1.414537352241106,3.455901621462116,1.3758103149451304,51.76599999994505
312808.1107,1.3964398998413823,-1.7974327396854883,1.1384364292763596,-0.1962700534965407,51.76699999999255
312808.1117,-0.9099672915156402,-2.505523360958356,-1.6575756184587642,-2.1437351679020122,51.76799999998184
312808.1127,-3.5832582887466984,-3.5099823930579035,-4.864403902249777,-4.4064587803168545,51.76899999997113
312808.1137,-6.5433685933408725,-4.762783164159365,-8.38668778385839,-6.903476881388552,51.76999999996042
312808.1147,-9.690362631796289,-6.199826761226405,-12.105817789532077,-9.537401714817708,51.77099999994971
312808.1157,-12.91004654703137,-7.745183498660966,-15.88593875210607,-12.200049602411914,51.771999999997206
312808.1167,-16.080588746329024,-9.31608193189667,-19.581121513388112,-14.77883182858189,51.772999999986496
312808.1177,-19.079615467235275,-10.828222287758077,-23.04316293563928,-17.16339583475937,51.773999999975786
312808.1187,-21.791216792136776,-12.200974241412224,-26.12943562661861,-19.251989067622734,51.774999999965075
312808.1197,-24.11231838693859,-13.362042932100804,-28.710221484134518,-20.95705100003274,51.775999999954365
312808.1207,-25.95794321045262,-14.251249073907152,-30.67502463725659,-22.209616509362004,51.77700000000186
312808.1217,-27.264998317047656,-14.823162449001938,-31.93746278922416,-22.96222815062579,51.77799999999115
312808.1227,-27.994363490589826,-15.048443459712972,-32.438470715370926,-23.19019465738687,51.77899999998044
312808.1237,-28.131216804080992,-14.913873223948096,-32.14770235773904,-22.891184660498503,51.77999999996973
312808.1247,-27.683691846791863,-14.421176500727093,-31.063173797909805,-22.083293541136783,51.78099999995902
312808.1257,-26.68010691656914,-13.5848514430424,-29.209333641963404,-20.80185334727264,51.78199999994831
312808.1267,-25.16512412993939,-12.429305236622076,-26.63386676055532,-19.09535840320893,51.78299999999581
312808.1277,-23.195275264830634,-10.98564710041344,-23.40362138677886,-17.020943211652455,51.7839999999851
312808.1287,-20.834324297002556,-9.288505241186527,-19.600091504376042,-14.639868948038139,51.78499999997439
312808.1297,-18.14892172119918,-7.373211293820735,-15.314883797029939,-12.013449133316321,51.78599999996368
312808.1307,-15.20494537732369,-5.273637506907407,-10.645553189870448,-9.199777276688545,51.78699999995297
312808.1317,-12.064823676836586,-3.020884939533242,-5.6921094011063555,-6.251516854784243,51.788000000000466
312808.1327,-8.78601068677514,-0.6429145613753808,-0.5543886365690806,-3.2148877462676744,51.788999999989755
312808.1337,-5.420642004746362,1.8349013632386566,4.6696382225452675,-0.12984624694145833,51.789999999979045
312808.1347,-2.016260584261507,4.388440871358363,9.884673472769581,2.9686779124639737,51.790999999968335
312808.1357,1.3826227098565353,6.992935362383156,14.998180740620073,6.048740932642288,51.791999999957625
312808.1367,4.732465048117279,9.620812456624002,19.920005454606038,9.078882177480764,51.792999999946915
312808.1377,7.988512966853652,12.239614114084194,24.56183428645272,12.025551260301267,51.79399999999441
312808.1387,11.1029112434314,14.810325881547296,28.836816069823996,14.850864842565784,51.7949999999837
312808.1397,14.023468968497484,17.286416547543983,32.659642243615565,17.511057492225238,51.79599999997299
312808.1407,16.69337748947157,19.613817396620732,35.94732276930391,19.95591569270705,51.79699999996228
312808.1417,19.052065173001125,21.731973577202517,38.62080038324838,22.129376733301303,51.79799999995157
312808.1427,21.03724080921705,23.575986472304194,40.60743190679721,23.97134563212716,51.79899999999907
312808.1437,22.588034796320706,25.0797468051231,41.84424239165511,25.420646489166888,51.79999999998836
312808.1447,23.64900993636679,26.17984558141692,42.28173943804827,26.418893649563802,51.80099999997765
312808.1457,24.174696269533847,26.819955375401268,41.88797412786418,26.914956172490403,51.80199999996694
312808.1467,24.134219524140807,26.95530772078289,40.65246310276945,26.869607901527097,51.80299999995623
312808.1477,23.515549948257974,26.556860620122027,38.589552049371704,26.25991348289064,51.80399999994552
312808.1487,22.32890286208843,25.614757197834127,35.7408092040832,25.08290270238514,51.804999999993015
312808.1497,20.608874870245717,24.140722292566764,32.1760891981373,23.358131922364432,51.805999999982305
312808.1507,18.41499613813375,22.16912453001438,27.99299899966535,21.12881824650245,51.806999999971595
312808.1517,15.83051087936549,19.756539926858604,23.31462118040508,18.461351390083777,51.807999999960884
312808.1527,12.959353025241967,16.97977940057225,18.285494185953507,15.443128939218747,51.808999999950174
312808.1537,9.921447324502582,13.93247496343094,13.066001352762896,12.178809462369959,51.80999999999767
312808.1547,6.846622212690362,10.72044546970792,7.825465692293598,8.785220664307023,51.81099999998696
312808.1557,3.8675545711227004,7.456170703118829,2.7343719151038477,5.385282840847071,51.81199999997625
312808.1567,1.1122648361569571,4.252782148967514,-2.04377150903858,2.101399535000165,51.81299999996554
312808.1577,-1.3032660250914405,1.2180224517727491,-6.360368621042038,-0.9511812834819576,51.81399999995483
312808.1587,-3.2817839757768335,-1.551370857158986,-10.08890805598364,-3.670525970099058,51.81500000000233
312808.1597,-4.7502295795447,-3.974438672067855,-13.130856510452496,-5.973224004722447,51.81599999999162
312808.1607,-5.663558639686718,-5.989585948551078,-15.419852631295608,-7.798258830368517,51.81699999998091
312808.1617,-6.006624415155309,-7.556739120503333,-16.92391131627631,-9.109269153677314,51.8179999999702
312808.1627,-5.793992365018228,-8.657959423248428,-17.645505363860163,-9.895069188222163,51.81899999995949
312808.1637,-5.067732310789755,-9.296529792361197,-17.619560320081256,-10.168446873716977,51.81999999994878
312808.1647,-3.8934024159406335,-9.494663002532388,-16.90956398804831,-9.96340605321974,51.820999999996275
312808.1657,-2.354588843192861,-9.290093096087432,-15.602139345201834,-9.331148226870532,51.821999999985565
312808.1667,-0.5464806296678048,-8.731900378516157,-13.800545155845656,-8.335189810371192,51.822999999974854
312808.1677,1.4309693208089098,-7.875974299293161,-11.617641908917163,-7.0460726406057175,51.823999999964144
312808.1687,3.4797255288954667,-6.780533650932648,-9.168885347896413,-5.536143346817767,51.824999999953434
312808.1697,5.50965340922197,-5.5020987182670025,-6.565883891686663,-3.874849952020928,51.82600000000093
312808.1707,7.443345087171165,-4.092248155620869,-3.910982586368284,-2.1249348617362047,51.82699999999022
312808.1717,9.21944875230284,-2.595400904788111,-1.2932223453527412,-0.33979947211567646,51.82799999997951
312808.1727,10.794312624966503,-1.0477497938049083,1.2141195588981537,1.4378124204270284,51.8289999999688
312808.1737,12.141918787770182,0.5226499776418713,3.554359433071198,3.175804488436998,51.82999999995809
312808.1747,13.252244726687183,2.0947550858464177,5.686716269731703,4.851519614477276,51.83099999994738
312808.1757,14.128335812736491,3.6525948275317406,7.584349936836675,6.4495822276251955,51.83199999999488
312808.1767,14.782486269384538,5.182823010445569,9.23149002242199,7.959131760615924,51.83299999998417
312808.1777,15.231998654251766,6.672113242241471,10.620088424496538,9.370842158217231,51.83399999997346
312808.1787,15.495015928571929,8.104759527262923,11.746453600698445,10.674134102167214,51.83499999996275
312808.1797,15.586893977187582,9.460814968626345,12.608300691999867,11.854954738179472,51.83599999995204
312808.1807,15.517509119877468,10.71503659857489,13.20258257516076,12.894427687633213,51.836999999999534
312808.1817,15.289782509623155,11.836810661527966,13.524359925331854,13.76857158653146,51.837999999988824
312808.1827,14.899563002547053,12.791119752158172,13.566835030739073,14.449159242108655,51.838999999978114
312808.1837,14.336856478631905,13.540492759202632,13.322528485284039,14.90565490180115,51.839999999967404
312808.1847,13.588238352739713,14.047763098678821,12.785435300190228,15.108038176416539,51.84099999995669
312808.1857,12.640152541582486,14.279362311894133,11.95387240621883,15.030213429028498,51.84199999994598
312808.1867,11.482698057176643,14.208805167829023,10.833636115789158,14.653624627841856,51.84299999999348
312808.1877,10.113444156767045,13.819986640580519,9.441035878869556,13.97065637906939,51.84399999998277
312808.1887,8.540802888707333,13.10991471441885,7.805365437501414,12.987406747179167,51.84499999997206
312808.1897,6.786525414677099,12.090546130204757,5.970415347321124,11.725466708092533,51.84599999996135
312808.1907,4.886972166038268,10.789471147731055,3.994717997476927,10.222430317555409,51.84699999995064
312808.1917,2.892928561324364,9.249300716310398,1.9503394054662573,8.530980440518224,51.84799999999814
312808.1927,0.8678856625214892,7.525734726306993,-0.07982085158813117,6.7165353967195625,51.84899999998743
312808.1937,-1.115135928099455,5.684420920534003,-2.006103782060144,4.853588190992663,51.84999999997672
312808.1947,-2.9779863977179293,3.796837506846167,-3.737271379974599,3.0210073853293804,51.85099999996601
312808.1957,-4.642644860735457,1.9355360215659136,-5.18639713716615,1.2966830813165764,51.8519999999553
312808.1967,-6.036869131578411,0.16915384525742191,-6.276977310212252,-0.24801904951032241,51.852999999944586
312808.1977,-7.099715873332485,-1.4423598447575843,-6.948725606954839,-1.5534968865900711,51.853999999992084
312808.1987,-7.78640565927795,-2.8518691022643567,-7.162517044413798,-2.5763575332799222,51.85499999998137
312808.1997,-8.072055395484764,-4.028142390425563,-6.9040017848988136,-3.292642969841522,51.85599999997066
312808.2007,-7.953896654351365,-4.957614155946948,-6.185512604809948,-3.6995119951944333,51.85699999995995
312808.2017,-7.451734012399422,-5.644640383112362,-5.046031376986739,-3.8151912272425417,51.85799999994924
312808.2027,-6.606559708473656,-6.110210169064105,-3.549147705058424,-3.6771652611725947,51.85899999999674
312808.2037,-5.477414281611091,-6.3892197674728255,-1.779121054675211,-3.338739343470961,51.85999999998603
312808.2047,-4.1367504615439294,-6.526551974541662,0.164670454777561,-2.8642613826918377,51.86099999997532
312808.2057,-2.664702979147075,-6.572318853735355,2.1744624713967227,-2.3234188148293318,51.86199999996461
312808.2067,-1.1427756413093964,-6.576708205179809,4.141474302807864,-1.785117030438188,51.8629999999539
312808.2077,0.3524820790726105,-6.584915531287034,5.963309349632116,-1.311490514179223,51.8640000000014
312808.2087,1.7552300368085982,-6.632639089563002,7.550770944223114,-0.9525907487264117,51.86499999999069
312808.2097,3.0149939296873662,-6.7425658973268146,8.833526571487566,-0.7422364482682507,51.86599999997998
312808.2107,4.099793417882824,-6.922185629890129,9.764153828840877,-0.6954069422313045,51.866999999969266
312808.2117,4.997454149864794,-7.16314563775693,10.320245037837674,-0.8074181675639163,51.867999999958556
312808.2127,5.714986889752157,-7.442215443688957,10.504420871481203,-1.0549559849885666,51.868999999947846
312808.2137,6.276100227251208,-7.723776829212284,10.342290513114996,-1.3988689723270913,51.86999999999534
312808.2147,6.71709146116992,-7.963610525169529,9.878579167329997,-1.7884588453593542,51.87099999998463
312808.2157,7.081516037811998,-8.113626486612919,9.171806001015947,-2.166866819970655,51.87199999997392
312808.2167,7.414154356385428,-8.127093666221276,8.288021619213017,-2.4770518759258096,51.87299999996321
312808.2177,7.754864355356482,-7.963875851823134,7.294192273437729,-2.6678017495412942,51.8739999999525
312808.2187,8.132922280144772,-7.59517724433822,6.25184106178105,-2.6992147869216985,51.875
312808.2197,8.562410951689436,-7.007345302255356,5.211522586393289,-2.5471407311720395,51.87599999998929
312808.2207,9.03911871870057,-6.204364767718658,4.208620488912425,-2.206166270051492,51.87699999997858
312808.2217,9.539272158133523,-5.208797455934417,3.2608256462140677,-1.690867360781697,51.87799999996787
312808.2227,10.020254738678714,-4.0610658210907244,2.3674894286772323,-1.0352119692932733,51.87899999995716
312808.2237,10.42327822311413,-2.8171308649562525,1.5108670819370733,-0.2901685343427196,51.87999999994645
312808.2247,10.677791038055101,-1.5447621760240102,0.6590881618878797,0.48025907113582733,51.880999999993946
312808.2257,10.707245330793834,-0.3187259075849934,-0.22946907276707101,1.204205644759181,51.881999999983236
312808.2267,10.435717144742148,0.7846866359635847,-1.2008493337587942,1.8078549401222537,51.882999999972526
312808.2277,9.794793861687658,1.693310343747696,-2.299770239606405,2.2215499889233867,51.883999999961816
312808.2287,8.73011706621155,2.344446415150512,-3.5640129111947867,2.385554840718298,51.884999999951106
312808.2297,7.206999406862823,2.6894341659049066,-5.019491716998693,2.254958111445559,51.8859999999986
312808.2307,5.214617648691766,2.697073591534009,-6.676466767055778,1.80329500077139,51.88699999998789
312808.2317,2.768412728374556,2.355628288407506,-8.527244886812216,1.0245892501459504,51.88799999997718
312808.2327,-0.08951114627704072,1.6732723295177732,-10.545566023196306,-0.06633246625330846,51.88899999996647
312808.2337,-3.2920178194315337,0.6769890895001512,-12.68770724572811,-1.435238734556343,51.88999999995576
312808.2347,-6.750451487975775,-0.5899291213362627,-14.895171950621995,-3.0314309333566407,51.89099999994505
312808.2357,-10.359717911560114,-2.071507868058799,-17.09868354107649,-4.791907963912627,51.89199999999255
312808.2367,-14.004491114340675,-3.7034758561119476,-19.223084904586734,-6.646339617317708,51.89299999998184
312808.2377,-17.56601392853533,-5.41798281351431,-21.192668410771823,-8.522365902636569,51.89399999997113
312808.2387,-20.9289232086264,-7.148208733881794,-22.93643265643413,-10.350723467413834,51.89499999996042
312808.2397,-23.98754638953131,-8.8324510633531,-24.39278369759667,-12.069732862800928,51.89599999994971
312808.2407,-26.65118277899383,-10.4173441025943,-25.5132669780812,-13.628757953088032,51.896999999997206
312808.2417,-28.847993212574377,-11.859965141626297,-26.26502393953058,-14.990362992847771,51.897999999986496
312808.2427,-30.527264008589313,-13.128704220406059,-26.63180294129053,-16.131032015805296,51.898999999975786
312808.2437,-31.65997114248238,-14.202906385437654,-26.61350358205177,-17.04046506811688,51.899999999965075
312808.2447,-32.2377323017062,-15.071423512735759,-26.224381558842936,-17.719611393991503,51.900999999954365
312808.2457,-32.27038212437051,-15.73032428075221,-25.490172913907962,-18.17772639935955,51.90200000000186
312808.2467,-31.78252522066106,-16.18009453777707,-24.444498804544146,-18.428834503242197,51.90299999999115
312808.2477,-30.809501281502314,-16.422707795976883,-23.12497477815166,-18.48803446314121,51.90399999998044
312808.2487,-29.393229542929248,-16.45895224329477,-21.569466006468335,-18.368092178315916,51.90499999996973
312808.2497,-27.57838371928462,-16.286365965111305,-19.81290072751896,-18.076727715492236,51.90599999995902
312808.2507,-25.40928584377359,-15.898059658926087,-17.88498170243067,-17.61492243709809,51.90699999994831
312808.2517,-22.92780554726124,-15.282603475351653,-15.809027637256738,-16.976456995823558,51.90799999999581
312808.2527,-20.172421377981635,-14.42503227480247,-13.602044648458891,-16.148753393838582,51.9089999999851
312808.2537,-17.17845680273253,-13.308894130400097,-11.2759857927209,-15.114948367119558,51.90999999997439
312808.2547,-13.97936086558505,-11.919143690456949,-8.840019295998431,-13.856985992675842,51.91099999996368
312808.2557,-10.608777225749055,-10.24557783612871,-6.303507792098175,-12.359398954849283,51.91199999995297
312808.2567,-7.103048805372873,-8.286436883475558,-3.679314080900423,-10.613362616048818,51.913000000000466
312808.2577,-3.5037487829524943,-6.051758382710174,-0.9870029120296689,-8.620562898097974,51.913999999989755
312808.2587,0.14018176576669278,-3.5660765883848815,1.7444917783031346,-6.396422776631281,51.914999999979045
312808.2597,3.771072374055823,-0.8701089258581675,4.475118448132634,-3.972283017727948,51.915999999968335
312808.2607,7.3222400418742595,1.978842963213617,7.153174229229715,-1.3962260240784665,51.916999999957625
312808.2617,10.718970584053068,4.907933813288702,9.716159933242423,1.2676415816569075,51.917999999946915
312808.2627,13.880811013714526,7.831278155890028,12.093054607591379,3.941484014996839,51.91899999999441
312808.2637,16.72507085098301,10.653796988406945,14.20789030184425,6.537490660492548,51.9199999999837
312808.2647,19.171288056202993,13.276155351553461,15.984365825507838,8.962825046543996,51.92099999997299
312808.2657,21.146294560609668,15.600426809555298,17.351119238376626,11.125380561009633,51.92199999996228
312808.2667,22.58943005379285,17.53604136260773,18.24719502343771,12.93986703681036,51.92299999995157
312808.2677,23.457410356001713,19.00553410457745,18.62720235315744,14.333708601254404,51.92399999999907
312808.2687,23.728363556568283,19.949617156331417,18.465670249259393,15.252238323632257,51.92499999998836
312808.2697,23.40460341923637,20.331146965810845,17.760163609296356,15.662729110859521,51.92599999997765
312808.2707,22.513810640366675,20.137648603361388,16.532826046935668,15.55689814308842,51.92699999996694
312808.2717,21.108429149139578,19.382179968877754,14.830151904827078,14.951654781804086,51.92799999995623
312808.2727,19.263243854394428,18.102460571632005,12.720947802135036,13.88801679517709,51.92899999994552
312808.2737,17.07127276272186,16.35833846931834,10.292608581440982,12.428282218486254,51.929999999993015
312808.2747,14.638264005587622,14.227811083989076,7.645987652079293,10.651698734165029,51.930999999982305
312808.2757,12.076221500860568,11.80193762045308,4.889272393713872,8.649004396308042,51.931999999971595
312808.2767,9.496478446886103,9.179071302699269,2.13136865100669,6.516310297785944,51.932999999960884
312808.2777,7.00288587270408,6.4588902565913795,-0.524654879186033,4.348848246199127,51.933999999950174
312808.2787,4.685678856565281,3.736712086117775,-2.9875162141451312,2.2351098340031443,51.93499999999767
312808.2797,2.6165256754528583,1.0985387767813974,-5.182573360024302,0.25185738180159906,51.93599999998696
312808.2807,0.8451600962919098,-1.3828004322954808,-7.055193071033227,-1.539603202283825,51.93699999997625
312808.2817,-0.6021460208946253,-3.6501521930793546,-8.572385342785262,-3.09562356744926,51.93799999996554
312808.2827,-1.722180194995331,-5.663065412313587,-9.72261557678817,-4.390773060260865,51.93899999995483
312808.2837,-2.5325434000190747,-7.3973597849182315,-10.513875726105551,-5.416800419177325,51.94000000000233
312808.2847,-3.067815152287047,-8.843391944126706,-10.970256493729956,-6.180190288591869,51.94099999999162
312808.2857,-3.3745275050911667,-10.003292761312904,-11.127399334211635,-6.698637061647355,51.94199999998091
312808.2867,-3.5054511262430643,-10.88753775777163,-11.027306473853317,-6.996853936212373,51.9429999999702
312808.2877,-3.5137535368916057,-11.511263120981653,-10.71303990301916,-7.102187568160516,51.94399999995949
312808.2887,-3.447592611894598,-11.890748001853149,-10.223841335352128,-7.0405135949054225,51.94499999994878
312808.2897,-3.3456572880858744,-12.040449369122125,-9.591154520388486,-6.832845560599602,51.945999999996275
312808.2907,-3.234067055143676,-11.970902681334586,-8.835934089258107,-6.493004078561569,51.946999999985565
312808.2917,-3.1249019557079114,-11.687697765109156,-7.967490861945415,-6.026573305277291,51.947999999974854
312808.2927,-3.016469083743491,-11.191615322403552,-6.983965370387821,-5.431230180561389,51.948999999964144
312808.2937,-2.895236060827969,-10.479878113567912,-5.87435466564694,-4.698382717452395,51.949999999953434
312808.2947,-2.739193774634669,-9.548345419303322,-4.621858486509633,-3.8159118921920414,51.95100000000093
312808.2957,-2.522266176011238,-8.394372550562753,-3.2081750099109723,-2.771691580576342,51.95199999999022
312808.2967,-2.2192782591682976,-7.019979712777796,-1.6182768681606425,-1.5574745115930337,51.95299999997951
312808.2977,-1.8109349461653694,-5.434934231164441,0.15485541883182505,-0.17268799798405793,51.9539999999688
312808.2987,-1.288259244546563,-3.6593510726197946,2.106067737021219,1.3723143090077718,51.95499999995809
312808.2997,-0.6559882984202747,-1.7254587114081632,4.214910248017874,3.05394939362549,51.95599999994738
312808.3007,0.0654739201396535,0.3217434539791322,6.443938424786854,4.8343645944502605,51.95699999999488
312808.3017,0.839808081984789,2.4251015173088204,8.738682710190519,6.661850494086675,51.95799999998417
312808.3027,1.6163286135208368,4.517235730808357,11.029372971281786,8.472753076519467,51.95899999997346
312808.3037,2.3332457911084825,6.52368682848495,13.234334617451292,10.194780338994866,51.95999999996275
312808.3047,2.9223843220327588,8.36705948660765,15.264810030162748,11.75145587577928,51.96099999995204
312808.3057,3.314952931177751,9.971836000987755,17.030817369446755,13.067351566430277,51.961999999999534
312808.3067,3.447847726328232,11.26945694634464,18.447552405254108,14.073645306548544,51.962999999988824
312808.3077,3.2699084703628754,12.203227005446198,19.441777989776885,14.713506326888034,51.963999999978114
312808.3087,2.747537645553548,12.732607318692096,19.957636081806854,14.946814541532545,51.964999999967404
312808.3097,1.8691384928780528,12.836500580436953,19.961359955898285,14.753771466550845,51.96599999995669
312808.3107,0.6479259190811463,12.515217641711498,19.44445553023494,14.13705391394418,51.96699999994598
312808.3117,-0.8771957148630076,11.790926881751222,18.425052198248103,13.122289130652893,51.96799999999348
312808.3127,-2.6428243917938454,10.70651950554197,16.947282939246136,11.756779282862974,51.96899999998277
312808.3137,-4.5642751584618875,9.322962768630708,15.07872598033818,10.106560032266245,51.96999999997206
312808.3147,-6.540591404524276,7.715345819131983,12.906109841554459,8.252027517757112,51.97099999996135
312808.3157,-8.460966758900947,5.967936880825084,10.529634486211318,6.282496143166026,51.97199999995064
312808.3167,-10.212066942663329,4.168655193343876,8.056379592511119,4.290144049041405,51.97299999999814
312808.3177,-11.685662452448046,2.4034086298638333,5.593345858004913,2.3638551281195928,51.97399999998743
312808.3187,-12.785957718865724,0.750753975236036,3.2407000868760885,0.5834711454144706,51.97499999997672
312808.3197,-13.436032318169849,-0.7226987961031991,1.0857676942778158,-0.9850752813496206,51.97599999996601
312808.3207,-13.582891636356345,-1.9657905203411732,-0.8017597827084677,-2.293362053931369,51.9769999999553
312808.3217,-13.200749965960119,-2.9449816459727125,-2.373051920014073,-3.312549187786734,51.977999999944586
312808.3227,-12.29232619856559,-3.645067011856973,-3.601598300715373,-4.03380007350156,51.978999999992084
312808.3237,-10.888106072001428,-4.068450748629738,-4.482858762565886,-4.467084444630472,51.97999999998137
312808.3247,-9.043698985406154,-4.233123982951037,-5.0322275595159995,-4.638542032587074,51.98099999997066
312808.3257,-6.83557556597284,-4.169599927548295,-5.281581581901337,-4.5867131688664955,51.98199999995995
312808.3267,-4.355600070057439,-3.917145774527578,-5.274801356212024,-4.358038222026366,51.98299999994924
312808.3277,-1.704858047068487,-3.51970088219749,-5.062732335094378,-4.002082910527852,51.98399999999674
312808.3287,1.0126826496997736,-3.02188183289939,-4.698086170064272,-3.5669563962951134,51.98499999998603
312808.3297,3.6961528200521974,-2.4654466657640985,-4.230764990816464,-3.095353266673444,51.98599999997532
312808.3307,6.252942039419457,-1.8865264316360504,-3.704028709449576,-2.6215731369831436,51.98699999996461
312808.3317,8.602678316880233,-1.3138391410725274,-3.151823013428565,-2.1697607666260557,51.9879999999539
312808.3327,10.679801052311792,-0.7679889281177119,-2.597454759512661,-1.7534766165469606,51.9890000000014
312808.3337,12.434650847006493,-0.2618333972004272,-2.053655376487981,-1.3765661290985796,51.98999999999069
312808.3347,13.833150702834029,0.1982131014210587,-1.5239264346149952,-1.0351599156848457,51.99099999997998
312808.3357,14.855290226629261,0.610171401007386,-1.0049294536916962,-0.7205201200799435,51.991999999969266
312808.3367,15.492734150860976,0.9740882999102033,-0.4895774596042534,-0.42236217081855953,51.992999999958556
312808.3377,15.74594822512521,1.2895686555969201,0.029580929349045982,-0.13223453588067544,51.993999999947846
312808.3387,15.621262720476723,1.55359244917591,0.5571165632772068,0.15346340811689974,51.99499999999534
312808.3397,15.128274415379007,1.7589239751761305,1.0920219081166438,0.43120345353781425,51.99599999998463
312808.3407,14.277924777718633,1.8933498758765146,1.6259010618464285,0.6890867194388742,51.99699999997392
312808.3417,13.081492390461257,1.9398856391173962,2.1422850391876,0.9068202713321932,51.99799999996321
312808.3427,11.550612499166515,1.8779764688688507,2.6171810014400663,1.056960535280011,51.9989999999525
312808.3437,9.69829951277718,1.6855999668471098,3.0208235165774786,1.1073311295190316,52.0
312808.3447,7.5408142118042365,1.3420672864304248,3.3204581675947207,1.0243897712394927,52.00099999998929
312808.3457,5.100100859381705,0.8312281426313542,3.4838673060530567,0.7772074263999045,52.00199999997858
312808.3467,2.406433128959067,0.14472323644786694,3.483257156311838,0.3416445407865573,52.00299999996787
312808.3477,-0.49913859042909026,-0.7150976508240938,3.299074465966109,-0.29572752616791376,52.00399999995716
312808.3487,-3.5629468336358805,-1.7329589787080149,2.9233151004326023,-1.1344024960155903,52.00499999994645
312808.3497,-6.717836542265639,-2.8794572343237332,2.3619274192120123,-2.157800234794957,52.005999999993946
312808.3507,-9.88353954308887,-4.1110974280309245,1.6359962454767816,-3.332504602629814,52.006999999983236
312808.3517,-12.968447540596154,-5.371677176498169,0.7815106752371268,-4.609041916314317,52.007999999972526
312808.3527,-15.872793685658001,-6.59499637880924,-0.1523407793295833,-5.924216261148619,52.008999999961816
312808.3537,-18.4931019982854,-7.708736926549717,-1.106255212795155,-7.204864978232564,52.009999999951106
312808.3547,-20.727621286636086,-8.639233958680538,-2.0150453117375733,-8.372754511168514,52.0109999999986
312808.3557,-22.48234060951831,-9.316760388424655,-2.812657236462529,-9.350217725589319,52.01199999998789
312808.3567,-23.67709956985891,-9.680880231451766,-3.4375308703695304,-10.066050912338243,52.01299999997718
312808.3577,-24.251268181065083,-9.685400951481979,-3.8378111419316534,-10.46115062206329,52.01399999996647
312808.3587,-24.168482698499005,-9.302474003623772,-3.9759211436449267,-10.493381615398722,52.01499999995576
312808.3597,-23.419985690676153,-8.525455096784727,-3.832057927694443,-10.141227130535205,52.01599999994505
312808.3607,-22.026225774763333,-7.370236256431854,-3.4062657054852554,-9.40587617520428,52.01699999999255
312808.3617,-20.03651533777242,-5.874891590650102,-2.718869902375299,-8.311540148577194,52.01799999998184
312808.3627,-17.52671003371889,-4.097625827467872,-1.8092067929334268,-6.903949896960858,52.01899999997113
312808.3637,-14.595046329963164,-2.1131654572475944,-0.7327426364763552,-5.2471492544373195,52.01999999996042
312808.3647,-11.356436445871447,-0.007872438499385721,0.44317214552927797,-3.4188564663452876,52.02099999994971
312808.3657,-7.935657995005347,2.126023451252241,1.6445389908157704,-1.5047957258246862,52.021999999997206
312808.3667,-4.459975099751612,4.1965965917888495,2.7964685514302077,0.4075052496106389,52.022999999986496
312808.3677,-1.051778890960255,6.118286924592043,3.828940854240029,2.2349082045494977,52.023999999975786
312808.3687,2.1781670872713548,7.817344930752385,4.682049543321049,3.904307921183069,52.024999999965075
312808.3697,5.136347083460922,9.23620968666103,5.310260969182998,5.357240501297672,52.025999999954365
312808.3707,7.750554106500324,10.336466173558257,5.685313427997894,6.553070128233879,52.02700000000186
312808.3717,9.972110309780936,11.100157068566514,5.7975123931213295,7.470503803927703,52.02799999999115
312808.3727,11.776134317143892,11.529373657246433,5.6553315233000365,8.107342362024095,52.02899999998044
312808.3737,13.159921273997304,11.644206319024086,5.283391645303943,8.478542734859198,52.02999999996973
312808.3747,14.139672121694117,11.479282670685512,4.719044976423487,8.612825022435201,52.03099999995902
312808.3757,14.745955515026168,11.079247106001526,4.007924415123665,8.548193176756802,52.03199999994831
312808.3767,15.018394932219998,10.493627423886364,3.1989147722347924,8.326837124155356,52.03299999999581
312808.3777,15.000134475589125,9.771583975326203,2.3390547588256245,7.98993745104263,52.0339999999851
312808.3787,14.732643868734714,8.957039769958632,1.468880200375685,7.572896340113411,52.03499999997439
312808.3797,14.251375665683742,8.084646188067556,0.6186700467016082,7.101470133903082,52.03599999996368
312808.3807,13.582690418293526,7.176952697859414,-0.19403798821275012,6.589184509120151,52.03699999995297
312808.3817,12.742328059922748,6.2430286480047545,-0.9654266260870464,6.03628201378163,52.038000000000466
312808.3827,11.735539545777891,5.278642366070057,-1.704792474251057,5.43029645932371,52.038999999989755
312808.3837,10.55881796954503,4.267951117848264,-2.432436367069764,4.748184506669628,52.039999999979045
312808.3847,9.203000157594293,3.18650943543385,-3.1762884962086515,3.959787736025972,52.040999999968335
312808.3857,7.657364743504769,2.005276779336066,-3.9676379199434963,3.032263857308804,52.041999999957625
312808.3867,5.9142453577952265,0.6952104287197938,-4.8364308049899405,1.935026647586413,52.042999999946915
312808.3877,3.973618624115641,-0.7680251844345949,-5.806649779598781,0.6446804005545751,52.04399999999441
312808.3887,1.8471222436134163,-2.399710733243109,-6.892282813110812,-0.8505685334798199,52.0449999999837
312808.3897,-0.43899061742130624,-4.202527031575421,-8.0943339524118,-2.547492726019292,52.04599999997299
312808.3907,-2.8423527442737253,-6.164174816489195,-9.399225089728201,-4.425792469902971,52.04699999996228
312808.3917,-5.304689372621593,-8.256407442898311,-10.77879749759125,-6.447655950060529,52.04799999995157
312808.3927,-7.7538087476879065,-10.435587335358607,-12.191957760645868,-8.55901784132755,52.04899999999907
312808.3937,-10.107274427949195,-12.644729498650692,-13.587841106007014,-10.692437297400069,52.04999999998836
312808.3947,-12.2774824204157,-14.81685186458727,-14.910203104012048,-12.771356734197424,52.05099999997765
312808.3957,-14.177715540436823,-16.87932656948355,-16.102614705562917,-14.71536533967809,52.05199999996694
312808.3967,-15.728635655485897,-18.758830492537143,-17.113939713759887,-16.445989345287895,52.05299999995623
312808.3977,-16.864613141106915,-20.386436714595877,-17.9035284423507,-17.892474872581996,52.05399999994552
312808.3987,-17.539288645582268,-21.702376371056225,-18.445572080979577,-18.99702434927176,52.054999999993015
312808.3997,-17.729816400365007,-22.660033762788466,-18.73212934001428,-19.7189948519732,52.055999999982305
312808.4007,-17.43934650748164,-23.22881323977933,-18.774454937206137,-20.03766201110911,52.056999999971595
312808.4017,-16.697456340668765,-23.39562688002838,-18.60241797176717,-19.953287377949554,52.057999999960884
312808.4027,-15.558424515396124,-23.16488657037587,-18.26198259722607,-19.4863876508952,52.058999999950174
312808.4037,-14.097437847375158,-22.55702963563565,-17.810916215364575,-18.675275519048984,52.05999999999767
312808.4047,-12.405013883061098,-21.605749461336497,-17.31307304380876,-17.572107591266562,52.06099999998696
312808.4057,-10.580090762246018,-20.35422771254144,-16.83175532435276,-16.23781886624603,52.06199999997625
312808.4067,-8.722366161867722,-18.85076050707352,-16.4227649455988,-14.736431390012346,52.06299999996554
312808.4077,-6.924545207825964,-17.144227829936607,-16.127813058140326,-13.129286438056837,52.06399999995483
312808.4087,-5.265175625281412,-15.279867906776214,-15.96894767292115,-11.469758472813945,52.06500000000233
312808.4097,-3.802704667154565,-13.295784837168352,-15.94458839904232,-9.79896404507597,52.06599999999162
312808.4107,-2.571289957105791,-11.220541639667328,-16.02762855874158,-8.142883720100114,52.06699999998091
312808.4117,-1.5787442625085164,-9.0720792791628,-16.16588869911844,-6.511178858079378,52.0679999999702
312808.4127,-0.8068060312608112,-6.858066025059404,-16.284997468751254,-4.8978205331229105,52.06899999995949
312808.4137,-0.21372038044806452,-4.577633879020045,-16.2935546906918,-3.283470709866346,52.06999999994878
312808.4147,0.26109193814005827,-2.2243142534965505,-16.090217542423208,-1.639382996602213,52.070999999996275
312808.4157,0.6906882219366972,0.2101421897017062,-15.57216400827753,0.067561477150122,52.071999999985565
312808.4167,1.1531425848380783,2.731473970408992,-14.64424594024142,1.8691835119304987,52.072999999974854
312808.4177,1.7236336909733194,5.338615495258978,-13.2280609816788,3.7902699108250064,52.073999999964144
312808.4187,2.4667870421504943,8.019883803006325,-11.270156866592188,5.843356204709179,52.074999999953434
312808.4197,3.4299554809498116,10.75009139969074,-8.748635699730432,8.024570900716057,52.07600000000093
312808.4207,4.638037998373327,13.488950946242923,-5.677545856246155,10.310990592156877,52.07699999999022
312808.4217,6.090299374134196,16.181019929922396,-2.1086251317518596,12.659817906612016,52.07799999997951
312808.4227,7.7594742531300955,18.75728935536637,1.8698244734858924,15.009525835839822,52.0789999999688
312808.4237,9.593235384713543,21.13836344425146,6.136911484923506,17.282928257636218,52.07999999995809
312808.4247,11.517895591750422,23.239022203698475,10.545721317687665,19.391954715431304,52.08099999994738
312808.4257,13.44401578284561,24.973820321743556,14.931998104591258,21.243744928185084,52.08199999999488
312808.4267,15.273424892748308,26.263267503089313,19.124287740354248,22.74755045474466,52.08299999998417
312808.4277,16.90703701221896,27.040067632984098,22.954765837209287,23.821849581771577,52.08399999997346
312808.4287,18.25278679474637,27.25487381926507,26.269918924387333,24.401054577142993,52.08499999996275
312808.4297,19.23300183019576,26.88104571743322,28.940263100912414,24.44122052730494,52.08599999995204
312808.4307,19.790589585391835,25.917972195798765,30.868369488131872,23.9242492299309,52.086999999999534
312808.4317,19.893530540621505,24.392639470019112,31.994611953973546,22.860212092183954,52.087999999988824
312808.4327,19.537327018139525,22.359271624570564,32.30024596731285,21.287580395573332,52.088999999978114
312808.4337,18.745243644009754,19.897033438828934,31.807650252625013,19.27133419074744,52.089999999967404
312808.4347,17.56637266029696,17.105949640591266,30.577794930184496,16.899105391031668,52.09099999995669
312808.4357,16.071746896410637,14.10134504806073,28.70522035610867,14.27567925171156,52.09199999994598
312808.4367,14.348887616742601,11.007232832214763,26.311000692609607,11.516315894198973,52.09299999999348
312808.4377,12.495298869385396,7.949162302452395,23.534309333967034,8.739447495022668,52.09399999998277
312808.4387,10.61149362500617,5.047075855935427,20.523288320786236,6.059349088587815,52.09499999997206
312808.4397,8.794154231509635,2.408714070648006,17.425945028336283,3.579368487743509,52.09599999996135
312808.4407,7.129990374988176,0.12405001563916274,14.38175696822272,1.3862356930497797,52.09699999995064
312808.4417,5.6907671634495,-1.7388652298819556,11.514565615813915,-0.45413860132026435,52.09799999999814
312808.4427,4.52984434619756,-3.1363942441736943,8.927194049432575,-1.8991108907043834,52.09899999998743
312808.4437,3.6804090588465965,-4.050039519606472,6.698046122962362,-2.9298996383554523,52.09999999997672
312808.4447,3.1554152116114573,-4.485455083449888,4.879754595273131,-3.5503963234238896,52.10099999996601
312808.4457,2.949079784034357,-4.469937568591734,3.499760509225406,-3.784418673077681,52.1019999999553
312808.4467,3.039645902711674,-4.048710864336009,2.5625434677304915,-3.6717615109059043,52.102999999944586
312808.4477,3.3930180981376883,-3.28040454323792,2.053096883853109,-3.263491350626927,52.103999999992084
312808.4487,3.9668160746420305,-2.2321711386060374,1.941164297181373,-2.616974957127323,52.10499999998137
312808.4497,4.7143843659836175,-0.9748879908941697,2.185727953797697,-1.7911265287424638,52.10599999997066
312808.4507,5.588335836067861,0.42115285811001574,2.7392691179534623,-0.8423048310362437,52.10699999995995
312808.4517,6.543291462156974,1.8897428130455411,3.5513957867657147,0.1788028549403087,52.10799999994924
312808.4527,7.537597091439213,3.3712267610195856,4.571547713602761,1.2290981195430302,52.10899999999674
312808.4537,8.533936410922069,4.813853021362403,5.750627433872829,2.2737203772400414,52.10999999998603
312808.4547,9.498902796286611,6.174038661758435,7.04155370408923,3.28550179193582,52.11099999997532
312808.4557,10.401725260100848,7.4157030684290905,8.398874259733999,4.243433900792689,52.11199999996461
312808.4567,11.212450959043082,8.50891813045066,9.777693039359004,5.13045669470558,52.1129999999539
312808.4577,11.899956988879524,9.42818740313276,11.132250615800928,5.930949088621617,52.1140000000014
312808.4587,12.430189823514688,10.150693049619461,12.414536988075703,6.628324362413353,52.11499999999069
312808.4597,12.765008833028944,10.654836107944616,13.573309276159204,7.203113146505506,52.11599999997998
312808.4607,12.861942992625966,10.919344742867583,14.553834414374624,7.6318524677938955,52.116999999969266
312808.4617,12.67506414615189,10.923142589712048,15.298584709350925,7.886999300519534,52.117999999958556
312808.4627,12.157047101781263,10.646064335189662,15.748992369542117,7.937961727691377,52.118999999947846
312808.4637,11.262340476951485,10.070389876465583,15.848231199288701,7.753203557041071,52.11999999999534
312808.4647,9.951228177070924,9.183054440788299,15.544854684122326,7.303243639080041,52.12099999998463
312808.4657,8.194435236261521,7.978292432768911,14.79699494760846,6.564253553081226,52.12199999997392
312808.4667,5.97783737339713,6.460398534642575,13.57673040557988,5.521869417354838,52.12299999996321
312808.4677,3.3067818579823665,4.6462491469010425,11.874172430546832,4.174785026367371,52.1239999999525
312808.4687,0.20952478118207835,2.5672255869900424,9.700810059454756,2.5376900436394028,52.125
312808.4697,-3.2606616668930855,0.27021854415455787,7.091689131276927,0.6431597622534511,52.12599999998929
312808.4707,-7.025062173818776,-2.1825319981117905,4.106085669223907,-1.4578115246515346,52.12699999997858
312808.4717,-10.980986226179665,-4.714902735446952,0.826455540043472,-3.6968210882901262,52.12799999996787
312808.4727,-15.005182931872257,-7.239676187920685,-2.6444078831236686,-5.9906559745366685,52.12899999995716
312808.4737,-18.959079958039386,-9.66253873209563,-6.18791339764616,-8.245369254342036,52.12999999994645
312808.4747,-22.695553639737717,-11.887047321868911,-9.675653939215945,-10.36157695875743,52.130999999993946
312808.4757,-26.066788148674117,-13.820217190809393,-12.976433697154912,-12.24059084279098,52.131999999983236
