TimeStamp,ECR,FCR,ECU,FCU,time_index
312792.3437,-62.28129183380747,-53.88044075649173,-24.35596256779597,-37.2104264296078,36.0
312792.3447,-56.41883288369494,-47.52669321333871,-6.780123371571588,-27.74429270537204,36.00099999998929
312792.3457,-48.81217344956315,-39.89254642255361,12.33738538189707,-16.79627073199456,36.00199999997858
312792.3467,-39.698761756019614,-31.239807628789045,32.42576531583883,-4.707253024689757,36.00299999996787
312792.3477,-29.362598408213685,-21.86444496509331,52.86367242674097,8.140250592005644,36.00399999995716
312792.3487,-18.122577194191464,-12.084326916723999,73.00236071647663,21.337295031620634,36.00499999994645
312792.3497,-6.32028215460821,-2.226790970900541,92.18954926942209,34.46407054353275,36.005999999993946
312792.3507,5.692155463211085,7.383343932423816,109.79297525507715,47.1051240835987,36.006999999983236
312792.3517,17.56363494278597,16.43481360526386,125.22269617459857,58.863595587937844,36.007999999972526
312792.3527,28.954714696455614,24.639617139883967,137.951345254979,69.3739651658297,36.008999999961816
312792.3537,39.54703809607427,31.741162100802807,147.53170861972058,78.31295443382334,36.009999999951106
312792.3547,49.05142750899164,37.520746564923435,153.61116624222663,85.4083731433481,36.0109999999986
312792.3557,57.21462428193841,41.80239669548787,155.94270678551965,90.44583776763658,36.01199999998789
312792.3567,63.82473223003941,44.456170072440926,154.39237800129746,93.27340128478369,36.01299999997718
312792.3577,68.71546975959332,45.40009361914654,148.94316159386645,93.804215945399,36.01399999996647
312792.3587,71.76934994481714,44.600928751165306,139.69536033900937,92.01740017370683,36.01499999995576
312792.3597,72.9198915956199,42.07394742872524,126.86365554683061,87.95729771358216,36.01599999994505
312792.3607,72.15292404410657,37.881866823915416,110.77103783676864,81.73130613293488,36.01699999999255
312792.3617,69.50699320659407,32.133035876521184,91.8398395556481,73.50642025878356,36.01799999998184
312792.3627,65.07281725263249,24.978904521158572,70.58011075823256,63.504593490272484,36.01899999997113
312792.3637,58.991688160501496,16.610746915541217,47.57559100743806,51.996976598142844,36.01999999996042
312792.3647,51.45268094749341,7.255564124359611,23.467544511824705,39.29705963182397,36.02099999994971
312792.3657,42.6885237973967,-2.828931780154152,-1.0632469770554072,25.752726491501345,36.021999999997206
312792.3667,32.97000501595437,-13.360345295232877,-25.315996231542574,11.737239622101812,36.022999999986496
312792.3677,22.598848361576337,-24.038693888483095,-48.59053033811845,-2.360793123381302,36.023999999975786
312792.3687,11.899074413574796,-34.554564732653496,-70.20854625746848,-16.148357137559746,36.024999999965075
312792.3697,1.2069758894954457,-44.59823313898435,-89.53494661560062,-29.239681753794986,36.025999999954365
312792.3707,-9.14004059863214,-53.86953801285257,-105.99861666979423,-41.268315592003034,36.02700000000186
312792.3717,-18.81536729667197,-62.088198948205026,-119.11193109010516,-51.89924319943256,36.02799999999115
312792.3727,-27.515368639781226,-69.00415691841887,-128.4882302584904,-60.84057375630745,36.02899999998044
312792.3737,-34.97123162364879,-74.40743877182086,-133.85649193492281,-67.85426906939402,36.02999999996973
312792.3747,-40.959857356439514,-78.13699649629764,-135.0724551615273,-72.76534777920364,36.03099999995902
312792.3757,-45.31315198687249,-80.08796447477604,-132.12553562743315,-75.46901393485044,36.03199999994831
312792.3767,-47.92512065175592,-80.21681699428382,-125.14100740596909,-75.93521537923935,36.03299999999581
312792.3777,-48.75626513367239,-78.54399490556992,-114.37711188264944,-74.21024080049885,36.0339999999851
312792.3787,-47.83492969338391,-75.1537005840274,-100.21698243558168,-70.41510916956925,36.03499999997439
312792.3797,-45.25542035162625,-70.19072564550723,-83.15552981455947,-64.7406824247296,36.03599999996368
312792.3807,-41.17292701423418,-63.85436373611726,-63.781701187231384,-57.43962873901332,36.03699999995297
312792.3817,-35.795488730526905,-56.38965585615911,-42.756786131802876,-48.81556396149085,36.038000000000466
312792.3827,-29.373442271708253,-48.07640144928737,-20.789675536395528,-39.209886158206146,36.038999999989755
312792.3837,-22.1869658259277,-39.21652850659225,1.38983418069634,-28.986976370729224,36.039999999979045
312792.3847,-14.5324578456816,-30.120535713513227,23.058474353340564,-18.518553622930988,36.040999999968335
312792.3857,-6.708564582471851,-21.093788073143525,43.526405419004526,-8.168033206654341,36.041999999957625
312792.3867,0.9973179126474616,-12.423457828025903,62.162342250771864,1.724261690460727,36.042999999946915
312792.3877,8.321291577601313,-4.3668533946266415,78.4157612146147,10.854244747942792,36.04399999999441
312792.3887,15.033285930933115,2.8582257391791512,91.83521781627744,18.96489359506095,36.0449999999837
312792.3897,20.944957316703466,9.080621837400763,102.08203162450937,25.85424843837173,36.04599999997299
312792.3907,25.914835787437166,14.180138768103518,108.9388629053849,31.380268567543016,36.04699999996228
312792.3917,29.85060547376367,18.088952058198647,112.3129936274893,35.46244794773806,36.04799999995157
312792.3927,32.70861208789,20.7902172819585,112.23441376347601,38.08030640879504,36.04899999999907
312792.3937,34.4908815549776,22.314173976978307,108.84908237546477,39.26907157464298,36.04999999998836
312792.3947,35.240091233874466,22.73220014037171,102.40796431173617,39.11303327072303,36.05099999997765
312792.3957,35.033047639478006,22.149386716202383,93.25262344986761,37.737174355732165,36.05199999996694
312792.3967,33.97328417700568,20.696264100640335,81.79827274934256,35.2977514349722,36.05299999995623
312792.3977,32.183396220293,18.52032005026462,68.5152354213319,31.97251209982161,36.05399999994552
312792.3987,29.79768107452725,15.77790194605187,53.90976100708511,27.951193503068925,36.054999999993015
312792.3997,26.955553932425932,12.627002394027059,38.50507080127986,23.4268562690733,36.055999999982305
312792.4007,23.79607894886981,9.22129605882372,22.823388963462158,18.588478145204125,36.056999999971595
312792.4017,20.453801158035684,5.705641033278969,7.369562329138765,13.615076805780873,36.057999999960884
312792.4027,17.055905979384534,2.213095441347591,-7.383301009975886,8.671466131744776,36.058999999950174
312792.4037,13.720584540338685,-1.13665473246678,-21.005920546971755,3.9055909116266085,36.05999999999767
312792.4047,10.556359675841831,-4.2376925849866565,-33.12256995950629,-0.5527539540956092,36.06099999998696
312792.4057,7.662041168988958,-6.997425001919675,-43.41849071173688,-4.592119612730628,36.06199999997625
312792.4067,5.126937549331479,-9.33568156545105,-51.64514594064991,-8.11887886801555,36.06299999996554
312792.4077,3.0309588031530073,-11.183749964884548,-57.62353177916771,-11.056363396549733,36.06399999995483
312792.4087,1.4442978420972317,-12.483699419015899,-61.24578633886504,-13.34401704143682,36.06500000000233
312792.4097,0.4264718111789049,-13.188261869548171,-62.47532271490707,-14.936851264301405,36.06599999999162
312792.4107,0.02462639517532633,-13.261427891511534,-61.34566929379917,-15.805388911095498,36.06699999998091
312792.4117,0.2711432521322676,-12.679783414387426,-57.95813883075951,-15.936163231727683,36.0679999999702
312792.4127,1.1807270190210295,-11.434479244157245,-52.47837917416727,-15.332714602460102,36.06899999995949
312792.4137,2.7472684829903784,-9.53360302666878,-45.13179516961501,-14.016911928997692,36.06999999994878
312792.4147,4.940870621164505,-7.0046263666139605,-36.19778393805942,-12.030332350837556,36.070999999996275
312792.4157,7.705473482240343,-3.8965392567970314,-26.002702796942938,-9.435372190488037,36.071999999985565
312792.4167,10.957515678267184,-0.28126690555142053,-14.911495847392775,-6.3157411037554985,36.072999999974854
312792.4177,14.586022757709314,3.7460068939690507,-3.3179433966298326,-2.7760128997004383,36.073999999964144
312792.4187,18.454419104063103,8.067912609959967,8.366433974151866,1.0600310808783076,36.074999999953434
312792.4197,22.4042280590247,12.547556177768094,19.724692975783807,5.052432570317741,36.07600000000093
312792.4207,26.260666388083603,17.03282286807274,30.34777490488207,9.049504079804983,36.07699999999022
312792.4217,29.839968409571203,21.36222605132885,39.84845628189449,12.89359942051823,36.07799999997951
312792.4227,32.95810787766299,25.37205123025752,47.87548672673519,16.427974660672994,36.0789999999688
312792.4237,35.440437704659,28.90440853221487,54.12736411207884,19.504381773626672,36.07999999995809
312792.4247,37.13165290808148,31.815697503059706,58.36512926254236,21.990936884093774,36.08099999994738
312792.4257,37.9054119812801,33.98491712627967,60.42352921213547,23.77973971065755,36.08199999999488
312792.4267,37.672933534634964,35.32122860958624,60.21990525158888,24.793697386379794,36.08299999998417
312792.4277,36.38992133501303,35.77020163636112,57.760212699745445,24.992027411076222,36.08399999997346
312792.4287,34.06125984346442,35.31824516172571,53.14167334804491,24.373980161059112,36.08499999996275
312792.4297,30.743057565916164,33.99483602386659,46.55169551794811,22.98042643241712,36.08599999995204
312792.4307,26.541786665048313,31.87230368602525,38.26286436638812,20.893091858858345,36.086999999999534
312792.4317,21.61046109900198,29.063095706226964,28.623997671650315,18.23137709420788,36.087999999988824
312792.4327,16.141997092509637,25.714622843119468,18.047469032119324,15.14686814724017,36.088999999978114
312792.4337,10.360093599498743,22.001951406501064,6.9932090415466925,11.815802410456477,36.089999999967404
312792.4347,4.5081419799693006,18.118760606162013,-4.050007286629603,8.429900422433006,36.09099999995669
312792.4357,-1.163189286833038,14.26710300412891,-14.585204581028206,5.186090356003938,36.09199999994598
312792.4367,-6.408957227233014,10.646588019138663,-24.128862073780383,2.275732954572702,36.09299999999348
312792.4377,-11.002756029423576,7.443646163474678,-32.2325665410938,-0.12600672129675602,36.09399999998277
312792.4387,-14.748572310647832,4.82152314711121,-38.503611857291894,-1.8700005000937523,36.09499999997206
312792.4397,-17.490983494143734,2.911599512007038,-42.62351403353925,-2.841621237813968,36.09599999996135
312792.4407,-19.123110424946237,1.8065377456961274,-44.36349067225133,-2.9673302283177803,36.09699999995064
312792.4417,-19.59188503262757,1.555632477455516,-43.596090823235755,-2.219011814253137,36.09799999999814
312792.4427,-18.900370259509362,2.1625902981289813,-40.302348448541764,-0.6158265838989692,36.09899999998743
312792.4437,-17.107059514439428,3.5858054051540713,-34.5740595454624,1.7764852326104985,36.09999999997672
312792.4447,-14.322272702297388,5.741037724365762,-26.611035793025092,4.848757531412414,36.10099999996601
312792.4457,-10.701941810227114,8.506253151870379,-16.713450532311523,8.453766731854731,36.1019999999553
312792.4467,-6.43922880477776,11.728261610958771,-5.26964906975319,12.413444398780277,36.102999999944586
312792.4477,-1.7545321548012969,15.230696189848851,7.2599719429095595,16.527466857617558,36.103999999992084
312792.4487,3.115491403786495,18.822821448704573,20.362217002029503,20.582695132134457,36.10499999998137
312792.4497,7.929239704613524,22.30864360853932,33.49253342417737,24.362919633001727,36.10599999997066
312792.4507,12.451185339887585,25.4958189221806,46.09761474321699,27.658385300103067,36.10699999995995
312792.4517,16.462041216781042,28.203914927554383,57.638116034981955,30.274630494695355,36.10799999994924
312792.4527,19.76760959302388,30.271665399903945,67.61046995132078,32.040259822913974,36.10899999999674
312792.4537,22.205977343971906,31.56296426292842,75.56688542167038,32.81337771000979,36.10999999998603
312792.4547,23.652857287865736,31.971455708535398,81.13274831052561,32.48652482241012,36.11099999997532
312792.4557,24.025012137786792,31.423686220038864,84.02081142050265,30.990071814185654,36.11199999996461
312792.4567,23.281821906034317,29.880878849550378,84.04174528887103,28.294123628635205,36.1129999999539
312792.4577,21.425157066493917,27.33946267053628,81.11080663680187,24.409063977875064,36.1140000000014
312792.4587,18.49779111571601,23.830535372292857,75.25055525763645,19.384917879846412,36.11499999999069
312792.4597,14.580623671607157,19.41845249771671,66.58970276114684,13.309728075947188,36.11599999997998
312792.4607,9.788989222224089,14.198724507416777,55.35830193902622,6.30713040860754,36.116999999969266
312792.4617,4.2683012627165695,8.295367741831521,41.87958167386144,-1.4667210219174829,36.117999999958556
312792.4627,-1.810765722292378,1.8578052537678023,26.558801140444924,-9.826777849277173,36.118999999947846
312792.4637,-8.257413440605522,-4.942642045890576,9.869543378183415,-18.563224893985883,36.11999999999534
312792.4647,-14.86609405754885,-11.916684347201045,-7.66210119965036,-27.446116003801357,36.12099999998463
312792.4657,-21.422091415100958,-18.86145925428142,-25.474989008769583,-36.23055940711145,36.12199999997392
312792.4667,-27.707313331321092,-25.565458081210767,-42.991523464589974,-44.66250784961016,36.12299999996321
312792.4677,-33.50630968936827,-31.814034170828453,-59.63688801870291,-52.485196231154326,36.1239999999525
312792.4687,-38.61251548027086,-37.39550773742657,-74.85837400408923,-59.446229200183524,36.125
312792.4697,-42.83467767513792,-42.107820000562434,-88.14423809553415,-65.30525603116287,36.12599999998929
312792.4707,-46.00336484343079,-45.76560970307812,-99.04149917675214,-69.84208653336074,36.12699999997858
312792.4717,-47.977386960614076,-48.207496585563284,-107.17206809133215,-72.86500906466303,36.12799999996787
312792.4727,-48.64988012123151,-49.303269953221836,-112.2466040220063,-74.21898120119411,36.12899999995716
312792.4737,-47.953748020948616,-48.96060765867471,-114.07551607448923,-73.79328714337387,36.12999999994645
312792.4747,-45.866109746954805,-47.130902464463844,-112.5765848517216,-71.52820473413324,36.130999999993946
312792.4757,-42.41139050209421,-43.81375769906984,-107.77877085727894,-67.42020826245022,36.131999999983236
312792.4767,-37.66271438854422,-39.05973819762357,-99.82190563856926,-61.52525718964472,36.132999999972526
312792.4777,-31.741318621063673,-32.97102773777341,-88.95212496783155,-53.959787863209215,36.133999999961816
312792.4787,-24.81380477188797,-25.699748372657933,-75.51309431906672,-44.89913318724368,36.134999999951106
312792.4797,-17.087169043557193,-17.443833911187536,-59.933284947552984,-34.5732378413883,36.1359999999986
312792.4807,-8.801700664908502,-8.440509296854819,-42.70977052663095,-23.259703888618407,36.13699999998789
312792.4817,-0.22199304082238325,1.0424030650100073,-24.389214161156264,-11.274380390461303,36.13799999997718
312792.4827,8.373537690250357,10.716964445108887,-5.546887780924186,1.0401139874997618,36.13899999996647
312792.4837,16.70410181341595,20.28685794221925,13.23530447773029,13.327389859776318,36.13999999995576
312792.4847,24.498330808733332,29.45974182547001,31.39075266908833,25.231138673081468,36.14099999994505
312792.4857,31.505742152512823,37.95950970288368,48.38895991206218,36.40909001383867,36.14199999999255
312792.4867,37.50719591168299,45.537735113828255,63.754252662805946,46.54630318360831,36.14299999998184
312792.4877,42.32371566184315,51.983619730267094,77.08150313712883,55.36705421911124,36.14399999997113
312792.4887,45.823148101105915,57.13185969716232,88.04816488483132,62.644668096204555,36.14499999996042
312792.4897,47.92428142869931,60.86798692641216,96.42214896768442,68.20878392430267,36.14599999994971
312792.4907,48.59822058062936,63.13092014309019,102.06532453980482,71.94971757309705,36.146999999997206
312792.4917,47.86701294102337,63.91265949283621,104.93269486363283,73.81978686445446,36.147999999986496
312792.4927,45.799714428160236,63.25526177846968,105.06755784102843,73.83167244491277,36.148999999975786
312792.4937,42.506265798155546,61.2454235780304,102.59318960859311,72.05408526361492,36.149999999965075
312792.4947,38.12969682305467,58.00716035347829,97.70177362812142,68.60518267612291,36.150999999954365
312792.4957,32.8372787153954,53.69318753662182,90.64142283239919,63.64430549961255,36.15200000000186
312792.4967,26.811293912984798,48.47567471049747,81.70220056028181,57.362687554986124,36.15299999999115
312792.4977,20.240083205473898,42.537051434597984,71.20203465947905,49.97381176616962,36.15399999998044
312792.4987,13.309964661476574,36.06149331680903,59.47334147826527,41.70405239508111,36.15499999996973
312792.4997,6.1985036610109185,29.227615193934103,46.85104120862701,32.78415635950044,36.15599999995902
312792.5007,-0.9305400268768277,22.20275505640939,33.6624665642484,23.4419874473658,36.15699999994831
312792.5017,-7.930438745923452,15.139061706929756,20.21945995482268,13.89679905207867,36.15799999999581
312792.5027,-14.672930244579815,8.171417565234231,6.812739048454372,4.355129764251943,36.1589999999851
312792.5037,-21.04806187844479,1.4170528657182555,-6.291593846068071,-4.991751312263708,36.15999999997439
312792.5047,-26.96279257143625,-5.023444712425812,-18.85369887174007,-13.969070043068728,36.16099999996368
312792.5057,-32.338800230631726,-11.064136021616868,-30.660234483504073,-22.41877736252817,36.16199999995297
312792.5067,-37.10999173934307,-16.63123058317805,-41.52369192953573,-30.199186579017894,36.163000000000466
312792.5077,-41.22020625833144,-21.660573693012516,-51.281355892948056,-37.184438897455756,36.163999999989755
312792.5087,-44.62154154137828,-26.09557388191022,-59.794377002132826,-43.26418558452675,36.164999999979045
312792.5097,-47.27362404536421,-29.88593593564867,-66.94734671308336,-48.3437961789725,36.165999999968335
312792.5107,-49.14399842771877,-32.98743750483103,-72.64862786126186,-52.345286037979605,36.166999999957625
312792.5117,-50.20964602098195,-35.36283483185527,-76.83153050912503,-55.209016511010034,36.167999999946915
312792.5127,-50.459472803117755,-36.983821524408555,-79.45625078365475,-56.89607287932876,36.16899999999441
312792.5137,-49.89745354184649,-37.83381081246317,-80.51232929706329,-57.39108558253885,36.1699999999837
312792.5147,-48.54599719768981,-37.91118280522207,-80.02125353940356,-56.705145124348554,36.17099999997299
312792.5157,-46.4490233197791,-37.23254799890186,-78.03874051458511,-54.87838398294161,36.17199999996228
312792.5167,-43.67421956698793,-35.835536941973885,-74.65620257095989,-51.981769618838584,36.17299999995157
312792.5177,-40.31399059695684,-33.7806389141002,-70.00092589384978,-48.11767617853122,36.17399999999907
312792.5187,-36.48470627997595,-31.15167958772927,-64.23457621337666,-43.41887817529442,36.17499999998836
312792.5197,-32.32400440522234,-28.054643210404688,-57.54978236863232,-38.045731212948034,36.17599999997765
312792.5207,-27.98608631720619,-24.614698073551182,-50.16472226262285,-32.18146162134654,36.17699999996694
312792.5217,-23.635145716263604,-20.97146004064854,-42.31582991501762,-26.02566364329533,36.17799999995623
312792.5227,-19.437271227696545,-17.272710180403088,-34.248936716338754,-19.78628200686331,36.17899999994552
312792.5237,-15.551341896150703,-13.666950687283109,-26.209334142702083,-13.670521064204552,36.179999999993015
312792.5247,-12.119572727344568,-10.295320855386342,-18.43138042728053,-7.875252061771424,36.180999999982305
312792.5257,-9.258449581501674,-7.283487268969531,-11.128355132834425,-2.5775733563583976,36.181999999971595
312792.5267,-7.05080910458379,-4.734159267284308,-4.483283764412118,2.0737952135804427,36.182999999960884
312792.5277,-5.539766219798899,-2.7208572268767135,1.358593563711357,5.96563727010607,36.183999999950174
312792.5287,-4.725071975019317,-1.2834783228492033,6.29514622558747,9.025331607832996,36.18499999999767
312792.5297,-4.562307729280819,-0.4260690918958328,10.270070456604847,11.223503822906624,36.18599999998696
312792.5307,-4.965102848242689,-0.1170384221660456,13.272802065634146,12.574015691471304,36.18699999997625
312792.5317,-5.810321511749769,-0.2918446204680829,15.335647394392026,13.131277255407468,36.18799999996554
312792.5327,-6.9459214803342,-0.8579844283719487,16.52837531517125,12.985077368985563,36.18899999995483
312792.5337,-8.200965544259843,-1.701919320975016,16.950712028007768,12.25332378147741,36.19000000000233
312792.5347,-9.397084904263886,-2.6974128895332776,16.723340714062832,11.073246013126987,36.19099999999162
312792.5357,-10.360569240816808,-3.7146373554406216,15.978115775632633,9.591728832800271,36.19199999998091
312792.5367,-10.9342018591383,-4.629347672672029,14.848247530021332,7.955501108251026,36.1929999999702
312792.5377,-10.9879749905203,-5.331423287490215,13.459194665613047,6.301899659825066,36.19399999995949
312792.5387,-10.427908409954462,-5.732139702906549,11.920921286321322,4.750861801613479,36.19499999994878
312792.5397,-9.202345910427034,-5.7696481682675325,10.322041294359314,3.3986804074077437,36.195999999996275
312792.5407,-7.305305170616614,-5.412300750972678,8.726198196542551,2.3138933699287767,36.196999999985565
312792.5417,-4.7766892083356645,-4.659644611400126,7.170829552157576,1.5354906794190053,36.197999999974854
312792.5427,-1.6994114137970153,-3.5411060559331258,5.6682603944537515,1.0734246183083724,36.198999999964144
312792.5437,1.8062800311375269,-2.112573851555434,4.208877319863565,0.9112197672172513,36.199999999953434
312792.5447,5.590788516591401,-0.4512554484892285,2.7659712189293586,1.0103163738500807,36.20100000000093
312792.5457,9.484818743858414,1.3506950027399145,1.3017154057308167,1.3156570449097482,36.20199999999022
312792.5467,13.309943368551274,3.1932018004655367,-0.2263234718613654,1.7619525005661274,36.20299999997951
312792.5477,16.889305993535245,4.9753491781939045,-1.8587575314535132,2.2800422032009573,36.2039999999688
312792.5487,20.057711289240988,6.601954879259553,-3.6286064027412075,2.8027997286086177,36.20499999995809
312792.5497,22.670444296250828,7.989153393373308,-5.556664659204699,3.270115420611937,36.20599999994738
312792.5507,24.610301503942118,9.068627856385596,-7.648359114630271,3.6326103783049626,36.20699999999488
312792.5517,25.792491358509,9.790277547370735,-9.89229048200298,3.8538830244839684,36.20799999998417
312792.5527,26.167254144207618,10.123267145060456,-12.260486725732894,3.911247230568359,36.20899999997346
312792.5537,25.720242571655305,10.055558635957523,-14.710233557600214,3.7950735503172566,36.20999999996275
312792.5547,24.47087766114638,9.592162171637781,-17.187205663616798,3.506977872813485,36.21099999995204
312792.5557,22.469034889675854,8.752445809556813,-19.629512772051616,3.057202474264352,36.211999999999534
312792.5567,19.790512150527206,7.566907034385888,-21.972206533040033,2.461594284269509,36.212999999988824
312792.5577,16.531777638644353,6.073826655621397,-24.151772213810627,1.738599725868727,36.213999999978114
312792.5587,12.804491231886173,4.316198171074362,-26.11015385442136,0.9066648854437207,36.214999999967404
312792.5597,8.730241214736179,2.3392575477822777,-27.79792893387794,-0.017641369959867308,36.21599999995669
312792.5607,4.435847640210017,0.1888381111899404,-29.1763511477515,-1.0205668782349944,36.21699999994598
312792.5617,0.049466024324272245,-2.08934565231368,-30.218107012940525,-2.0910875523726626,36.21799999999348
312792.5627,-4.302405679620279,-4.449509811493973,-30.906771173508915,-3.219830976988489,36.21899999998277
312792.5637,-8.497043189861072,-6.844854543928996,-31.23508317906161,-4.397177284118004,36.21999999997206
312792.5647,-12.416875523969601,-9.22610860504488,-31.202292233188075,-5.610807930531813,36.22099999996135
312792.5657,-15.95035573282098,-11.539886794794022,-30.810914561774158,-6.843048729786551,36.22199999995064
312792.5667,-18.99260207754612,-13.727218274966981,-30.063311700863014,-8.068391771405071,36.22299999999814
312792.5677,-21.446100808778183,-15.722598473411914,-28.95852143744225,-9.251577837841662,36.22399999998743
312792.5687,-23.22173338305036,-17.453871784093053,-27.48975431148589,-10.346576841360951,36.22499999997672
312792.5697,-24.24032649062021,-18.84317084909937,-25.64290926554035,-11.29672289676552,36.22599999996601
312792.5707,-24.434830426504067,-19.809028966401907,-23.39636757439789,-12.03615073960804,36.2269999999553
312792.5717,-23.753120763225848,-20.269655927874574,-20.722203057832367,-12.492551898826111,36.227999999944586
312792.5727,-22.161302411511627,-20.147236855703067,-17.58880954824448,-12.591134695195832,36.228999999992084
312792.5737,-19.64728692652482,-19.372991332193674,-13.964805790263773,-12.259544683016678,36.22999999998137
312792.5747,-16.22432549128345,-17.892628485023145,-9.823945844128549,-11.433393840675189,36.23099999997066
312792.5757,-11.93412156865188,-15.67176293908878,-5.150651365225143,-10.061968100314997,36.23199999995995
312792.5767,-6.849125985789734,-12.70082403217706,0.05429915738954797,-8.113641381597455,36.23299999994924
312792.5777,-1.073636788451529,-8.99900021312313,5.768432535783635,-5.5805244077664815,36.23399999999674
312792.5787,5.256613805382237,-4.616812008121548,11.943103959634369,-2.4819186776474482,36.23499999998603
312792.5797,11.976606925876162,0.36300359671329835,18.5003488603168,1.1337733240447454,36.23599999997532
312792.5807,18.896016260985242,5.8264944822156215,25.331449549850298,5.1889181184896245,36.23699999996461
312792.5817,25.80497420644364,11.631437191710127,32.29748682636482,9.578403297379547,36.2379999999539
312792.5827,32.4814331285986,17.612131328365447,39.23200606857641,14.173228485913821,36.2390000000014
312792.5837,38.69979090944568,23.585808645254836,45.945772967014264,18.825749014133727,36.23999999999069
312792.5847,44.240331700436315,29.360293913376648,52.23343829263567,23.376257395406714,36.24099999997998
312792.5857,48.89894634977733,34.74245563526512,57.881786446395175,27.660484263680548,36.241999999969266
312792.5867,52.49655063007659,39.546922122709894,62.679120515276075,31.517530925284053,36.242999999958556
312792.5877,54.8876180676469,43.604517640699946,66.42524685405363,34.797715802953796,36.243999999947846
312792.5887,55.96728882234863,46.76989582517157,68.9414718067739,37.36982895435734,36.24499999999534
312792.5897,55.676603594186744,48.92791118851712,70.08001579184776,39.12734102273762,36.24599999998463
312792.5907,54.005535025088264,49.99836840198543,69.73228571127747,39.993200376976425,36.24699999997392
312792.5917,50.993638360760464,49.9389142620678,67.83552198654337,39.92296669108955,36.24799999996321
312792.5927,46.72830570810313,48.745977584688994,64.3774446052962,38.90616030783373,36.2489999999525
312792.5937,41.34077027768177,46.453805217486625,59.3986537812258,36.96584252463155,36.25
312792.5947,35.000154739839424,43.13177527179472,52.992683740629495,34.156570215108744,36.25099999998929
312792.5957,27.90597872950092,38.88027995902637,45.30375058616267,30.560977580644504,36.25199999997858
312792.5967,20.2796245761625,33.82555064631191,36.52236548927262,26.285318886878617,36.25299999996787
312792.5977,12.355300962349496,28.113840600832187,26.87909267203088,21.454352247588837,36.25399999995716
312792.5987,4.371039038335254,21.905383797752755,16.636810527831532,16.20595291031651,36.25499999994645
312792.5997,-3.4397934079480734,15.368512578699818,6.081880002549899,10.685816003289423,36.255999999993946
312792.6007,-10.856060501141057,8.674248218541388,-4.485363060503442,5.042548056226833,36.256999999983236
312792.6017,-17.675224206038838,1.9915852887342769,-14.760392038660758,-0.5766381497234652,36.257999999972526
312792.6027,-23.71835114118906,-4.51641577342131,-24.444190961253103,-6.029509238468612,36.258999999961816
312792.6037,-28.8337337997583,-10.695720907945836,-33.25256943648898,-11.181661508072866,36.259999999951106
312792.6047,-32.899217283484184,-16.403688647681626,-40.92484835060856,-15.908710358454924,36.2609999999986
312792.6057,-35.82341592603144,-21.510873573070167,-47.23173183515416,-20.097963695113542,36.26199999998789
312792.6067,-37.54606426151799,-25.90247429171965,-51.98222937028773,-23.649766448594935,36.26299999997718
312792.6077,-38.03776878661555,-29.47964271144662,-55.029525997694144,-26.47871339043771,36.26399999996647
312792.6087,-37.299410475633174,-32.16084598824166,-56.27571707997318,-28.514904793179973,36.26499999995576
312792.6097,-35.36139714583742,-33.883416084451824,-55.67532856679797,-29.70536774827786,36.26599999994505
312792.6107,-32.2828876301139,-34.60534188296744,-53.237538674094175,-30.01569222269507,36.26699999999255
312792.6117,-28.151017404505023,-34.307265622519445,-49.02700847733006,-29.43184498170219,36.26799999998184
312792.6127,-23.08006064925468,-32.99455104674303,-43.16322420596908,-27.962037634903762,36.26899999997113
312792.6137,-17.210379712668402,-30.699207371860137,-35.81825972385995,-25.638448783655324,36.26999999996042
312792.6147,-10.706951327843749,-27.48139213697225,-27.212889128108543,-22.518544952898015,36.27099999994971
312792.6157,-3.7572288147974304,-23.430186001316777,-17.611019715399177,-18.685718777864427,36.271999999997206
312792.6167,3.431893640461477,-18.663339040900325,-7.312475140079865,-14.248970690339501,36.272999999986496
312792.6177,10.638203466881288,-13.32573256591483,3.355765043951696,-9.341403283409347,36.273999999975786
312792.6187,17.629487639491135,-7.5863802934941935,14.04967518252705,-4.117372942754138,36.274999999965075
312792.6197,24.170046706938695,-1.633901358021916,24.41935571151176,1.2517550482387567,36.275999999954365
312792.6207,30.028280093846895,4.329474608936437,34.12089190082974,6.583183098250364,36.27700000000186
312792.6217,34.98508766372626,10.095175235088444,42.828446949826535,11.689400357963194,36.27799999999115
312792.6227,38.84271126123681,15.4565020056802,50.24608156948761,16.385736956418693,36.27899999998044
312792.6237,41.43354086161786,20.217361659196417,56.11876403545978,20.498346363904208,36.27999999996973
312792.6247,42.6283445868668,24.200998601256977,60.24203882429688,23.872137781359854,36.28099999995902
312792.6257,42.343358905761825,27.258174070152545,62.469860619637004,26.378146251828785,36.28199999994831
312792.6267,40.54569979625298,29.274242072099554,62.7201732136474,27.919835712678942,36.28299999999581
312792.6277,37.2566282194094,30.174622704336098,60.97791638814828,28.437880638979774,36.2839999999851
312792.6287,32.552320198999396,29.928267743351164,57.2952724379904,27.913062549896587,36.28499999997439
312792.6297,26.561945174886763,28.548844595181066,51.789109641787384,26.367042001369654,36.28599999996368
312792.6307,19.463034559697846,26.093522668489264,44.63573315464315,23.86091506619636,36.28699999995297
312792.6317,11.474311385514557,22.659418057111765,36.063204069381364,20.491623561599013,36.288000000000466
312792.6327,2.846335946282493,18.377923669453843,26.341624225879173,16.38644688006094,36.288999999989755
312792.6337,-6.149514292607121,13.407307899445739,15.771897879146932,11.695946465861436,36.289999999979045
312792.6347,-15.233083925269993,7.924091928084643,4.673563145362731,6.58584905946424,36.290999999968335
312792.6357,-24.127769856016343,2.113802420040757,-6.627670061208252,1.2284313440293761,36.291999999957625
312792.6367,-32.572387695411905,-3.8382652207793013,-17.812036716154243,-4.206000632473986,36.292999999946915
312792.6377,-40.33185085259576,-9.755651507635116,-28.576889105086956,-9.55696212290077,36.29399999999441
312792.6387,-47.206026879078834,-15.478148705600653,-38.64640554608532,-14.68046131609615,36.2949999999837
312792.6397,-53.03627361577632,-20.867581547889888,-47.779429078458904,-19.454091038465698,36.29599999997299
312792.6407,-57.709334582000615,-25.81165287465192,-55.7751678724019,-23.780280479586946,36.29699999996228
312792.6417,-61.15847410803062,-30.225723340897762,-62.47664138804237,-27.587607706756476,36.29799999995157
312792.6427,-63.36194088838274,-34.05257087069721,-67.77191062828571,-30.830239786531806,36.29899999999907
312792.6437,-64.33904602943056,-37.26034335486356,-71.59327474195963,-33.485723304267594,36.29999999998836
312792.6447,-64.14431120395791,-39.83906180656849,-73.91473810501999,-35.55147949033168,36.30099999997765
312792.6457,-62.860269549118144,-41.79613765202054,-74.74814210672301,-37.04045283273765,36.30199999996694
312792.6467,-60.589575633333304,-43.1514274422951,-74.13840733622453,-37.976411313457774,36.30299999995623
312792.6477,-57.447095268282595,-43.932355967258005,-72.15834144293703,-38.38939602166907,36.30399999994552
312792.6487,-53.552600788350254,-44.16959456180664,-68.9034363599456,-38.31176856398412,36.304999999993015
312792.6497,-49.02459792109427,-43.893690480023864,-64.4870105440057,-37.77521200614512,36.305999999982305
312792.6507,-43.975666942655025,-43.13291538950846,-59.035955663246185,-36.80891501813128,36.306999999971595
312792.6517,-38.50952802577324,-41.912449809582355,-52.68723375715628,-35.439022817000634,36.307999999960884
312792.6527,-32.71985585147854,-40.25486151642219,-45.58515290992673,-33.68928779643325,36.308999999950174
312792.6537,-26.69068998624775,-38.18168611423906,-37.87933980009339,-31.582713223725005,36.30999999999767
312792.6547,-20.49813271655487,-35.71579268805872,-29.723237894575995,-29.143869690765833,36.31099999998696
312792.6557,-14.212909887084287,-32.884129681117194,-21.272899944974526,-26.40148800868179,36.31199999997625
312792.6567,-7.9033036255836455,-29.720404912199783,-12.685818826575293,-23.39090184456907,36.31299999996554
312792.6577,-1.637954309414298,-26.267263124261348,-4.119553607246498,-20.15593171996819,36.31399999995483
312792.6587,4.51192731963852,-22.577583484717955,4.270044221424333,-16.749867003783567,36.31500000000233
312792.6597,10.471304074236313,-18.714621692338824,12.33112241879104,-13.23530729324783,36.31599999999162
312792.6607,16.161246941669358,-14.75085588676193,19.918659232555214,-9.68275792656868,36.31699999998091
312792.6617,21.50013961525937,-10.765548063650538,26.897751855505696,-6.168022073398917,36.3179999999702
312792.6627,26.40606978352245,-6.841186848365343,33.14718101712967,-2.7685780373311117,36.31899999995949
312792.6637,30.800172415713078,-3.0591166305996853,38.562989652786484,0.4407408041636452,36.31999999994878
312792.6647,34.61056590368846,0.5052330502297667,43.0617612030958,3.392348875607975,36.320999999996275
312792.6657,37.77643836801553,3.7870376600034854,46.58326719074764,6.0303252817394855,36.321999999985565
312792.6667,40.25180802835141,6.736191461196764,49.09217832755278,8.314171368289124,36.322999999974854
312792.6677,42.00850233067106,9.320386882568544,50.57859807287372,10.221482741812384,36.323999999964144
312792.6687,43.03797385165012,11.526790189525192,51.0572772179591,11.749204706668358,36.324999999953434
312792.6697,43.35168958751355,13.362075916110767,50.565493336308755,12.913274699656318,36.32600000000093
312792.6707,42.97998187355052,14.850744572480238,49.15971696771176,13.746616346964318,36.32699999999022
312792.6717,41.969417922734394,16.031824380400952,46.911322108062826,14.295621055956488,36.32799999997951
312792.6727,40.378912721369126,16.954230167497492,43.90171619695138,14.615416823980242,36.3289999999688
312792.6737,38.274958379754516,17.67120290768473,40.21734961303442,14.764362642318943,36.32999999995809
312792.6747,35.72645523022876,18.234365321138853,35.94510473283436,14.798304979118289,36.33099999994738
312792.6757,32.799692639402046,18.68798952578958,31.168552151893014,14.765178549929907,36.33199999999488
312792.6767,29.55403221797936,19.064073973606163,25.96549432492372,14.70052022162961,36.33299999998417
312792.6777,26.038790370720477,19.378766711242342,20.407098190075057,14.624391692451736,36.33399999997346
312792.6787,22.291704797302263,19.63055455200275,14.55875770382535,14.540079019382754,36.33499999996275
312792.6797,18.339210632590678,19.800473221079127,8.482639188270864,14.434766436504056,36.33599999995204
312792.6807,14.198561647184281,19.85439723478625,2.241665388158589,14.282184359581377,36.336999999999534
312792.6817,9.881629333947846,19.747259143148337,-4.095491395936781,14.047026402281361,36.337999999988824
312792.6827,5.400018663111993,19.428846523966527,-10.448990392151295,13.690738355717583,36.338999999978114
312792.6837,0.7709743863745948,18.850652163825032,-16.722664582750795,13.178123318523584,36.339999999967404
312792.6847,-3.9765658532686317,17.973126181324268,-22.799850687153356,12.484098544637414,36.34099999995669
312792.6857,-8.796471941568432,16.77261214719041,-28.540901255675767,11.599893462661829,36.34199999994598
312792.6867,-13.621163263532146,15.247250532298791,-33.782967919231226,10.53800107858827,36.34299999999348
312792.6877,-18.359197915046042,13.421203502575526,-38.34247268716779,9.335286254528903,36.34399999998277
312792.6887,-22.89516836184113,11.346689858933175,-42.02045828230481,8.053807061414547,36.34499999997206
312792.6897,-27.092164436538653,9.10350619548306,-44.610747744845874,6.779106320231649,36.34599999996135
312792.6907,-30.79683205574619,6.795933341820487,-45.91057093294245,5.615961481231497,36.34699999995064
312792.6917,-33.84681062171031,4.547165490859171,-45.733056102469746,4.681820875210925,36.34799999999814
312792.6927,-36.08009666172514,2.4916310445063994,-43.9207631308668,4.098380666404095,36.34899999998743
312792.6937,-37.345678230536414,0.7657774855965318,-40.35927316097645,3.9819480465193338,36.34999999997672
312792.6947,-37.5146336814446,-0.5019517179328751,-34.98976470466687,4.433373806395518,36.35099999996601
312792.6957,-36.490804807222105,-1.2011270507742475,-27.819509316842463,5.528407600505556,36.3519999999553
312792.6967,-34.220147299820646,-1.2484874279259839,-18.929313994985517,7.309324221402343,36.352999999944586
312792.6977,-30.697933340714922,-0.5954505182097035,-8.477117619072029,9.778588088342026,36.353999999992084
312792.6987,-25.973127117740802,0.766685371550156,3.3027975758832486,12.895171962376667,36.35499999998137
312792.6997,-20.14946258798685,2.8043274069739987,16.105210653921183,16.57393715037826,36.35599999997066
312792.7007,-13.383006489951594,5.442212889731108,29.56387638510129,20.688234068495028,36.35699999995995
312792.7017,-5.876266799688177,8.56706995632429,43.265503351034944,25.07561571071283,36.35799999994924
312792.7027,2.130816469556386,12.034057126715002,56.76703606883749,29.546295845006398,36.35899999999674
312792.7037,10.372409182000885,15.675490994507872,69.61522028012834,33.89375184380939,36.35999999998603
312792.7047,18.57005554580068,19.311179864888032,81.36724409445819,37.90668968805448,36.36099999997532
312792.7057,26.446750691424263,22.75954882424967,91.61115208527897,41.381472226733806,36.36199999996461
312792.7067,33.74081600586861,25.848680347517295,99.98473330364268,44.134071701645915,36.3629999999539
312792.7077,40.218599886554244,28.426409471207055,106.19168775866022,46.01064748818811,36.3640000000014
312792.7087,45.685127752382456,30.36870222969927,110.0140711013262,46.89596641662064,36.36499999999069
312792.7097,49.99199849772356,31.585702164468103,111.32028825598958,46.71906555051314,36.36599999997998
312792.7107,53.04205473818554,32.02503799039225,110.06823148685936,45.45578966194885,36.366999999969266
312792.7117,54.79062082717043,31.672227001013063,106.30351038790394,43.12809721777375,36.367999999958556
312792.7127,55.243382224150665,30.54826165552456,100.15307194472273,39.800296318522754,36.368999999947846
312792.7137,54.451247846499456,28.704708228490546,91.81482985130185,35.572622118531164,36.36999999999534
312792.7147,52.5027701953916,26.21685478213604,81.54418808947442,30.572777893049878,36.37099999998463
312792.7157,49.5148762527405,23.17560252084533,69.63853365428051,24.94621484373624,36.37199999997392
312792.7167,45.62277042206647,19.678886088362013,56.42087305703858,18.846007967196105,36.37299999996321
312792.7177,40.96990057265688,15.823426894695423,42.223790402977066,12.423190313997756,36.3739999999525
312792.7187,35.698828155695324,11.697568171909076,27.374813187877667,5.818336221526124,36.375
312792.7197,29.943719273463095,7.375817023303569,12.184095284819485,-0.8449569376255223,36.37599999998929
312792.7207,23.824988078356274,2.915539368138142,-3.0649181488455466,-7.464235567201276,36.37699999997858
312792.7217,17.446395055110138,-1.6439643705085514,-18.121469299949062,-13.959785761923502,36.37799999996787
312792.7227,10.894652522145325,-6.280010995041744,-32.77004464460856,-20.27368719524059,36.37899999995716
312792.7237,4.2413417801640865,-10.982953504758582,-46.82974579913346,-26.36659382654865,36.37999999994645
312792.7247,-2.4532760003494913,-15.750912701253911,-60.150975627370116,-32.21271964525179,36.380999999993946
312792.7257,-9.135149196658137,-20.583427135320207,-72.61014868360793,-37.79366722994481,36.381999999983236
312792.7267,-15.750733387749483,-25.47472743338074,-84.10326744110796,-43.09183231269497,36.382999999972526
312792.7277,-22.241446868437148,-30.407372472060768,-94.53925271869123,-48.08414068124702,36.383999999961816
312792.7287,-28.539000225803676,-35.34694513837137,-103.8338764239643,-52.7368234779595,36.384999999951106
312792.7297,-34.56221199537855,-40.23839909297022,-111.90502367641315,-57.0018191563346,36.3859999999986
312792.7307,-40.21575860984411,-45.00448596039617,-118.66982371438174,-60.8152173454025,36.38699999998789
312792.7317,-45.391100223838116,-49.54649084713676,-124.04395510707826,-64.0979491284431,36.38799999997718
312792.7327,-49.96959530307338,-53.747282790176,-127.94317522564724,-66.75870066538025,36.38899999996647
312792.7337,-53.827588765503855,-57.47646707347052,-130.28687289123445,-68.69880493085044,36.38999999995576
312792.7347,-56.84305329374924,-60.597229283031616,-131.00322184940427,-69.81867102987552,36.39099999994505
312792.7357,-58.903201041495045,-62.9743049954341,-130.0353429226957,-70.02516061460527,36.39199999999255
312792.7367,-59.91237876448087,-64.48240836204616,-127.34778034912476,-69.23923020537782,36.39299999998184
312792.7377,-59.79952297768092,-65.01441623895279,-122.93257159851358,-67.40313458473774,36.39399999997113
312792.7387,-58.52448587712436,-64.48863424415678,-116.814240424468,-64.48653106823124,36.39499999996042
312792.7397,-56.08264329991721,-62.85456302272987,-109.05316254641767,-60.49093182276063,36.39599999994971
312792.7407,-52.50735226629287,-60.096726886496285,-99.74692750984126,-55.45210987065407,36.396999999997206
312792.7417,-47.870021613661514,-56.23630777189006,-89.02952883944765,-49.440257494131586,36.397999999986496
312792.7427,-42.277775134499834,-51.330526690704204,-77.06843429796115,-42.557903802704494,36.398999999975786
312792.7437,-35.86890101231986,-45.469912653468526,-64.05979502932452,-34.935800478234825,36.399999999965075
312792.7447,-28.80647325059114,-38.77377612887901,-50.222224774478555,-26.727161384188264,36.400999999954365
312792.7457,-21.270681858121677,-31.38434369913597,-35.78970074951337,-18.100775998305533,36.40200000000186
312792.7467,-13.450504876069628,-23.460100099870733,-21.004194878199993,-9.233596296566386,36.40299999999115
312792.7477,-5.535388760048697,-15.16891609465688,-6.108633781049812,-0.3034153325698522,36.40399999998044
312792.7487,2.2924275044922364,-6.681514422647087,8.659288449955039,8.517786843909157,36.40499999996973
312792.7497,9.86440004724617,1.8342538560677573,23.072049025940846,17.06935210977763,36.40599999995902
312792.7507,17.030574943930215,10.217973797592148,36.91575792553791,25.20597186248913,36.40699999994831
312792.7517,23.66265935192257,18.319875782830096,49.99209927373817,32.80006705862732,36.40799999999581
312792.7527,29.65522726232217,26.002658698583055,62.11889457906951,39.742534706303715,36.4089999999851
312792.7537,34.92520355311059,33.142056177537214,73.12959317838427,45.94204672427303,36.40999999997439
312792.7547,39.409933154022745,39.62641280093992,82.87212006576829,51.3232332730857,36.41099999996368
312792.7557,43.0642672726266,45.35563883024447,91.20758456635859,55.82418869135847,36.41199999995297
312792.7567,45.857174198732416,50.23996745997824,98.00936750366905,59.3937938533358,36.413000000000466
312792.7577,47.76840178370553,54.198942611501295,103.16305800291546,61.98934908937404,36.413999999989755
312792.7587,48.78568151260268,57.16101808000829,106.56760821206065,63.57495730969,36.414999999979045
312792.7597,48.90287495779468,59.06405577778388,108.13792475239889,64.12099356799268,36.415999999968335
312792.7607,48.11933212516145,59.85688186180659,107.80893382711449,63.60485567373239,36.416999999957625
312792.7617,46.440571556599316,59.50190825627517,105.54095998268149,62.013024989047814,36.417999999946915
312792.7627,43.880220441043726,57.97866930454047,101.32606555917376,59.344293944914604,36.41899999999441
312792.7637,40.46298688487485,55.28797558246021,95.19482794202287,55.613854574287735,36.4199999999837
312792.7647,36.22829280853009,51.45626502587775,87.22290229585873,50.85780713602513,36.42099999997299
312792.7657,31.234089430320076,46.539648898894804,77.53664283168834,45.13755393863765,36.42199999996228
312792.7667,25.56031919717211,40.62711657300453,66.31704567009473,38.543501258925524,36.42299999995157
312792.7677,19.311484941816442,33.842383825115846,53.801335381642765,31.197507493952727,36.42399999999907
312792.7687,12.617840332880265,26.343944462685045,40.281643634406464,23.25358870158649,36.42499999998836
312792.7697,5.634821237134921,18.323009360905065,26.100414269246,14.896518284497429,36.42599999997765
312792.7707,-1.4595137837304404,9.999180405067479,11.642401126807867,6.338125454113019,36.42699999996694
312792.7717,-8.46908747332161,1.613895323275761,-2.6766150084419458,-2.1887072555259977,36.42799999995623
312792.7727,-15.18631487781854,-6.578123830774534,-16.423997166846878,-10.43814123563761,36.42899999994552
312792.7737,-21.40019778356057,-14.318998754736434,-29.166666540516438,-18.161170237015515,36.429999999993015
312792.7747,-26.905515908892443,-21.35882004050076,-40.48890330939195,-25.11652599015603,36.430999999982305
312792.7757,-31.51250390155947,-27.46707299926734,-50.010521250758956,-31.081999867909335,36.431999999971595
312792.7767,-35.05633028208079,-32.443605618549014,-57.404320328679205,-35.865408252732024,36.432999999960884
312792.7777,-37.405680722208416,-36.12837982408405,-62.4117200478035,-39.314421808611684,36.433999999950174
312792.7787,-38.46979579807662,-38.40931051381144,-64.85555905025352,-41.32453724640543,36.43499999999767
312792.7797,-38.20341921199684,-39.22761965056842,-64.64920848178141,-41.8445905921199,36.43599999998696
312792.7807,-36.609267564237136,-38.58030555751351,-61.80137642295967,-40.879383941175014,36.43699999997625
312792.7817,-33.73782352066482,-36.51953631765135,-56.41626057598359,-38.48920886990378,36.43799999996554
312792.7827,-29.684463661056018,-33.14900327954326,-48.68901432656714,-34.78628114295109,36.43899999995483
312792.7837,-24.58414153337667,-28.61749670402304,-38.89680258589854,-29.928333179154667,36.44000000000233
312792.7847,-18.60403651043108,-23.11017104401494,-27.38601337695152,-24.10982282467334,36.44099999999162
312792.7857,-11.934732680819414,-16.83813442121175,-14.556435730972439,-17.551390919956926,36.44199999998091
312792.7867,-4.7805953080210575,-10.02711109842657,-0.8433948392376661,-10.488320930212447,36.4429999999702
312792.7877,2.649943811027384,-2.905977422812584,13.301061972825124,-3.1588113537077955,36.44399999995949
312792.7887,10.153499991950179,4.304043221759227,27.42681660157479,4.207138660093868,36.44499999994878
312792.7897,17.539636005806564,11.398820447446568,41.103122152239486,11.39750623374445,36.445999999996275
312792.7907,24.6370688922861,18.198822094061313,53.93392921830089,18.22609420549071,36.446999999985565
312792.7917,31.297874164071615,24.554294738513786,65.57039106911613,24.538042239323048,36.447999999974854
312792.7927,37.39957165845908,30.347936163580076,75.72008441482245,30.2127957963735,36.448999999964144
312792.7937,42.84517396918408,35.495090676174996,84.15274315791679,35.16454477189966,36.449999999953434
312792.7947,47.561459471545106,39.94170048010008,90.70255884457171,39.34034807817098,36.45100000000093
312792.7957,51.49588028197219,43.660418735177664,95.26733177268277,42.716335639403525,36.45199999999022
312792.7967,54.61261738267255,46.645417693706506,97.80494278269661,45.29251026738486,36.45299999997951
312792.7977,56.888341706868694,48.90649820467399,98.32774465194957,47.08674845538795,36.4539999999688
312792.7987,58.30822798382314,50.463120223773416,96.89553690678072,48.128616555842,36.45499999995809
312792.7997,58.86270028195322,51.338928931772564,93.60778851447564,48.45357826760635,36.45599999994738
312792.8007,58.545272781106554,51.55725445461431,88.59571538595259,48.098077654920424,36.45699999999488
312792.8017,57.3516994100094,51.13792666495203,82.01471537424554,47.095850671430675,36.45799999998417
312792.8027,55.28047803258372,50.09558539117886,74.03752790267333,45.475662510920245,36.45899999997346
312792.8037,52.334586939779946,48.43949780664354,64.84833602744762,43.26050507586212,36.45999999996275
312792.8047,48.524181340672015,46.17473622719527,54.637883279554416,40.46813553777631,36.46099999995204
312792.8057,43.86986107187192,43.30443678186357,43.59955186058731,37.112708723071535,36.461999999999534
312792.8067,38.40604982167626,39.83276496672116,31.92625500118282,33.207164945428154,36.462999999988824
312792.8077,32.18400775781009,35.76816598696531,19.80794210820348,28.765988458889588,36.463999999978114
312792.8087,25.27403481706716,31.126478849973992,7.429502925238232,23.80795226240311,36.464999999967404
312792.8097,17.76650653742289,25.933540809861,-5.031116876181138,18.358509579362252,36.46599999995669
312792.8107,9.771508415547558,20.226995421322616,-17.4047194092345,12.451573174742279,36.46699999994598
312792.8117,1.41698443116331,14.057131547917301,-29.53263233305352,6.13052915151783,36.46799999999348
312792.8127,-7.154525946324862,7.486707937351148,-41.26843378698786,-0.5515520244486766,36.46899999998277
312792.8137,-15.790337619977267,0.5898431448252932,-52.47952410412326,-7.532432552140628,36.46999999997206
312792.8147,-24.332906253454897,-6.549840940298633,-63.04839068760943,-14.741783642251095,36.47099999996135
312792.8157,-32.625513290028046,-13.84155423460818,-72.8733886304532,-22.102587693414506,36.47199999995064
312792.8167,-40.517871576664376,-21.189842750015405,-81.86887021005339,-29.532604843109283,36.47299999999814
312792.8177,-47.871184956745175,-28.49695257365487,-89.96454144791885,-36.945654214499605,36.47399999998743
312792.8187,-54.562256621340794,-35.66478521339197,-97.10399886805705,-44.25250977406343,36.47499999997672
312792.8197,-60.48634560339794,-42.5962526308348,-103.24249557873365,-51.36129158629449,36.47599999996601
312792.8207,-65.55860706800937,-49.19594274899118,-108.34409085116002,-58.17733500959795,36.4769999999553
312792.8217,-69.71410511702312,-55.370121778041714,-112.37843774333346,-64.60262996191926,36.477999999944586
312792.8227,-72.9065400097915,-61.02621401015534,-115.31754515581326,-70.53502553945366,36.478999999992084
312792.8237,-75.10596829017075,-66.07199843071707,-117.13290165457389,-75.8674781491313,36.47999999998137
312792.8247,-76.29589931624591,-70.41483179007442,-117.79335910473804,-80.48767204765517,36.48099999997066
312792.8257,-76.47021343855373,-73.96123989876146,-117.26413948514741,-84.27835125640186,36.48199999995995
312792.8267,-75.63035844894071,-76.61720721299866,-115.50724803979261,-87.11866713031799,36.48299999994924
312792.8277,-73.78324015309539,-78.28943847504624,-112.48345525631531,-88.88676727762746,36.48399999999674
312792.8287,-70.94013381347085,-78.88776952018688,-108.1558590712515,-89.46373499452048,36.48499999998603
312792.8297,-67.11681481399752,-78.32877632568562,-102.494871282813,-88.73884442442444,36.48599999997532
312792.8307,-62.33495260802185,-76.54048478722734,-95.48430520346118,-86.61593941428802,36.48699999996461
312792.8317,-56.624648201901245,-73.46793397337159,-87.1280928696381,-83.02058986619251,36.4879999999539
312792.8327,-50.02783975407705,-69.07920911845902,-77.45704644517554,-77.90754513385473,36.4890000000014
312792.8337,-42.60217040592899,-63.371452997585585,-66.53501374526763,-71.2679052687747,36.48999999999069
312792.8347,-34.4248218718693,-56.3762987479636,-54.4637714991775,-63.13538025960691,36.49099999997998
312792.8357,-25.595777275801225,-48.16415288679669,-41.38605580539112,-53.59101297666373,36.491999999969266
312792.8367,-16.239992746062978,-38.846798444841575,-27.486244714042545,-42.76580605804972,36.492999999958556
312792.8377,-6.5080291194691995,-28.577883449662355,-12.98837440439746,-30.840813347743833,36.493999999947846
312792.8387,3.4251832518604695,-17.55100260706429,1.848625844326584,-18.044423987839348,36.49499999999534
312792.8397,13.363613286869601,-5.99525822331508,16.738371465307836,-4.646768332774124,36.49599999998463
312792.8407,23.09541437513135,5.831615263131695,31.376801803482095,9.048607550243224,36.49699999997392
312792.8417,32.400018877895675,17.652277967542428,45.45376641091232,22.715436783569512,36.49799999996321
312792.8427,41.05665698494002,29.18049214565488,58.6657193377574,36.017239976518496,36.4989999999525
312792.8437,48.85376626345562,40.13288776792391,70.72871016149055,48.620935308517886,36.5
312792.8447,55.59865290330817,50.24105718042295,81.39081091258878,60.210735412410045,36.50099999998929
312792.8457,61.12671394193384,59.26320054096478,90.44313560242274,70.5014742322791,36.50199999997858
312792.8467,65.3095369413664,66.99455589912013,97.72869272740483,79.25053075899453,36.50299999996787
312792.8477,68.06125965926059,73.2759212251218,103.14845458464563,86.26760432463428,36.50399999995716
312792.8487,69.34269192592878,77.99970478615255,106.66421948807499,91.42174110116967,36.50499999994645
312792.8497,69.16286521658046,81.11311468991661,108.29806929500245,94.64520204222167,36.505999999993946
312792.8507,67.577868508519,82.6183040276653,108.12846775334579,95.93398349563988,36.506999999983236
312792.8517,64.68703558809575,82.56950813034794,106.28328650275385,95.3450354809525,36.507999999972526
312792.8527,60.62675152572063,81.06742711407718,102.9302666369911,92.99045062657986,36.508999999961816
312792.8537,55.56232742262104,78.25130257772395,98.26560751683849,89.02910104373363,36.509999999951106
312792.8547,49.67853741118675,74.28929626093884,92.50150666074504,83.65636506783567,36.5109999999986
312792.8557,43.16950803596621,69.36788801096715,85.85354448323044,77.09269824501514,36.51199999998789
312792.8567,36.228689492508835,63.681062032566025,78.52880952090429,69.57185495055813,36.51299999997718
312792.8577,29.039617562794636,57.4200404660984,70.71559293745948,61.32955538466638,36.51399999996647
312792.8587,21.768096428873424,50.7642533867543,62.575350295397236,52.59331945950577,36.51499999995576
312792.8597,14.556302853776986,43.874110914923094,54.23744374713055,43.57406142403786,36.51599999994505
312792.8607,7.519142896155482,36.88597731773641,45.79695333376026,34.4598686027717,36.51699999999255
312792.8617,0.7429982121221839,29.90955332111895,37.31559978499057,25.412189464775157,36.51799999998184
312792.8627,-5.713202933669929,23.02766813997987,28.82557287459152,16.564447679215807,36.51899999997113
312792.8637,-11.814846974743794,16.298284544296497,20.335829151052558,8.022897818245736,36.51999999996042
312792.8647,-17.546851401166673,9.758345415350277,11.840229540799841,-0.13063798895478218,36.52099999994971
312792.8657,-22.907783944130614,3.428953269901082,3.326746753623947,-7.834650178858245,36.521999999997206
312792.8667,-27.903506229315024,-2.6787138194541718,-5.2131039124430485,-15.043023078203705,36.522999999986496
312792.8677,-32.54098039571954,-8.557379043936134,-13.775462775303296,-21.719931853810195,36.523999999975786
312792.8687,-36.82283636459447,-14.198141113080666,-22.336740925877315,-27.835141638646828,36.524999999965075
312792.8697,-40.74320354848253,-19.585972805368854,-30.848311181265537,-33.36021374290559,36.525999999954365
312792.8707,-44.28517319530698,-24.696647825169805,-39.23375124886415,-38.26599741007629,36.52700000000186
312792.8717,-47.420089563444286,-29.49534443177809,-47.38889554905583,-42.52162729059804,36.52799999999115
312792.8727,-50.108685681897725,-33.93700116745103,-55.18471351330998,-46.0950724171723,36.52899999998044
312792.8737,-52.303899691029486,-37.96832572164201,-62.472795176232104,-48.955108988707956,36.52999999996973
312792.8747,-53.955047366029326,-41.531198766748616,-69.09300944283511,-51.07443337621608,36.53099999995902
312792.8757,-55.01290007023796,-44.56708499727896,-74.8827243488103,-52.433508204137006,36.53199999994831
312792.8767,-55.43513635865706,-47.02197503110369,-79.68685608871002,-53.02465456817775,36.53299999999581
312792.8777,-55.1916066118592,-48.85134159270216,-83.36795383566975,-52.85587447041594,36.5339999999851
312792.8787,-54.26887523245158,-50.02460402720927,-85.81553405431679,-51.953911397234535,36.53499999997439
312792.8797,-52.67358070193744,-50.52865427800885,-86.95394888800298,-50.36613046979207,36.53599999996368
312792.8807,-50.43427198912458,-50.370097954121526,-86.74820050511221,-48.16091478088545,36.53699999995297
312792.8817,-47.60152827605886,-49.575995108461164,-85.20728452403193,-45.42641944643918,36.538000000000466
312792.8827,-44.24633285448355,-48.193033222620834,-82.38484486215052,-42.2676848604116,36.538999999989755
312792.8837,-40.45683525368627,-46.2852147237465,-78.37713175518095,-38.80226973294791,36.539999999979045
312792.8847,-36.33378248828994,-43.93027844133407,-73.31845628955752,-35.15470717854919,36.540999999968335
312792.8857,-31.98501700848432,-41.21518574319348,-67.374512110517,-31.450199803956533,36.541999999957625
312792.8867,-27.519515028981388,-38.23107764276647,-60.734074504431334,-27.808042089517677,36.542999999946915
312792.8877,-23.041468210182966,-35.068142832291684,-53.5996793595573,-24.335284260528358,36.54399999999441
312792.8887,-18.644892763740618,-31.81082667850186,-46.17792483393245,-21.12112994161006,36.5449999999837
312792.8897,-14.409186363452982,-28.53376048084542,-38.67002698048231,-18.23249354804787,36.54599999997299
312792.8907,-10.395952495485531,-25.298705506076043,-31.263201656180772,-15.711040202161115,36.54699999996228
312792.8917,-6.64728521787646,-22.152697404734823,-24.123347063020258,-13.571901896870019,36.54799999995157
312792.8927,-3.1855680170543836,-19.127455519526272,-17.389375214794008,-11.804121678733889,36.54899999999907
312792.8937,-0.01470258647137599,-16.2400009439103,-11.169398979567532,-10.372736506032647,36.54999999998836
312792.8947,2.877439751952697,-13.494318985953342,-5.5388368917350315,-9.22228218167113,36.55099999997765
312792.8957,5.515648271799152,-10.88381612523111,-0.540362617160235,-8.281401459622176,36.55199999996694
312792.8967,7.933451615217856,-8.394266050014792,3.814490011494083,-7.468167259189149,36.55299999995623
312792.8977,10.169035666892373,-6.006917992555028,7.542344364267214,-6.695701531690535,36.55399999994552
312792.8987,12.261375200018193,-3.7014537980660207,10.683955776411773,-5.877677551473048,36.554999999993015
312792.8997,14.246901900265525,-1.4585249343510385,13.299502150886887,-4.933336411651009,36.555999999982305
312792.9007,16.156949910768066,0.7383291102193626,15.463540165842197,-3.7917212253853187,36.556999999971595
312792.9017,18.01611865260646,2.901492319734434,17.259940262584646,-2.394926369812545,36.557999999960884
312792.9027,19.8415825462976,5.038830417900686,18.777055664559253,-0.700263833244404,36.558999999950174
312792.9037,21.64327018637617,7.153921665618866,20.10330966063319,1.3186465208196603,36.55999999999767
312792.9047,23.424742766914072,9.246807949895357,21.32331037181105,3.671761630251085,36.56099999998696
312792.9057,25.184532760867324,11.315057431317088,22.51453224074589,6.353298868240756,36.56199999997625
312792.9067,26.917666089012766,13.354901074703928,23.744546564305633,9.342994119980464,36.56299999996554
312792.9077,28.617088052854914,15.362207101565874,25.068745674633128,12.607691488934892,36.56399999995483
312792.9087,30.274745219577756,17.33308958097981,26.52849040640754,16.103034394924272,36.56500000000233
312792.9097,31.882138530692092,19.264006485131134,28.1496187434088,19.775068558574702,36.56599999999162
312792.9107,33.430249988521574,21.151281996078193,29.941282288317602,23.561630439241714,36.56699999998091
312792.9117,34.90884639188528,22.990078644881443,31.895120753216826,27.39347177081897,36.5679999999702
312792.9127,36.30526697513417,24.772936432885015,33.98483498411621,31.195151929604496,36.56899999995949
312792.9137,37.602895097441696,26.488077416595566,36.16626667009907,34.8858043874591,36.56999999994878
312792.9147,38.7795857197365,28.11773505834536,38.37812818156166,38.37994144246249,36.570999999996275
312792.9157,39.806360726766584,29.636799575433624,40.54354031058677,41.588494481614774,36.571999999985565
312792.9167,40.646686802416255,31.012068073093687,42.57252267094261,44.42028961825092,36.572999999974854
312792.9177,41.25661313455764,32.202349544891,44.36553800200622,46.784128481097135,36.573999999964144
312792.9187,41.585970693300204,33.15960195513012,45.81811832036857,48.591582816641456,36.574999999953434
312792.9197,41.5807275154722,33.831177568534144,46.82650255638311,49.76052475516234,36.57600000000093
312792.9207,41.18646547749242,34.163132865112075,47.29410058692492,50.21931074454777,36.57699999999022
312792.9217,40.3528064587314,34.10443272513369,47.1384790891579,49.91142743210136,36.57799999997951
312792.9227,39.03848419148777,33.61175842793069,46.298453983130486,48.80030471748929,36.5789999999688
312792.9237,37.21664717362011,32.65452874907939,44.740786479554785,46.87391744145779,36.57999999995809
312792.9247,34.87990106304,31.219675061506255,42.46592786466326,44.148744068628325,36.58099999994738
312792.9257,32.04456637981091,29.315684159383846,39.51225240333177,40.672637054255745,36.58199999999488
312792.9267,28.753645442735113,26.97544207213757,35.95826432229338,36.52619049550862,36.58299999998417
312792.9277,25.078062713678325,24.25747945978227,31.922364879229782,31.822266914579618,36.58399999997346
312792.9287,21.115861345766206,21.245330523197467,27.559914615131195,26.703462667271403,36.58499999996275
312792.9297,16.9891969241958,18.04486435811561,23.05751417682823,21.337442059576016,36.58599999995204
312792.9307,12.839154002839322,14.779618022934114,18.624640023013153,15.910241465174629,36.586999999999534
312792.9317,8.8186057431817,11.584339123256385,14.482990891176554,10.617821472772468,36.587999999988824
312792.9327,5.0835237470606955,8.597115854270706,10.854107364910016,5.65631090330215,36.588999999978114
312792.9337,1.7833060806339254,5.95061777113751,7.946000704720919,1.2115252295875416,36.589999999967404
312792.9347,-0.9491896363123463,3.7630764625997526,5.939650939944907,-2.5515607952721244,36.59099999995669
312792.9357,-3.007157065209102,2.12969045613964,4.97629470357959,-5.498661556432256,36.59199999994598
312792.9367,-4.318143444454603,1.1151362356783685,5.1464124862989955,-7.534639043540242,36.59299999999348
312792.9377,-4.8504544003390375,0.7478056080507164,6.481241274464756,-8.609933820842146,36.59399999998277
312792.9387,-4.617097092917222,1.0162727340141704,8.947486901519797,-8.724459595624062,36.59499999997206
312792.9397,-3.6768740290465862,1.8683311115287735,12.445702078930973,-7.928626536175574,36.59599999996135
312792.9407,-2.1324536546447272,3.2127452854450693,16.812547391552513,-6.321363806769334,36.59699999995064
312792.9417,-0.12547672696156575,4.92365089397599,21.82688365518559,-4.045231099168063,36.59799999999814
312792.9427,2.1710106970658596,6.84732832872799,27.219376894137852,-1.2789234874217594,36.59899999998743
312792.9437,4.562296319066925,8.810888165231972,32.685053576178234,1.772334775882434,36.59999999997672
312792.9447,6.843240690288817,10.63225716101201,37.89804325483432,4.88786034458466,36.60099999996601
312792.9457,8.810228431006502,12.130755161093978,42.52760412335382,7.843298652848598,36.6019999999553
312792.9467,10.272992601220217,13.13751419974385,46.2544546335869,10.422345361111688,36.602999999944586
312792.9477,11.065491169879087,13.505014518685007,48.78643563292287,12.42764246440622,36.603999999992084
312792.9487,11.055099412900056,13.11509552044643,49.87260041949026,13.690175818617133,36.60499999998137
312792.9497,10.149525880889616,11.884934808989009,49.314966668008964,14.076638404906596,36.60599999997066
312792.9507,8.30104907503909,9.770662774657621,46.9773511173732,13.49440010434165,36.60699999995995
312792.9517,5.507889965043889,6.768477573626926,42.79092814975182,11.893923774522522,36.60799999994924
312792.9527,1.8127624539837561,2.9133278524408315,36.756387600219725,9.268670922525077,36.60899999999674
312792.9537,-2.701140196742668,-1.7245800159693294,28.94279553027001,5.652730092800016,36.60999999998603
312792.9547,-7.916278830594543,-7.045033795952872,19.48346582235136,1.1165606823245013,36.61099999997532
312792.9557,-13.68843688947219,-12.924293814490346,8.569314804663126,-4.238639161113547,36.61199999996461
312792.9567,-19.855255011385083,-19.222202131584492,-3.559715530441574,-10.287368668718045,36.6129999999539
312792.9577,-26.244941129345744,-25.789320499790794,-16.62452384644185,-16.88648608671636,36.6140000000014
312792.9587,-32.68450601714747,-32.47354494035479,-30.317364674987743,-23.88156565983826,36.61499999999069
312792.9597,-39.006971003459086,-39.12574393403308,-44.31242566221287,-31.112516270751698,36.61599999997998
312792.9607,-45.05713639688375,-45.60410460613352,-58.27597660346229,-38.418161151156916,36.616999999969266
312792.9617,-50.69567080641316,-51.77703218551515,-71.87572605560162,-45.6396329535192,36.617999999958556
312792.9627,-55.80146526094337,-57.52461569363497,-84.78916117169544,-52.62259832833586,36.618999999947846
312792.9637,-60.272373326177835,-62.73883014129942,-96.7107839460932,-59.21847398800367,36.61999999999534
312792.9647,-64.0246118468618,-67.32277665334738,-107.35827731851369,-65.28491654683324,36.62099999998463
312792.9657,-66.99121182967846,-71.18935394673098,-116.47772530507189,-70.6859487571227,36.62199999997392
312792.9667,-69.1199748286395,-74.25979863096806,-123.848064196283,-75.29211697410086,36.62299999996321
312792.9677,-70.37140167071092,-76.46252404229155,-129.28495333619188,-78.98105576540088,36.6239999999525
312792.9687,-70.71701777435574,-77.73262926045972,-132.64422556027867,-81.63876794209372,36.625
312792.9697,-70.13842852412286,-78.01234824083447,-133.82501528434324,-83.1618195012455,36.62599999998929
312792.9707,-68.6273099314503,-77.2525747361284,-132.7725767599273,-83.4605109911371,36.62699999997858
312792.9717,-66.18638867620292,-75.41544632346508,-129.48070919169737,-82.462934755064,36.62799999996787
312792.9727,-62.8313084114246,-72.47781670614363,-123.99361358284891,-80.11967810745726,36.62899999995716
312792.9737,-58.593133322539465,-68.43530607278186,-116.40693231684124,-76.40880238166321,36.62999999994645
312792.9747,-53.52112156328361,-63.30650979279117,-106.86767862228564,-71.34063179986262,36.630999999993946
312792.9757,-47.68532370412485,-57.13687828994955,-95.57275787543738,-64.96183576649271,36.631999999983236
312792.9767,-41.178533879852196,-50.001763580280226,-82.76582045386918,-57.358290468179206,36.632999999972526
312792.9777,-34.11714791385934,-42.00816371150975,-68.732265890355,-48.6562622904246,36.633999999961816
312792.9787,-26.640561741444028,-33.29478290004813,-53.792334726135934,-39.021562742821146,36.634999999951106
312792.9797,-18.90886790077018,-24.030155093471624,-38.292367597483334,-28.6564733419026,36.6359999999986
312792.9807,-11.098765860757018,-14.408740119114505,-22.594467122169466,-17.79441590826792,36.63699999998789
312792.9817,-3.3977780261560024,-4.645079341356354,-7.064951435238175,-6.692532600252274,36.63799999997718
312792.9827,4.00296018791262,5.03372515382907,7.937877328750419,4.377477132134,36.63899999996647
312792.9837,10.916908730248519,14.396784553914454,22.07602554494721,15.139756212185159,36.63999999995576
312792.9847,17.17077713205064,23.21890137582044,35.04348251835491,25.325299632651134,36.64099999994505
312792.9857,22.612994218854933,31.290122646945402,46.576596475599146,34.68287863318513,36.64199999999255
312792.9867,27.121341564892766,38.424713718169976,56.4625273850699,42.98917328804497,36.64299999998184
312792.9877,30.60913750233357,44.46893005069654,64.54526208846322,50.05745716825308,36.64399999997113
312792.9887,33.02945490383119,49.30705124566041,70.72883463103719,55.744283896938626,36.64499999996042
312792.9897,34.37700250603685,52.8652760858283,74.97758714988808,59.953778849057265,36.64599999994971
312792.9907,34.687483644639435,55.11324740202303,77.31351844993115,62.63932635825361,36.646999999997206
312792.9917,34.03445159096712,56.06316574894351,77.8109803867816,63.802646787020706,36.647999999986496
312792.9927,32.52388862383271,55.76664381633454,76.5891775886939,63.4904602493644,36.648999999975786
312792.9937,30.286927398742648,54.30963152492449,73.8030860835968,61.78911626966569,36.649999999965075
312792.9947,27.471290178797027,51.80588849967176,69.63351592351172,58.81771461719173,36.650999999954365
312792.9957,24.2321290717541,48.38958257803115,64.27709096231129,54.72033871901206,36.65200000000186
312792.9967,20.722997942196773,44.207640855475084,57.936899932347856,49.65806079768264,36.65299999999115
312792.9977,17.087668936610754,39.41246922587614,50.81448732308277,43.80135407182107,36.65399999998044
312792.9987,13.453424394003012,34.15558870288622,43.10370694206486,37.32346472556373,36.65499999996973
312792.9997,9.926315193050806,28.58261874344922,34.986767854462194,30.395163296036635,36.65599999995902
312793.0007,6.588691703047755,22.829880956145935,26.63257881787499,23.181124974484213,36.65699999994831
312793.0017,3.499100292009439,17.022716405469428,18.197263754265588,15.83799808364381,36.65799999999581
312793.0027,0.694416540826604,11.275424021456498,9.826499002448141,8.514028759272753,36.6589999999851
312793.0037,-1.806123276898431,5.692554844744645,1.6591341898736862,1.3499369050645291,36.65999999997439
312793.0047,-3.9955083692824274,0.3711542777515591,-6.168578978086037,-5.519398624203693,36.66099999996368
312793.0057,-5.872801480873732,-4.596553398561689,-13.51889783193619,-11.962974829550914,36.66199999995297
312793.0067,-7.43695962217888,-9.120587138596097,-20.249386005186935,-17.851976621349102,36.663000000000466
312793.0077,-8.68133628666909,-13.111270424914261,-26.211266234107956,-23.058888944526238,36.663999999989755
312793.0087,-9.589503081782455,-16.478389565424518,-31.249851220439265,-27.4578378000154,36.664999999979045
312793.0097,-10.132895108337225,-19.131780672922986,-35.207370181358435,-30.926444321256678,36.665999999968335
312793.0107,-10.270600343803265,-20.9835115765557,-37.92826333883207,-33.34929481419419,36.666999999957625
312793.0117,-9.951395851436878,-21.95163640542867,-39.26675256876628,-34.62292975984192,36.667999999946915
312793.0127,-9.11790331306784,-21.965307709356615,-39.096237889694706,-34.662056266545285,36.66899999999441
312793.0137,-7.712515051017744,-20.970853171550257,-37.31984077319699,-33.40651159852852,36.6699999999837
312793.0147,-5.684550598776555,-18.93827948204667,-33.881238723574036,-30.82836867850756,36.67099999997299
312793.0157,-2.99796155833299,-15.867570069589517,-28.774829366571556,-26.938492749115223,36.67199999996228
312793.0167,0.36117697064179893,-11.7941069245345,-22.054238609559253,-21.79184147045029,36.67299999995157
312793.0177,4.37815846141817,-6.792574864782883,-13.838251236459527,-15.49085230087544,36.67399999999907
312793.0187,9.004826327505285,-0.9787982881755738,-4.313390638467261,-8.186378166408337,36.67499999998836
312793.0197,14.157018822407322,5.490891464168864,6.26740345904234,-0.07580591404635036,36.67599999997765
312793.0207,19.71466460729179,12.422968261924286,17.590272045935723,8.60179293906501,36.67699999996694
312793.0217,25.52469052238994,19.592694654382147,29.290069801147624,17.573392085545258,36.67799999995623
312793.0227,31.406659699419162,26.752543352710216,40.963776445603706,26.542295108428664,36.67899999994552
312793.0237,37.16081932054474,33.642612199696345,52.18703017052269,35.20043087773972,36.679999999993015
312793.0247,42.57802493810225,40.00241021746154,62.53287333576355,43.24193774773433,36.680999999982305
312793.0257,47.45084160052745,45.58326418591337,71.59161371064666,50.37719348961385,36.681999999971595
312793.0267,51.58501594538185,50.160528575149115,78.99059960480315,56.34639445544207,36.682999999960884
312793.0277,54.81047698719717,53.54478254239909,84.41269250990482,60.931806522102804,36.683999999950174
312793.0287,56.9910590322234,55.59126583271158,87.61229672232699,63.96790004130645,36.68499999999767
312793.0297,58.03224377009728,56.20693432892763,88.42796453637963,65.3487330618014,36.68599999998696
312793.0307,57.886379719649824,55.35469373469413,86.79082384952507,65.03214771579376,36.68699999997625
312793.0317,56.55504038093199,53.05458024794038,82.7283528930131,63.04057597671521,36.68799999996554
312793.0327,54.088408740779364,49.381881267736865,76.36333131626176,59.458492750301325,36.68899999995483
312793.0337,50.58180469167225,44.462407565512095,67.90810372717532,54.42678580192107,36.69000000000233
312793.0347,46.169683364250346,38.46532241655451,57.65457762276925,48.134514226188884,36.69099999999162
312793.0357,41.017608555141834,31.59408719630754,45.96062192276216,40.80868416213842,36.69199999998091
312793.0367,35.31283246697731,24.076185341442216,33.233719051951155,32.702770993832374,36.6929999999702
312793.0377,29.254182042649646,16.15233091277443,19.912842354933606,24.08475557923473,36.69399999995949
312793.0387,23.04196013729937,8.065853353530827,6.449577389044173,15.22541814349771,36.69499999994878
312793.0397,16.868519238003493,0.052880881899167696,-6.710517754919159,6.387552931357382,36.695999999996275
312793.0407,10.910064260107493,-7.666169487279067,-19.145404121434083,-2.1833600978487153,36.696999999985565
312793.0417,5.320101218036654,-14.893434125016757,-30.472133719324567,-10.266649355326262,36.697999999974854
312793.0427,0.22478527854607408,-21.458580008690486,-40.359903029394836,-17.671909598465245,36.698999999964144
312793.0437,-4.279748835028738,-27.221885011987833,-48.54018298651809,-24.242396730311867,36.699999999953434
312793.0447,-8.128152911757486,-32.07554050664895,-54.81371723781915,-29.85649112194456,36.70100000000093
312793.0457,-11.284945505503762,-35.943419764502835,-59.054366451746944,-34.42749073772498,36.70199999999022
312793.0467,-13.742229003664715,-38.77964329981739,-61.20993918806174,-37.90208618814228,36.70299999997951
312793.0477,-15.51643005183216,-40.56631783591167,-61.30028045696869,-40.25791668519713,36.7039999999688
312793.0487,-16.644470173452504,-41.31082795439639,-59.412982438313946,-41.50060803639977,36.70499999995809
312793.0497,-17.179751981989337,-41.04302196387018,-55.697136486663126,-41.66065497398927,36.70599999994738
312793.0507,-17.188289079563315,-39.81256318155989,-50.3555635490224,-40.79043775382805,36.70699999999488
312793.0517,-16.745223648008775,-37.686624647852184,-43.635946390467396,-38.961567411399365,36.70799999998417
312793.0527,-15.931876057131827,-34.74800107015182,-35.8212486319978,-36.2626473693373,36.70899999997346
312793.0537,-14.833367613922276,-31.09360883559579,-27.219750946519664,-32.79743372774219,36.70999999996275
312793.0547,-13.536762559806766,-26.833254847393633,-18.154972689802353,-28.683284206350844,36.71099999995204
312793.0557,-12.12959877883172,-22.088487500006597,-8.955686271584044,-24.049716112792947,36.711999999999534
312793.0567,-10.69862614053746,-16.99130536072394,0.053820868135662156,-19.036853883343532,36.712999999988824
312793.0577,-9.328551589207573,-11.682494796362112,8.563119962760753,-13.793540357615747,36.713999999978114
312793.0587,-8.100602189676744,-6.3093970265839046,16.284553820419703,-8.4749131372948,36.714999999967404
312793.0597,-7.090759102238704,-1.0229645666991691,22.96159354974592,-3.2393048384467438,36.71599999995669
312793.0607,-6.36758153050205,4.025949672714854,28.37652705101768,1.755592547669329,36.71699999994598
312793.0617,-5.9896221927348785,8.691029066331522,32.3573365137037,6.3572623079129835,36.71799999999348
312793.0627,-6.002525211617059,12.835511272856548,34.78358339140163,10.423458093854268,36.71899999998277
312793.0637,-6.435983105484652,16.33754655557492,35.59108008594974,13.827624916221211,36.71999999997206
312793.0647,-7.300801592368444,19.09557579033743,34.77509641035746,16.464331743665877,36.72099999996135
312793.0657,-8.58637014273885,21.033353910205467,32.391834420277036,18.25434686662416,36.72199999995064
312793.0667,-10.258855635545117,22.104223797566338,28.55791507157706,19.148964800877046,36.72299999999814
312793.0677,-12.260421848757655,22.294261682011925,23.447660083566383,19.133207331531242,36.72399999998743
312793.0687,-14.509727887609476,21.62396844905234,17.28802518515393,18.227572095172988,36.72499999997672
312793.0697,-16.903876570109336,20.148268864202894,10.351145826751607,16.488087122874973,36.72599999996601
312793.0707,-19.32187524142861,17.954696105970868,2.9445887335953693,14.004542874648036,36.7269999999553
312793.0717,-21.629545514173795,15.159772761340587,-4.600446244152737,10.896905354975017,36.727999999944586
312793.0727,-23.685686399052997,11.9037399571625,-11.942571591058229,7.310053513174912,36.728999999992084
312793.0737,-25.349169902987075,8.34392079299188,-18.744751949780174,3.407118632553866,36.72999999998137
312793.0747,-26.486542262166243,4.647119935135038,-24.68925737016913,-0.6381799579951775,36.73099999997066
312793.0757,-26.979629203827418,0.9815466373786963,-29.492258112673454,-4.649721329919009,36.73199999995995
312793.0767,-26.732609202882507,-2.4912054353568465,-32.91724743510188,-8.457161458821336,36.73299999994924
312793.0777,-25.678030283980583,-5.623586898742263,-34.78649469727579,-11.903569428303268,36.73399999999674
312793.0787,-23.781304854454472,-8.28843999279391,-34.98980806095666,-14.85202858213525,36.73499999998603
312793.0797,-21.043319989518682,-10.383862499126048,-33.490021893149574,-17.19079440929364,36.73599999997532
312793.0807,-17.50093962097564,-11.836309451095406,-30.324810902322,-18.83672116680501,36.73699999996461
312793.0817,-13.225338370472247,-12.601801560793858,-25.60465813525367,-19.736814229204242,36.7379999999539
312793.0827,-8.318279639260025,-12.665267688607349,-19.507050285573477,-19.86792135447326,36.7390000000014
312793.0837,-2.9066169240114483,-12.03820282005968,-12.267221843376154,-19.2347286563165,36.73999999999069
312793.0847,2.8645587109481228,-10.754958192922699,-4.165999262226981,-17.866361493402795,36.74099999997998
312793.0857,8.83959453498356,-8.868083509153193,4.484511468202858,-15.811993895710028,36.741999999969266
312793.0867,14.860184515631788,-6.443202760498313,13.356511699651863,-13.135932795497757,36.742999999958556
312793.0877,20.772912067539544,-3.553919427631754,22.1224155307876,-9.91265956440852,36.743999999947846
312793.0887,26.435876180561674,-0.2772127609538571,30.470114960466972,-6.222280217831843,36.74499999999534
312793.0897,31.723946845164967,3.3102915486611706,38.11671388771958,-2.1467609622391084,36.74599999998463
312793.0907,36.53233311671375,7.134907358940491,44.81997240581108,2.232784250351611,36.74699999997392
312793.0917,40.77831169446955,11.127200108198364,50.38688790826479,6.837621082082506,36.74799999996321
312793.0927,44.401139445505,15.222042239214092,54.67906120117017,11.591747098349387,36.7489999999525
312793.0937,47.3603427010439,19.35757173382029,57.61473511626912,16.421216680333377,36.75
312793.0947,49.63272285580203,23.47333569684167,59.16762995060704,21.252704276576882,36.75099999998929
312793.0957,51.20852757529487,27.507990604762625,59.36291506220869,26.011657977445015,36.75199999997858
312793.0967,52.08729926126857,31.3969789946295,58.270832260034545,30.620441199837245,36.75299999996787
312793.0977,52.273921627988976,35.0706043589327,55.99861136416724,34.996861163371825,36.75399999995716
312793.0987,51.7753409409366,38.4528819481282,52.681383684670536,39.05343907556469,36.75499999994645
312793.0997,50.59834567151812,41.46145789820723,48.47280303568614,42.69769340451569,36.755999999993946
312793.1007,48.748656865977615,44.008771607775685,43.536029782263896,45.83359326084004,36.756999999983236
312793.1017,46.23142505643583,46.004498806966254,38.035629927383034,48.36420579231175,36.757999999972526
312793.1027,43.053064096017486,47.35916943075112,32.13080106206435,50.195423486490995,36.758999999961816
312793.1037,39.22419468485458,47.988719837854376,25.970175467989815,51.24052862253049,36.759999999951106
312793.1047,34.76333646816355,47.819626703618155,19.68828421166739,51.42524598684992,36.7609999999986
312793.1057,29.7008908741624,46.79419132431782,13.403610613812448,50.692862177484706,36.76199999998789
312793.1067,24.082907031310025,44.87550596416672,7.218030932119041,49.00895779103334,36.76299999997718
312793.1077,17.974125256397375,42.051642009312765,1.2173451552370511,46.36531088374171,36.76399999996647
312793.1087,11.459846777033016,38.33865241158133,-4.527451931613256,42.78258537459771,36.76499999995576
312793.1097,4.646279562359539,33.78207326128003,-9.958517759455914,38.3115113835894,36.76599999994505
312793.1107,-2.3408511296616794,28.456732589013825,-15.02945229874175,33.03238708138522,36.76699999999255
312793.1117,-9.359475774069459,22.464816985204344,-19.703789019133847,27.05287186069631,36.76799999998184
312793.1127,-16.256013548339865,15.93229483179692,-23.95385142431596,20.504185199843718,36.76899999997113
312793.1137,-22.871577460748192,9.003934790923681,-27.760035882397258,13.53596069109511,36.76999999996042
312793.1147,-29.049123382805853,1.8372763869037732,-31.110479058759285,6.310117415752769,36.77099999994971
312793.1157,-34.64101182798582,-5.404005212656633,-34.000980777402006,-1.005809674225167,36.771999999997206
312793.1167,-39.51639639555904,-12.556853895419962,-36.434991749473085,-8.245400141535068,36.772999999986496
312793.1177,-43.567851781074886,-19.465221490910096,-38.4234482239998,-15.249665075456116,36.773999999975786
312793.1187,-46.71670794718567,-25.985651636918657,-39.98424594383872,-21.87252672361895,36.774999999965075
312793.1197,-48.91666097877581,-31.991705955357066,-41.14119283405721,-27.98512597079763,36.775999999954365
312793.1207,-50.15537592575189,-37.37699825498541,-41.92235793857139,-33.47874237052459,36.77700000000186
312793.1217,-50.45396910261514,-42.05674090809236,-42.35783348057792,-38.26624922082264,36.77799999999115
312793.1227,-49.86444058988449,-45.96785214006364,-42.477034755787955,-42.28216839847613,36.77899999998044
312793.1237,-48.4653045424869,-49.06780913348887,-42.305764524226895,-45.481521895263896,36.77999999996973
312793.1247,-46.355818297120884,-51.33254573753238,-41.86335044295673,-47.83778569599638,36.78099999995902
312793.1257,-43.649326299967036,-52.75377350453689,-41.16021355073408,-49.34032555328027,36.78199999994831
312793.1267,-40.46630035062427,-53.336142447891866,-40.196233969566904,-49.991725578817196,36.78299999999581
312793.1277,-36.92766722946281,-53.09464930951992,-38.96024251015163,-49.80540594997427,36.7839999999851
312793.1287,-33.14896762458552,-52.052646981133606,-37.43088467495697,-48.80386673816494,36.78499999997439
312793.1297,-29.235791229547676,-50.24071452828509,-35.57898283460172,-47.017796896294065,36.78599999996368
312793.1307,-25.28079195653508,-47.69652275456237,-33.37137400535514,-44.486160909758624,36.78699999995297
312793.1317,-21.36241860003261,-44.465688448685746,-30.776039171558644,-41.25723375938091,36.788000000000466
312793.1327,-17.545316947142446,-40.60346641422027,-27.768182056408552,-37.39041270802657,36.788999999989755
312793.1337,-13.882187263064653,-36.17699760956528,-24.336777571974434,-32.95850733406014,36.789999999979045
312793.1347,-10.416733520870876,-31.267728651121285,-20.49100836515939,-28.050111254268813,36.790999999968335
312793.1357,-7.187232443363661,-25.973554408660657,-16.265954355356996,-22.771601463886842,36.791999999957625
312793.1367,-4.23019217940965,-20.410219497275055,-11.726903010388632,-17.24830165487566,36.792999999946915
312793.1377,-1.583568031363345,-14.711549524861091,-6.971710198260988,-11.624387068817626,36.79399999999441
312793.1387,0.7109437059017281,-9.028167291630123,-2.130760106316772,-6.061198198730327,36.7949999999837
312793.1397,2.6069084101000057,-3.524476074965358,2.635760086054725,-0.7337619082242524,36.79599999997299
312793.1407,4.053682318348406,1.6261494206718707,7.143352029175001,4.174520028263418,36.79699999996228
312793.1417,4.998527782058588,6.2478483876052975,11.191323029917067,8.478877870019629,36.79799999995157
312793.1427,5.390194758338491,10.170143427912034,14.573162294601767,12.001562879600478,36.79899999999907
312793.1437,5.183678273635433,13.23674253900173,17.0886043667976,14.581145904115447,36.79999999998836
312793.1447,4.345717088490641,15.314694356156446,18.556636109237278,16.082127026147948,36.80099999997765
312793.1457,2.8604946640847837,16.30323509477657,18.828582489712584,16.404177113542694,36.80199999996694
312793.1467,0.7349503176144643,16.141637499241067,17.80034695498604,15.490305709960811,36.80299999995623
312793.1477,-1.996888213758947,14.815402372788235,15.422890787942524,13.333281549002228,36.80399999994552
312793.1487,-5.271079470264475,12.360220873296763,11.710113678588492,9.979720905626865,36.804999999993015
312793.1497,-8.99286714934116,8.863274484719522,6.743440495900489,5.531398858929743,36.805999999982305
312793.1507,-13.037966673781032,4.46161858406854,0.6726175105899771,0.14351870219368745,36.806999999971595
312793.1517,-17.256121693941925,-0.6623996272754019,-6.287538704926727,-5.980118947721672,36.807999999960884
312793.1527,-21.476820012121884,-6.28852413423141,-13.864431881485272,-12.594889736930899,36.808999999950174
312793.1537,-25.516871496832575,-12.168403947735106,-21.738738208060806,-19.42569571527295,36.80999999999767
312793.1547,-29.189386187127013,-18.0372875919447,-29.558685957080765,-26.179341459899437,36.81099999998696
312793.1557,-32.31356354052752,-23.62690797316203,-36.956804919419554,-32.558239798156514,36.81199999997625
312793.1567,-34.72462476392942,-28.678778426929867,-43.568213028516446,-38.27465475792957,36.81299999996554
312793.1577,-36.28319606743153,-32.95708970370221,-49.04939362291845,-43.064650197623,36.81399999995483
312793.1587,-36.88348320119039,-36.26042634007435,-53.09637172449013,-46.700932447427164,36.81500000000233
312793.1597,-36.45966342548291,-38.43160608259263,-55.46122421501531,-49.003851630716085,36.81599999999162
312793.1607,-34.99005211679629,-39.36507996285975,-55.96595437846568,-49.849952029596544,36.81699999998091
312793.1617,-32.498765689278095,-39.011501601486344,-54.51291853467408,-49.17762604535028,36.8179999999702
312793.1627,-29.054785911090544,-37.379267958219245,-51.0911998026814,-46.98961540398141,36.81899999995949
312793.1637,-24.768517249791543,-34.53303427792748,-45.778566562200865,-43.352302243516995,36.81999999994878
312793.1647,-19.78610302472327,-30.58939768156982,-38.73891408091889,-38.391926469464444,36.820999999996275
312793.1657,-14.281913924581316,-25.71011240758,-30.21534948256321,-32.28804035725117,36.821999999985565
312793.1667,-8.449732731362245,-20.0933334180736,-20.51932575793338,-25.26465522833329,36.822999999974854
312793.1677,-2.4932244610884453,-13.963475750783457,-10.016444631731002,-17.57963973683386,36.823999999964144
312793.1687,3.3837015983705734,-7.560320477751719,0.8902816978289853,-9.512990200653892,36.824999999953434
312793.1697,8.986061155963073,-1.1279944793048218,11.778802616351063,-1.3546096937304777,36.82600000000093
312793.1707,14.135990162307353,5.0955955359351455,22.22706819040772,6.607792846118473,36.82699999999022
312793.1717,18.67956541240843,10.8883768689392,31.831767831726477,14.100133428672347,36.82799999997951
312793.1727,22.491976884124405,16.052383060664408,40.22585583571132,20.872252199602,36.8289999999688
312793.1737,25.480915201159753,20.420418072225313,47.0940545567807,26.706725484775156,36.82999999995809
312793.1747,27.588172240976565,23.860971963939793,52.18566839364023,31.42594841956581,36.83099999994738
312793.1757,28.789573779464686,26.281365732600978,55.32421142077174,34.89735663759442,36.83199999999488
312793.1767,29.093460797084145,27.629204075277055,56.41353577242253,37.036755401222216,36.83299999998417
312793.1777,28.538004047984817,27.89229231165986,55.44033423951493,37.80980736669763,36.83399999997346
312793.1787,27.187671327960118,27.09722381980273,52.473067567963454,37.23179213912569,36.83499999996275
312793.1797,25.129168567405053,25.306866543420472,47.65752517346972,35.3657908117489,36.83599999995204
312793.1807,22.467147642294883,22.616973813420568,41.20936045721944,32.31946829665745,36.836999999999534
312793.1817,19.31992163014657,19.152120850978108,33.40404448780592,28.240629147373618,36.837999999988824
312793.1827,15.815360206301607,15.0611307443638,24.5647532128915,23.311714091989863,36.838999999978114
312793.1837,12.087063253882269,10.512110349849562,15.048744859096844,17.743390888664294,36.839999999967404
312793.1847,8.270839064321624,5.6871755434869815,5.2327991270015435,11.767380722716831,36.84099999995669
312793.1857,4.501453510164534,0.7769138562522165,-4.501717044091289,5.6286557939544,36.84199999994598
312793.1867,0.9095754058766891,-4.02538354677411,-13.783615566986983,-0.42285087241539304,36.84299999999348
312793.1877,-2.381174334392024,-8.529685932344371,-22.265977859747302,-6.14086394227605,36.84399999998277
312793.1887,-5.257154368002886,-12.555326458242927,-29.639103670597347,-11.291522059624633,36.84499999997206
312793.1897,-7.617668247946183,-15.937149149946407,-35.64189612455728,-15.662040381049044,36.84599999996135
312793.1907,-9.3779647770044,-18.531552026433847,-40.07130764975359,-19.069002123192927,36.84699999995064
312793.1917,-10.472210708557402,-20.222222385589955,-42.789520639427145,-21.36595832153643,36.84799999999814
312793.1927,-10.85630538999233,-20.925307120708634,-43.72859051135665,-22.449981492945575,36.84899999998743
312793.1937,-10.510345482220728,-20.593720405523317,-42.89234038369415,-22.26680347136214,36.84999999997672
312793.1947,-9.440502456719534,-19.220271718198394,-40.3553694655416,-20.814177466433108,36.85099999996601
312793.1957,-7.680054642877423,-16.83930590420057,-36.25912460247395,-18.143144619844943,36.8519999999553
312793.1967,-5.289325276557839,-13.526588146305155,-30.805088026348173,-14.356958523974338,36.852999999944586
312793.1977,-2.3543211563373854,-9.397241350615053,-24.245253879401435,-9.607526522582441,36.853999999992084
312793.1987,1.0160577599472833,-4.601648899860956,-16.870198391095432,-4.089359739933866,36.85499999998137
312793.1997,4.694264019687834,0.6806344106558124,-8.995187520640773,1.968823202264276,36.85599999997066
312793.2007,8.539707061731177,6.248775838070233,-0.9449023904679341,8.314531806160609,36.85699999995995
312793.2017,12.405489154760838,11.890028002107032,6.962514404192628,14.683513700871114,36.85799999994924
312793.2027,16.145920423002497,17.39009141073298,14.431292104381207,20.812734163209583,36.85899999999674
312793.2037,19.624354256550934,22.5438942514252,21.202887624084823,26.453612185611508,36.85999999998603
312793.2047,22.72080997536719,27.166133301405182,27.0689989494445,31.384735844707645,36.86099999997532
312793.2057,25.338817342054462,31.10089244949384,31.881920724148436,35.423268307891,36.86199999996461
312793.2067,27.410934088140777,34.229680720454205,35.56153702644041,38.43430221034324,36.8629999999539
312793.2077,28.90245515278754,36.477311183899985,38.09841553354214,40.337524477310204,36.8640000000014
312793.2087,29.812947920743678,37.81517209056441,39.55268761561636,41.1107109766498,36.86499999999069
312793.2097,30.175403498532454,38.26161354330081,40.048657344685815,40.78977075813057,36.86599999997998
312793.2107,30.052977698040646,37.8793742749107,39.76536135388506,39.46528891171819,36.866999999969266
312793.2117,29.533491284811724,36.77018777349458,38.92358022849303,37.27575796633376,36.867999999958556
312793.2127,28.722049683724197,35.06691737228164,37.770058627655835,34.39792128684295,36.868999999947846
312793.2137,27.732309995879024,32.92375811645983,36.55990430107476,31.034859133888904,36.86999999999534
312793.2147,26.67705168129574,30.505192820692148,35.53828697157526,27.402611657008915,36.87099999998463
312793.2157,25.658783584786086,27.974487359807455,34.92263261922612,23.716239127511788,36.87199999997392
312793.2167,24.761135628667173,25.482546848370607,34.88649887641759,20.17625884192462,36.87299999996321
312793.2177,24.041735412876154,23.157926159050522,35.54622168086824,16.956366542092173,36.8739999999525
312793.2187,23.52716094616363,21.098697059094707,36.95124773621661,14.193250068875924,36.875
312793.2197,23.21039925943627,19.366727506111985,39.07882403997105,11.979142290679624,36.87599999998929
312793.2207,23.051040162286363,17.984738640728818,41.83342273119783,10.357552288441244,36.87699999997858
312793.2217,22.978212086327204,16.936287848886664,45.05095888413776,9.322375514202003,36.87799999996787
312793.2227,22.89604217982499,16.16860038728132,48.50753498501646,8.82033484260158,36.87899999995716
312793.2237,22.691215328608134,15.59795658283731,51.93214323584857,8.756465511948935,36.87999999994645
312793.2247,22.24203488339832,15.117154570522402,55.0224982253099,9.002147224178657,36.880999999993946
312793.2257,21.42826673136218,14.604425259413059,57.46297682234,9.405022651353764,36.881999999983236
312793.2267,20.140988558782507,13.933087972602598,58.94352297673152,9.800035522809322,36.882999999972526
312793.2277,18.29167276118531,12.98120818002177,59.17833961014964,10.020780258943068,36.883999999961816
312793.2287,15.819803488736426,11.640553535281104,57.923238148041904,9.910379811185974,36.884999999951106
312793.2297,12.69845884796928,9.82423605925578,54.990641821003585,9.331194115684351,36.8859999999986
312793.2307,8.93746609886881,7.472566757870417,50.26142887360776,8.172798193811378,36.88699999998789
312793.2317,4.583944425396859,4.556820154559404,43.69303864253209,6.357841986055419,36.88799999997718
312793.2327,-0.27973244210658305,1.0807934465914648,35.3235263625648,3.84559622241588,36.88899999996647
312793.2337,-5.540312565026968,-2.9197694638542036,25.27151962991515,0.6331816476653191,36.88999999995576
312793.2347,-11.059958453606855,-7.379651968273873,13.732279664436039,-3.24534492999601,36.89099999994505
312793.2357,-16.683895207382772,-12.208166198387703,0.9702855775149299,-7.721730271967627,36.89199999999255
312793.2367,-22.24876982816898,-17.29422214052944,-12.691074223593246,-12.697672044770524,36.89299999998184
312793.2377,-27.591054704318704,-22.51196592945871,-26.88201120548203,-18.049905492122992,36.89399999997113
312793.2387,-32.55486651876926,-27.726501583566733,-41.20030651625735,-23.635761970316924,36.89499999996042
312793.2397,-36.998665359860894,-32.79927041293664,-55.226011325100224,-29.298779900963016,36.89599999994971
312793.2407,-40.80043675694742,-37.59276062199262,-68.5362067454842,-34.87403497608517,36.896999999997206
312793.2417,-43.86112683058701,-41.97434369339793,-80.71924877407592,-40.19296843306581,36.897999999986496
312793.2427,-46.106280343917646,-45.819169150309314,-91.38804272953979,-45.087615102145726,36.898999999975786
312793.2437,-47.48600502716506,-49.01217971524078,-100.19201810171818,-49.394251303158356,36.899999999965075
312793.2447,-47.973536046190794,-51.449420104109436,-106.82759417802049,-52.95658217215718,36.900999999954365
312793.2457,-47.56278757155817,-53.038892541336104,-111.04702743369458,-55.628656864978616,36.90200000000186
312793.2467,-46.26534388580715,-53.701252073740235,-112.66560525202257,-57.2777303815254,36.90299999999115
312793.2477,-44.1073552459329,-53.37063096385943,-111.56719326315033,-57.787279210711645,36.90399999998044
312793.2487,-41.12676422460395,-51.9958348540551,-107.70815622188313,-57.06032632485364,36.90499999996973
312793.2497,-37.3712023124066,-49.542069804843685,-101.11965988632589,-55.0231457407884,36.90599999995902
312793.2507,-32.896774718156664,-45.99324868105198,-91.90833221247466,-51.62930845408959,36.90699999994831
312793.2517,-27.76780766900178,-41.35480074126512,-80.25522693435433,-46.86391348567502,36.90799999999581
312793.2527,-22.057483272950318,-35.65678444221506,-66.41300259289062,-40.747734940496,36.9089999999851
312793.2537,-15.849148732442346,-28.956995305960348,-50.70121590324977,-33.34092307066148,36.90999999997439
312793.2547,-9.237974631984349,-21.343681679916834,-33.49963848765505,-24.745837278131326,36.91099999996368
312793.2557,-2.3325635299247853,-12.937441936078867,-15.239545709526153,-15.108571485825083,36.91199999995297
312793.2567,4.743916596217069,-3.8918836692699355,3.6070030467802154,-4.618762731033273,36.913000000000466
312793.2577,11.85347607115719,5.6073194354833324,22.539774665764643,6.492647409442031,36.913999999989755
312793.2587,18.8442548413257,15.34523740744597,41.04462535545835,17.957906596296542,36.914999999979045
312793.2597,25.552899056442325,25.08248791721797,58.609047847749125,29.479252256205832,36.915999999968335
312793.2607,31.808437910034353,34.56199997507299,74.7385048071854,40.73789313675185,36.916999999957625
312793.2617,37.43757758651902,43.51753117826868,88.97293620465864,51.40486401747513,36.917999999946915
312793.2627,42.27117162201393,51.68356658584022,100.9027422509745,61.153275634560806,36.91899999999441
312793.2637,46.15148619747406,58.80608381347538,110.18349684209548,69.67134018153546,36.9199999999837
312793.2647,48.93976943338501,64.65356193223273,116.54864774179553,76.67545349071506,36.92099999997299
312793.2657,50.52356724193928,69.02755231160404,119.81951341118919,81.92256861724144,36.92199999996228
312793.2667,50.823212197578876,71.77212450141441,119.91199250558583,85.22110783074335,36.92299999995157
312793.2677,49.796948862984486,72.78155150698183,116.83955597888428,86.43973154120583,36.92399999999907
312793.2687,47.44424662916809,72.0057031667577,110.71228446311466,85.51340871939232,36.92499999998836
312793.2697,43.80698211655455,69.45276574102017,101.73193238288493,82.4464043049558,36.92599999997765
312793.2707,38.96833607874388,65.18908809728173,90.18322961133507,77.31200128191104,36.92699999996694
312793.2717,33.04942996270542,59.336154843244906,76.42185433060045,70.24899207928692,36.92799999995623
312793.2727,26.203908429124624,52.064887563272094,60.85970994183517,61.45518791019505,36.92899999994552
312793.2737,18.610839566327286,43.5876599674102,43.94829850895633,51.17838801342194,36.929999999993015
312793.2747,10.466438857132811,34.148565659794095,26.161090160102486,39.705407725588145,36.930999999982305
312793.2757,1.9752135311239942,24.01258557763188,7.975832889494381,27.34987231823985,36.931999999971595
312793.2767,-6.658837926259693,13.454357122968679,-10.142274052782641,14.439534356059964,36.932999999960884
312793.2777,-15.240354458737915,2.74724458543665,-27.75570645994469,1.3038628339169918,36.933999999950174
312793.2787,-23.589525579556685,-7.8466482022099076,-44.467349536986916,-11.73741522435866,36.93499999999767
312793.2797,-31.547366206120817,-18.084990669616243,-59.9303407950554,-24.384258255261823,36.93599999998696
312793.2807,-38.9790880692595,-27.751879314441318,-73.85474511235454,-36.36433326971291,36.93699999997625
312793.2817,-45.77548183338864,-36.66242082529526,-86.01102115760109,-47.43889359955749,36.93799999996554
312793.2827,-51.85240766058862,-44.665214122888074,-96.23046633849711,-57.40647304984101,36.93899999995483
312793.2837,-57.14866206560285,-51.64287370699011,-104.40302845246072,-66.10453382817714,36.94000000000233
312793.2847,-61.62262893079093,-57.510885054446454,-110.4730293353508,-73.4093540002866,36.94099999999162
312793.2857,-65.24821876301029,-62.215193432608544,-114.43344613843088,-79.23454829583476,36.94199999998091
312793.2867,-68.01064327010187,-65.72899098975168,-116.31943186878806,-83.52867502623091,36.9429999999702
312793.2877,-69.90255801806879,-68.04917882181492,-116.20172709043734,-86.27238795336349,36.94399999995949
312793.2887,-70.9210359974215,-69.19294163959523,-114.18052412006871,-87.47554691231475,36.94499999994878
312793.2897,-71.06571675810609,-69.19478860896115,-110.3802044833206,-87.17461186583454,36.945999999996275
312793.2907,-70.33832173650107,-68.10429541378039,-104.94519552218951,-85.43052342360136,36.946999999985565
312793.2917,-68.74355263912977,-65.98464358006161,-98.03700190725989,-82.32713360938209,36.947999999974854
312793.2927,-66.29121456583329,-62.91190961001904,-89.83228291878739,-77.97011050831948,36.948999999964144
312793.2937,-62.99924754738671,-58.974924877312205,-80.52168663628902,-72.48611611654113,36.949999999953434
312793.2947,-58.89722632441043,-54.275422551074584,-70.30903492349934,-66.02196325342977,36.95100000000093
312793.2957,-54.0298121160282,-48.928122137630204,-59.4103912222289,-58.743406446270605,36.95199999999022
312793.2967,-48.459620616490014,-43.06038342702253,-48.052543810512574,-50.833220296360366,36.95299999997951
312793.2977,-42.26901054305062,-36.811092496834334,-36.470500882381025,-42.48826858499012,36.9539999999688
312793.2987,-35.560393613068854,-30.32852032147442,-24.90371435257097,-33.91536417902927,36.95499999995809
312793.2997,-28.454810814423116,-23.767011610260806,-13.590914215579076,-25.32585418428151,36.95599999994738
312793.3007,-21.08869714490728,-17.28250544322556,-2.7636270493100223,-16.929022835521337,36.95699999999488
312793.3017,-13.608949830203064,-11.027044551982733,7.361350055069545,-8.924569281120075,36.95799999998417
312793.3027,-6.166603651532203,-5.142579522358018,16.590067378494222,-1.4945703355360973,36.95899999997346
312793.3037,1.090418257579325,0.2454992690183624,24.759535336220434,5.204538396116162,36.95999999996275
312793.3047,8.024886572126926,5.034580641881174,31.74514607010304,11.049351259920886,36.96099999995204
312793.3057,14.517521364765487,9.15024221146608,37.46669630543596,15.955617290591572,36.961999999999534
312793.3067,20.473257319819187,12.550307599122743,41.89235580812221,19.882507093322307,36.962999999988824
312793.3077,25.825916366331846,15.227082933866793,45.040049483545154,22.83452990910682,36.963999999978114
312793.3087,30.54080865618932,17.20743159592087,46.97590761007322,24.86076613000672,36.964999999967404
312793.3097,34.614956970021865,18.550515732563255,47.80967216253399,26.051280779443122,36.96599999995669
312793.3107,38.07484910023262,19.343230085879153,47.68720669325765,26.530809715418325,36.96699999994598
312793.3117,40.97184809676461,19.693560019701756,46.780518601667175,26.450042363428185,36.96799999999348
312793.3127,43.375610149505455,19.722291727354254,45.27594072804772,25.97504117191821,36.96899999998277
312793.3137,45.36605316517866,19.553669234855878,43.36131046886983,25.275517992308735,36.96999999997206
312793.3147,47.02456681568845,19.305713036533717,41.21310928203359,24.512813256192107,36.97099999996135
312793.3157,48.42524206201673,19.08097600509101,38.98456958166565,23.828481715256846,36.97199999995064
312793.3167,49.626915464462385,18.95850587346895,36.79571288911974,23.334371078965727,36.97299999999814
312793.3177,50.66676799915133,18.987708476535687,34.7261539599912,23.104986312226057,36.97399999998743
312793.3187,51.556093433862884,19.184666840421837,32.81129967223332,23.17276875798582,36.97499999997672
312793.3197,52.27866790023332,19.531278943040746,31.042305187232135,23.526698238571434,36.97599999996601
312793.3207,52.791926058569175,19.97734750631289,29.369845520909216,24.11436590644002,36.9769999999553
312793.3217,53.03090026855159,20.4455082112824,27.711444225310565,24.847387747825614,36.977999999944586
312793.3227,52.914629858995006,20.838639893715783,25.961799877568698,25.60975706441049,36.978999999992084
312793.3237,52.3545205961333,21.049183193739168,24.00529196103735,26.268492472639025,36.97999999998137
312793.3247,51.26395060501515,20.969622391220014,21.729653520363534,26.685747059585267,36.98099999997066
312793.3257,49.568295343077814,20.503274509820237,19.03968615982563,26.73142106923347,36.98199999995995
312793.3267,47.214492419173794,19.574490650757603,15.869873885648206,26.295275741690308,36.98299999994924
312793.3277,44.17929227199403,18.13741105000915,12.194828250811076,25.297583706462333,36.98399999999674
312793.3287,40.47544116150543,16.182524954126812,8.036662251579342,23.69746843963816,36.98499999998603
312793.3297,36.15520994669862,13.740459994444265,3.468630727754808,21.498271627997735,36.98599999997532
312793.3307,31.310901045438122,10.882648536912756,-1.3853295654187774,18.749526769939518,36.98699999996461
312793.3317,26.072217441138147,7.7187713784420104,-6.355201364660243,15.545389424386007,36.9879999999539
312793.3327,20.600639375143075,4.3911404218855346,-11.233342254403533,12.019656016031513,36.9890000000014
312793.3337,15.08120337420967,1.066429216305144,-15.786202015476814,8.33777030449871,36.98999999999069
312793.3347,9.7122927350392,-2.0746275112933055,-19.76845471473108,4.686447379310694,36.99099999997998
312793.3357,4.694210026480267,-4.848784754379516,-22.938512479111356,1.2617206995578003,36.991999999969266
312793.3367,0.21739701460294814,-7.0822142950690505,-25.074285778760085,-1.7436753233201385,36.992999999958556
312793.3377,-3.5488117813870788,-8.621912864855798,-25.988043561909077,-4.152643814943299,36.993999999947846
312793.3387,-6.466069675959118,-9.345749028435621,-25.53930504168223,-5.814887555549573,36.99499999999534
312793.3397,-8.434823158244841,-9.170426917739233,-23.644855244155668,-6.616114187563796,36.99599999998463
312793.3407,-9.399512338284262,-8.056821711320866,-20.28520397965152,-6.4846800553792825,36.99699999997392
312793.3417,-9.350856687818395,-6.012358611312434,-15.507082939163798,-5.395286923933101,36.99799999996321
312793.3427,-8.325156143339695,-3.090344679395358,-9.421874988666424,-3.3695873986737914,36.9989999999525
312793.3437,-6.400776103297569,0.613599472066008,-2.2001688547975147,-0.47379816527160856,37.0
312793.3447,-3.6922010093123054,4.96764373228941,5.937092688915958,3.186355479419537,37.00099999998929
312793.3457,-0.34221661041753443,9.811844696838962,14.730173674225151,7.472853283002254,37.00199999997858
312793.3467,3.4870986729157627,14.967563604022473,23.89395060534202,12.224106086822513,37.00299999996787
312793.3477,7.6238366184926765,20.247470200338423,33.13220587665421,17.264474370596847,37.00399999995716
312793.3487,11.895450305151874,25.465396094599843,42.15183772584864,22.413850019181663,37.00499999994645
312793.3497,16.13702156517919,30.445362576459342,50.67607796051935,27.4966249571633,37.005999999993946
312793.3507,20.198081119174756,35.02922304401429,58.45593912555778,32.349477455686156,37.006999999983236
312793.3517,23.947625793467754,39.08251610360792,65.27929691765695,36.82755555640852,37.007999999972526
312793.3527,27.27716746557747,42.4983057215004,70.97723301323853,40.80881106871296,37.008999999961816
312793.3537,30.10184150859956,45.198971486989244,75.42749714780666,44.19641916877822,37.009999999951106
312793.3547,32.35977953433414,47.136087177130115,78.55517395805495,46.91939004448498,37.0109999999986
312793.3557,34.01009540531298,48.28867336532712,80.33084010012355,48.931624404279816,37.01199999998789
312793.3567,35.02993189171375,48.66021718128232,80.76665430119952,50.20977147067171,37.01299999997718
312793.3577,35.41106016284231,48.27491147745341,79.91092605220757,50.750308276599235,37.01399999996647
312793.3587,35.156513453932476,47.173573797726036,77.84175225442375,50.56626979496569,37.01499999995576
312793.3597,34.27767349620673,45.40966523887226,74.66029612528014,49.684023040767585,37.01599999994505
312793.3607,32.79212269722732,43.04574801321683,70.4842157190727,48.140402002039224,37.01699999999255
312793.3617,30.722439892672565,40.15060969909332,65.44164209042802,45.980415196234176,37.01799999998184
312793.3627,28.09596878571636,36.797155886009286,59.66597445331894,43.255617531150605,37.01899999997113
312793.3637,24.945442978794492,33.06104634801209,53.291618424013315,40.02311775705528,37.01999999996042
312793.3647,21.31022602204876,29.019937625381964,46.45066020616801,36.34508636915608,37.02099999994971
312793.3657,17.237832914657776,24.753109493185214,39.270359088766426,32.288548545440314,37.021999999997206
312793.3667,12.785350895479198,20.341203418624463,31.871264160542793,27.925201465649913,37.022999999986496
312793.3677,8.02037721339745,15.865792675246585,24.365725445583504,23.330989847960076,37.023999999975786
312793.3687,3.021139657464595,11.408536516616566,16.856576369506083,18.5852078468261,37.024999999965075
312793.3697,-2.12444345784254,7.049740304852225,9.435810077437168,13.768965121060164,37.025999999954365
312793.3707,-7.3208834048475815,2.866241225386887,2.18314854217798,8.962951440228,37.02700000000186
312793.3717,-12.468397719168825,-1.071346479028918,-4.835501079427483,4.244546118062929,37.02799999999115
312793.3727,-17.46717310293287,-4.701875541926682,-11.56960769930349,-0.3155675093905641,37.02899999998044
312793.3737,-22.222309821694324,-7.977141563677315,-17.985408757253797,-4.657020158890346,37.02999999996973
312793.3747,-26.64903587307441,-10.86525129208511,-24.06687925191407,-8.733267083893743,37.03099999995902
312793.3757,-30.677711963426948,-13.35349659288747,-29.81598859727308,-12.514607815262915,37.03199999994831
312793.3767,-34.25812925149296,-15.450342166718269,-35.251963873443884,-15.990330514500934,37.03299999999581
312793.3777,-37.36263451312558,-17.186174675744894,-40.409329415072506,-19.169638824258264,37.0339999999851
312793.3787,-39.98770023068459,-18.61254358654321,-45.33458565390274,-22.081103545183467,37.03499999997439
312793.3797,-42.15368336423163,-19.79974332587505,-50.081517244207255,-24.770501230077553,37.03599999996368
312793.3807,-43.90267493590178,-20.832731869283492,-54.70526990700261,-27.29704634570675,37.03699999995297
312793.3817,-45.29451828809104,-21.80553915983439,-59.255491985363506,-29.72817953310695,37.038000000000466
312793.3827,-46.401250115472024,-22.814474514485415,-63.7689834203233,-32.13322653755461,37.038999999989755
312793.3837,-47.30037781875924,-23.950579821620313,-68.2624146068838,-34.57637519132958,37.039999999979045
312793.3847,-48.06753331288229,-25.291880464970493,-72.72575489125104,-37.109517307597756,37.040999999968335
312793.3857,-48.76912388973381,-26.896046755051664,-77.11707318277976,-39.76555706769086,37.041999999957625
312793.3867,-49.45562598429675,-28.794087272520553,-81.35933390593566,-42.552789922266975,37.042999999946915
312793.3877,-50.15613372441872,-30.985648688433795,-85.33970871822304,-45.45090336754904,37.04399999999441
312793.3887,-50.874682536441235,-33.436396213597554,-88.91176273606762,-48.40904552531771,37.0449999999837
312793.3897,-51.58872592993737,-36.07780181731099,-91.90066423950192,-51.34625664542491,37.04599999997299
312793.3907,-52.24996293217493,-38.809485278254456,-94.11132515475099,-54.15437438220851,37.04699999996228
312793.3917,-52.787510401854846,-41.50405111242695,-95.33912630720971,-56.70332142378101,37.04799999995157
312793.3927,-53.11320697071812,-44.01415985521561,-95.3826390666419,-58.848481406715,37.04899999999907
312793.3937,-53.128642724348055,-46.181383142439664,-94.0575463642043,-60.43968423943449,37.04999999998836
312793.3947,-52.73334896334608,-47.846235649952014,-91.21081196236783,-61.331172080375566,37.05099999997765
312793.3957,-51.83347072308859,-48.85866773770746,-86.73406404309952,-61.39181661471195,37.05199999996694
312793.3967,-50.350192145898454,-49.0882511393737,-80.57515852744473,-60.51481712394631,37.05299999995623
312793.3977,-48.22719689635491,-48.43330174302277,-72.74697280202136,-58.626132110356686,37.05399999994552
312793.3987,-45.436522221030415,-46.8282582957666,-63.33264771690644,-55.69098410321554,37.054999999993015
312793.3997,-41.982299604738,-44.24876791696369,-52.48673324637207,-51.717921104881114,37.055999999982305
312793.4007,-37.90205543005317,-40.7141075850422,-40.43198277541193,-46.76010702139692,37.056999999971595
312793.4017,-33.265455382471345,-36.28677999436932,-27.451859171821773,-40.91373121915879,37.057999999960884
312793.4027,-28.170597459918227,-31.069344227738874,-13.879136192609051,-34.31365514176356,37.058999999950174
312793.4037,-22.738170162124348,-25.198757233623844,-0.08127433919137286,-27.12663176775831,37.05999999999767
312793.4047,-17.103975401022993,-18.83869240599076,13.556504077080598,-19.54262247534818,37.06099999998696
312793.4057,-11.410453198658828,-12.170450233569511,26.64934102595319,-11.764879098382892,37.06199999997625
312793.4067,-5.797924876766642,-5.383170446147531,38.830880993554466,-3.999544252779058,37.06299999996554
312793.4077,-0.3962861585159564,1.335912248724132,49.77023573807462,3.5544566762281216,37.06399999995483
312793.4087,4.682169570949021,7.810457805157132,59.18668534531881,10.7145042902418,37.06500000000233
312793.4097,9.348229498176408,13.88263574574753,66.8612041693118,17.32173409160955,37.06599999999162
312793.4107,13.539134608749047,19.41888677504443,72.64414686307322,23.246382789577318,37.06699999998091
312793.4117,17.219637860260153,24.313531003987897,76.45872306887267,28.39076296093508,37.0679999999702
312793.4127,20.380749888766736,28.490121228658335,78.30020483734565,32.689808697348205,37.06899999995949
312793.4137,23.036383910876705,31.900639946386274,78.23112253320521,36.109345161028884,37.06999999994878
312793.4147,25.218297793904995,34.52282255656603,76.37298782230471,38.64242500704623,37.070999999996275
312793.4157,26.969877941539167,36.356040183611356,72.89531428324847,40.304227726546934,37.071999999985565
312793.4167,28.339403684455036,37.41628082779034,68.00286997750271,41.12612111409744,37.072999999974854
312793.4177,29.373464304192698,37.7308186327136,61.92218074489696,41.149529064232034,37.073999999964144
312793.4187,30.1111713776758,37.33315467098699,54.88830368367587,40.42023402154006,37.074999999953434
312793.4197,30.57972035312274,36.258750888031365,47.132809820372806,38.98366851841116,37.07600000000093
312793.4207,30.791716110840873,34.54196889058791,38.87376253238358,36.88162644855468,37.07699999999022
312793.4217,30.744501193755802,32.21447863588978,30.308268644977353,34.15066356267952,37.07799999997951
312793.4227,30.421529103348632,29.305233482886496,21.607931351367384,30.822273846652866,37.0789999999688
312793.4237,29.795626894192104,25.841934012070254,12.917269883308322,26.92474137352431,37.07999999995809
312793.4247,28.833809574178954,21.853740249568453,4.354912663710561,22.486393428043392,37.08099999994738
312793.4257,27.503160130101545,17.374855875511166,-3.982860086419686,17.539836203012403,37.08199999999488
312793.4267,25.77718674784353,12.448511358378145,-12.016833017348988,12.126652233204307,37.08299999998417
312793.4277,23.64202198735565,7.1308245577243055,-19.678564624899163,6.30198793325573,37.08399999997346
312793.4287,21.101841135825463,1.4940213363850758,-26.903876489028097,0.13846423569660318,37.08499999996275
312793.4297,18.182947054442355,-4.371445726096726,-33.626893394433345,-6.271097709222607,37.08599999995204
312793.4307,14.936089636088589,-10.356241048656196,-39.77531866340462,-12.812536623370365,37.086999999999534
312793.4317,11.436747986613884,-16.33317553606822,-45.26748301952707,-19.3510529299523,37.087999999988824
312793.4327,7.783287607858274,-22.159985522518777,-50.01151385271658,-25.733839525044754,37.088999999978114
312793.4337,4.093096070784359,-27.68375808503669,-53.90675295921622,-31.794552005539867,37.089999999967404
312793.4347,0.49698128501038624,-32.74674167828075,-56.84732496426238,-37.35936066667615,37.09099999995669
312793.4357,-2.8677300182230034,-37.19314684720409,-58.72754635209412,-42.25418228617464,37.09199999994598
312793.4367,-5.86484343486556,-40.87644392660308,-59.4486854817278,-46.31258229514691,37.09299999999348
312793.4377,-8.367085886727397,-43.66661215327285,-58.92645306760583,-49.38377674696946,37.09399999998277
312793.4387,-10.263415070790137,-45.45679211343973,-57.09853156758584,-51.34015342945872,37.09499999997206
312793.4397,-11.465282159419614,-46.168840731258115,-53.93144625712167,-52.0837725692038,37.09599999996135
312793.4407,-11.9113811301011,-45.75738012658134,-49.42613981355493,-51.55139511636896,37.09699999995064
312793.4417,-11.570558924096996,-44.21205944895153,-43.621729269208004,-49.717711582438774,37.09799999999814
312793.4427,-10.442727855883378,-41.557899734566455,-36.5970871413464,-46.59659450257868,37.09899999998743
312793.4437,-8.557799122249733,-37.853751365602214,-28.470081188686873,-42.240358364784385,37.09999999997672
312793.4447,-5.97282691009175,-33.18904662761932,-19.394510809714546,-36.737167141512394,37.10099999996601
312793.4457,-2.767700353539177,-27.67916179583606,-9.554973111808186,-30.206866982190682,37.1019999999553
312793.4467,0.9601682608195017,-21.459802006894705,0.8399401444654307,-22.795627907557016,37.102999999944586
312793.4477,5.10164606692489,-14.680879165209376,11.565587510516107,-14.669844496777554,37.103999999992084
312793.4487,9.541647277245069,-7.50036379993566,22.389764555174818,-6.009766687958765,37.10499999998137
312793.4497,14.164379470265041,-0.07855628045392161,33.0811176762688,2.996692435460229,37.10599999997066
312793.4507,18.857668183521067,7.426854139035685,43.416913899734965,12.159590469385266,37.10699999995995
312793.4517,23.516082810000412,14.864683501406653,53.18969071956393,21.291748201142827,37.10799999994924
312793.4527,28.042733950129218,22.092971700431992,62.212445441530505,30.212537969631267,37.10899999999674
312793.4537,32.34976770321062,28.98053322661433,70.3221838800976,38.75063330950922,37.10999999998603
312793.4547,36.357729532941555,35.40747668650892,77.38181617300387,46.74580775310913,37.11099999997532
312793.4557,39.9940939269867,41.26493700298002,83.28054516895831,54.04997408666535,37.11199999996461
312793.4567,43.19134326575455,46.45433894998063,87.93302415398519,60.52772882398037,37.1129999999539
312793.4577,45.885021184905824,50.88654523726262,91.27765275758826,66.05670261945171,37.1140000000014
312793.4587,48.01217814268363,54.48123346960894,93.2744244912046,70.52801242940882,37.11499999999069
312793.4597,49.51057101549599,57.16679537289222,93.90273370410333,73.8470666197786,37.11599999997998
312793.4607,50.31888059359858,58.88096464654305,93.15949657988477,75.93489548450873,37.116999999969266
312793.4617,50.37808154111637,59.572266510830666,91.05784808749077,76.73007614999717,37.117999999958556
312793.4627,49.6339527521639,59.20225516760897,87.62655666376713,76.19120473730636,37.118999999947846
312793.4637,48.04056794837491,57.74837919579792,82.91016570420794,74.29975353631995,37.11999999999534
312793.4647,45.564472859367726,55.20720357202597,76.96974158329002,71.06305040188572,37.12099999998463
312793.4657,42.189150922647876,51.59763325101903,69.88399708685081,66.51704371724662,37.12199999997392
312793.4667,37.91931560812839,46.96373691122241,61.7504795796152,60.72847839792837,37.12299999996321
312793.4677,32.78455145221042,41.37676651199715,52.68647392907503,53.796112036075804,37.1239999999525
312793.4687,26.841859927712125,34.93601011071287,42.82927541655396,45.85064649846735,37.125
312793.4697,20.176747415594345,27.76819862118071,32.33553671770159,37.05313561291555,37.12599999998929
312793.4707,12.902612921615473,20.025304130294302,21.37947971103851,27.591746296926033,37.12699999997858
312793.4717,5.15834086126256,11.880706680023511,10.149877337648702,17.67688743488699,37.12799999996787
312793.4727,-2.8958355453233824,3.523854258580771,-1.1541600813902049,7.534864520378261,37.12899999995716
312793.4737,-11.083978034008874,-4.846317726351853,-12.328430354583888,-2.5996458490433842,37.12999999994645
312793.4747,-19.221234515454736,-13.028820370543698,-23.169638074277497,-12.491892936038614,37.130999999993946
312793.4757,-27.121313551867555,-20.828423711932107,-33.48177983827489,-21.915630294094296,37.131999999983236
312793.4767,-34.60411670446801,-28.063327301823737,-43.082498243156444,-30.661446259048553,37.132999999972526
312793.4777,-41.50299142418684,-34.5721702453518,-51.808977767852895,-38.544324034110716,37.133999999961816
312793.4787,-47.67110538127995,-40.21991123457914,-59.52298946844206,-45.40996203870924,37.134999999951106
312793.4797,-52.986527343018714,-44.90220122505098,-66.11476412226374,-51.1394797609195,37.1359999999986
