TimeStamp,ECR,FCR,ECU,FCU,time_index
312822.3437,-5.9764798159440495,-23.551966196677697,-26.126710197426327,-16.37209818410132,66.0
312822.3447,-4.611256067556189,-22.39546244486851,-23.619408965602833,-15.307701717924468,66.00099999998929
312822.3457,-2.953914926756907,-20.71468400059638,-20.657474251161307,-13.87865649545134,66.00199999997858
312822.3467,-1.0306996715836843,-18.532817668450114,-17.30592029347404,-12.104646479609958,66.00299999996787
312822.3477,1.1127344422363643,-15.892248384047464,-13.64823019588188,-10.020254709014214,66.00399999995716
312822.3487,3.4154958931510393,-12.851151695183836,-9.780481476526278,-7.671305174768268,66.00499999994645
312822.3497,5.806305200610567,-9.479644411014123,-5.805072385715772,-5.110958195639733,66.00599999999395
312822.3507,8.20857229893123,-5.855830592335245,-1.8245724401100123,-2.3959388453660644,66.00699999998324
312822.3517,10.545291446540617,-2.0620407671563137,2.0638353259843716,0.4167784143464364,66.00799999997253
312822.3527,12.743409444314217,1.8185023805970404,5.772948379895568,3.2725912505058625,66.00899999996182
312822.3537,14.737415982038163,5.704439938144241,9.22892649130166,6.121063577366477,66.0099999999511
312822.3547,16.472012106497907,9.518390461874404,12.373350562406802,8.916869335183923,66.0109999999986
312822.3557,17.903821743252582,13.188442188578177,15.163985007697626,11.619967756662163,66.01199999998789
312822.3567,19.002210107605393,16.649116245598748,17.5743929876184,14.195179558113516,66.01299999997718
312822.3577,19.749351690640218,19.841944693479753,19.592650141904063,16.611394805994248,66.01399999996647
312822.3587,20.139742055393107,22.71583320441729,21.219463646627524,18.840672191904897,66.01499999995576
312822.3597,20.179368115651695,25.227376833163696,22.46602475787038,20.857483745679136,66.01599999994505
312822.3607,19.884740810099817,27.341269930747398,23.351904250001617,22.638320144345432,66.01699999999255
312822.3617,19.281955655992512,29.030902054414,23.90324539428766,24.161804914749023,66.01799999998184
312822.3627,18.405887221125106,30.27916752608528,24.15142625734458,25.409379237614527,66.01899999997113
312822.3637,17.299552052146268,31.079445634459674,24.132262942033215,26.3665231779918,66.01999999996042
312822.3647,16.013601262221453,31.436640729704457,23.88572047377105,27.024385485333823,66.02099999994971
312822.3657,14.605839115005368,31.36811577531369,23.456001234813552,27.381613943833855,66.0219999999972
312822.3667,13.140616750745174,30.90431721114777,22.891804015763608,27.446121533433928,66.0229999999865
312822.3677,11.687927735724687,30.08887901549725,22.24649942756556,27.236497833712644,66.02399999997579
312822.3687,10.322038455310809,28.97801257578414,21.577955801326453,26.782784315122832,66.02499999996508
312822.3697,9.119522121606057,27.639036111412473,20.947775982474614,26.126376773487326,66.02599999995437
312822.3707,8.156627352446414,26.14796938953325,20.41976750523559,25.31889464569058,66.02700000000186
312822.3717,7.505994613468527,24.586209808267913,20.057560321874774,24.419958186732707,66.02799999999115
312822.3727,7.232827342001931,23.036405703602618,19.921397881422667,23.49393047807136,66.02899999998044
312822.3737,7.390718594625904,21.577741592201505,20.06424671942715,22.60580004674659,66.02999999996973
312822.3747,8.017417276034513,20.28093718446897,20.527483389179505,21.816488859546297,66.03099999995902
312822.3757,9.130879719496992,19.20332726521872,21.3365122283577,21.17795754620358,66.03199999994831
312822.3767,10.725983685248705,18.384424574933306,22.49673134720872,20.728534661117973,66.03299999999581
312822.3777,12.772276607713119,17.842366941669237,23.990288391935493,20.488912302257702,66.0339999999851
312822.3787,15.213085592492146,17.571610771361694,25.774046946175712,20.45922290739144,66.03499999997439
312822.3797,17.966234639838326,17.542156967346806,27.779118207823483,20.61754219554257,66.03599999996368
312822.3807,20.926500239368796,17.700487485785636,29.91220479740573,20.92005593759483,66.03699999995297
312822.3817,23.969798838307714,17.97225944572257,32.05886258790931,21.302992343187253,66.03800000000047
312822.3827,26.958950593878477,18.266660038380742,34.08862434629976,21.686269291121185,66.03899999998976
312822.3837,29.75071695022998,18.482182116192647,35.86176038941783,21.97865039576965,66.03999999997905
312822.3847,32.20367914087401,18.51345048030143,37.23729225352428,22.08406070215479,66.04099999996834
312822.3857,34.18642408596505,18.258624970949086,38.08174113864395,21.908595650753135,66.04199999995762
312822.3867,35.58544453047075,17.626838987578463,38.27799738191671,21.36767778404167,66.04299999994691
312822.3877,36.312149492831175,16.545108499765597,37.733651004391575,20.392783123563312,66.04399999999441
312822.3887,36.308422734180645,14.964170614608468,36.3881327208667,18.93717766121522,66.0449999999837
312822.3897,35.55025979072163,12.862781720489977,34.21808093321146,16.980173672124945,66.04599999997299
312822.3907,34.04915203689219,10.250118166262743,31.240469097112786,14.529530437002398,66.04699999996228
312822.3917,31.851058683362993,7.166068398890766,27.513190388342394,11.621774892844455,66.04799999995157
312822.3927,29.033000343147556,3.6793722596572445,23.132989443767578,8.320391540288679,66.04899999999907
312822.3937,25.69750419342653,-0.11626365891220901,18.230837652202634,4.712012043436604,66.04999999998836
312822.3947,21.965313285038196,-4.107781320299709,12.965050947813394,0.9009068294625197,66.05099999997765
312822.3957,17.966924398492136,-8.169683095123702,7.5126293122781815,-2.997772285427057,66.05199999996694
312822.3967,13.833625543567857,-12.171701468526265,2.059438993738947,-6.865441614123469,66.05299999995623
312822.3977,9.688755036738156,-15.986629201784076,-3.210051096669021,-10.5876118127707,66.05399999994552
312822.3987,5.639893206638642,-19.497705148807885,-8.122736561292019,-14.060871663935252,66.05499999999302
312822.3997,1.7726248165612852,-22.60499565115368,-12.525837801890077,-17.198762216003843,66.0559999999823
312822.4007,-1.8536194552635752,-25.230304312075738,-16.294234508250895,-19.936077025973802,66.0569999999716
312822.4017,-5.2073101221989395,-27.320275590771256,-19.335698488312847,-22.231268909921248,66.05799999996088
312822.4027,-8.28402952431871,-28.847518015105948,-21.593730511007582,-24.066816671220746,66.05899999995017
312822.4037,-11.103241544938337,-29.80974629600719,-23.047910339583865,-25.447590762545996,66.05999999999767
312822.4047,-13.70293042031399,-30.22711246687402,-23.711876136226028,-26.397437555775255,66.06099999998696
312822.4057,-16.13260778725871,-30.138048882255024,-23.6292412106132,-26.954361075163217,66.06199999997625
312822.4067,-18.445333793929,-29.594066741444035,-22.867915487466874,-27.164803926718527,66.06299999996554
312822.4077,-20.68948883516802,-28.65403202240859,-21.51341204818219,-27.077604363261003,66.06399999995483
312822.4087,-22.90105867878562,-27.378469604574732,-19.6617760876126,-26.738227069760047,66.06500000000233
312822.4097,-25.097154572444143,-25.824423845757128,-17.41277039590918,-26.183829577717013,66.06599999999162
312822.4107,-27.27138455657345,-24.041332692202765,-14.863889524065975,-25.439637757746898,66.06699999998091
312822.4117,-29.3915316472268,-22.06825980730197,-12.105661156851806,-24.516971091409587,66.0679999999702
312822.4127,-31.39979279330267,-19.932686292533614,-9.21853976008979,-23.41309402964955,66.06899999995949
312822.4137,-33.215607309194816,-17.650904184758502,-6.271519805069407,-22.112889293788246,66.06999999994878
312822.4147,-34.74087474127725,-15.229893316398481,-3.3224114534032356,-20.592169521448422,66.07099999999627
312822.4157,-35.86715009613244,-12.670416567331095,-0.41954859533067784,-18.822282118880867,66.07199999998556
312822.4167,-36.48422780452654,-9.970949810797453,2.3954456412695264,-16.77553374116252,66.07299999997485
312822.4177,-36.48940030130761,-7.131983009504352,5.084313461799123,-14.430877530314032,66.07399999996414
312822.4187,-35.79661367099358,-4.160195242999877,7.608765472550134,-11.779275893522094,66.07499999995343
312822.4197,-34.34474688594528,-1.0720218187843704,9.927555134095348,-8.82817703110731,66.07600000000093
312822.4207,-32.10431216001523,2.103805742361027,11.99448649590378,-5.60462224753958,66.07699999999022
312822.4217,-29.082005305368114,5.325062393358176,13.757706992836747,-2.1566259425970924,66.07799999997951
312822.4227,-25.322714810301587,8.536355876640107,15.160488997689695,1.4473705580957033,66.0789999999688
312822.4237,-20.908810484414225,11.671005102463427,16.143532654149528,5.120991356554361,66.07999999995809
312822.4247,-15.956757989857005,14.654343232002255,16.64864546699608,8.764202836063175,66.08099999994738
312822.4257,-10.611324382969213,17.408174000644816,16.6234890754052,12.269045671854279,66.08199999999488
312822.4267,-5.037832694200136,19.855991226232824,16.026947400071418,15.526354676113202,66.08299999998417
312822.4277,0.5869261192823801,21.928489772992904,14.83457706076488,18.432903715900462,66.08399999997346
312822.4287,6.084420428263155,23.568859368268306,13.043560640301747,20.89836892536074,66.08499999996275
312822.4297,11.28400851085278,24.737364205751735,10.676600941794485,22.851514896433734,66.08599999995204
312822.4307,16.031768261152923,25.414770199741085,7.784269112635036,24.245074324436978,66.08699999999953
312822.4317,20.19791323021919,25.60428252909782,4.44544500574041,25.05890545443811,66.08799999998882
312822.4327,23.68232339632272,25.33178917075477,0.7656529408220452,25.30116286589815,66.08899999997811
312822.4337,26.417895677535416,24.644358828462916,-3.126715379558358,25.00739142037265,66.0899999999674
312822.4347,28.37161385575019,23.607099505871183,-7.086104683965751,24.237634251373837,66.0909999999567
312822.4357,29.543431620182417,22.298631985798327,-10.957059243136992,23.07181663642069,66.09199999994598
312822.4367,29.96323776842468,20.80555667827444,-14.58252730556693,21.603812685302728,66.09299999999348
312822.4377,29.686313459365074,19.216381043041178,-17.81258401666215,19.934707825670312,66.09399999998277
312822.4387,28.787785861398202,17.615419885197056,-20.512901334395448,18.165827727464865,66.09499999997206
312822.4397,27.356623578077567,16.077178302009493,-22.57230616378927,16.392108946972012,66.09599999996135
312822.4407,25.48970537473262,14.661677549743478,-23.908841170354787,14.696338661189777,66.09699999995064
312822.4417,23.286429024771326,13.411092726151171,-24.473869761334964,13.14469588259028,66.09799999999814
312822.4427,20.844220595994976,12.347947024163505,-24.253935534996835,11.78389439413581,66.09899999998743
312822.4437,18.25516922674073,11.474962566016176,-23.27028098135893,10.640071638780187,66.09999999997672
312822.4447,15.603863972681083,10.776516498778888,-21.576131741512896,9.719403334191597,66.100999999966
312822.4457,12.966364110705076,10.221507637470124,-19.2520419872503,9.010266624294177,66.1019999999553
312822.4467,10.410108019291716,9.767317075999463,-16.399755397614914,8.48664009240155,66.10299999994459
312822.4477,7.994471634397742,9.364457210120323,-13.135149756166083,8.112329471197926,66.10399999999208
312822.4487,5.771634945832588,8.96145556571225,-9.580890890380648,7.845552275008957,66.10499999998137
312822.4497,3.7874087669748455,8.509516646044892,-5.859418635832357,7.643407253937047,66.10599999997066
312822.4507,2.081713623159419,7.96654619849119,-2.086824921636868,7.46579506283089,66.10699999995995
312822.4517,0.6884825232208891,7.300202976254089,1.63193093454519,7.2784396095707224,66.10799999994924
312822.4527,-0.36513038966916506,6.489754492160593,5.206179749750827,7.05477574621236,66.10899999999674
312822.4537,-1.0602261260085233,5.526643717005452,8.560961841989798,6.776605618608882,66.10999999998603
312822.4547,-1.3881840316402416,4.413809669260403,11.636781670821707,6.4335685016230775,66.11099999997532
312822.4557,-1.3529788226794606,3.163932462391539,14.38794216848451,6.021602297785083,66.11199999996461
312822.4567,-0.9734514423123128,1.7968796902529174,16.779843455957465,5.54068514955709,66.1129999999539
312822.4577,-0.28514591571908265,0.33670539281457873,18.78572620217161,4.992221405440069,66.1140000000014
312822.4587,0.6586771884135574,-1.191412044171616,20.3833813919427,4.3764697501126575,66.11499999999069
312822.4597,1.7871933598084901,-2.7639140638613977,21.55233195072899,3.6903993643673534,66.11599999997998
312822.4607,3.0135836452993727,-4.360957864867382,22.27191968223454,2.926303997467913,66.11699999996927
312822.4617,4.23814307296411,-5.967618308610728,22.520611129598436,2.071409901431446,66.11799999995856
312822.4627,5.352896595922713,-7.574061344387765,22.276680955430304,1.1085917719391927,66.11899999994785
312822.4637,6.247528398552147,-9.174680657748953,21.520257508314963,0.018174204698447993,66.11999999999534
312822.4647,6.81627509794869,-10.766316819736401,20.23654060482196,-1.219340616163983,66.12099999998463
312822.4657,6.96530202399892,-12.345793536210708,18.419844537671256,-2.6199004174870058,66.12199999997392
312822.4667,6.6199889763583935,-13.907096205224024,16.077996568032436,-4.192260991064184,66.12299999996321
312822.4677,5.731508825264119,-15.438573885462619,13.236545990291845,-5.934505756782488,66.1239999999525
312822.4687,4.282095642113064,-16.92056045149423,9.942219945490143,-7.831167227144912,66.125
312822.4697,2.2884699775918538,-18.32378183215559,6.265102670595764,-9.851352875617545,66.12599999998929
312822.4707,-0.19698685437460034,-19.608845920907736,2.2991121214345367,-11.94819490706718,66.12699999997858
312822.4717,-3.0875496483135803,-20.727006422304765,-1.839506419997956,-14.059822802805092,66.12799999996787
312822.4727,-6.26599979701411,-21.6222616593328,-6.015769249978799,-16.111910655381205,66.12899999995716
312822.4737,-9.590841666864051,-22.234707037440092,-10.081525912802254,-18.021692515309365,66.12999999994645
312822.4747,-12.904513283877174,-22.504919740677728,-13.882715265044736,-19.70318405045379,66.13099999999395
312822.4757,-16.0430409877441,-22.379030685177472,-17.26782883807401,-21.07321352440017,66.13199999998324
312822.4767,-18.846450845110226,-21.814044770009296,-20.096963337603878,-22.05776356099352,66.13299999997253
312822.4777,-21.169167969888104,-20.782916363119064,-22.250755248954768,-22.5980684476002,66.13399999996182
312822.4787,-22.88961699089012,-19.278879321837394,-23.638463722824792,-22.655906705804615,66.1349999999511
312822.4797,-23.918285575954208,-17.31857181467853,-24.20450742129401,-22.217577247387048,66.1359999999986
312822.4807,-24.2036249930373,-14.943583208681273,-23.932864881373984,-21.296146351313354,66.13699999998789
312822.4817,-23.735328191811327,-12.220176203036196,-22.848908207904444,-19.931693698877428,66.13799999997718
312822.4827,-22.54473281932576,-9.237091200699117,-21.018443122073908,-18.18945631629471,66.13899999996647
312822.4837,-20.702326142562438,-6.1015076874169685,-18.543956895974887,-16.15595395105737,66.13999999995576
312822.4847,-18.31256105682688,-2.93340360476614,-15.55830916164678,-13.933360998360014,66.14099999994505
312822.4857,-15.50640687267279,0.14129729188441376,-12.21631786137578,-11.632551478801211,66.14199999999255
312822.4867,-12.432236575894946,2.998282580595378,-8.68487374869305,-9.365369317471778,66.14299999998184
312822.4877,-9.245778192411413,5.522530785430385,-5.132344974624715,-7.236754048365649,66.14399999997113
312822.4887,-6.099920926664451,7.6155074725510445,-1.7180962250002365,-5.337374225600627,66.14499999996042
312822.4897,-3.1351617701375982,9.201301419247896,1.4170616559449245,-3.7373846070580705,66.14599999994971
312822.4907,-0.47140638635106424,10.231205459335957,4.158755323674113,-2.4818313994169574,66.1469999999972
312822.4917,1.7982935566647718,10.686372159537978,6.424673647312087,-1.5880905536346441,66.1479999999865
312822.4927,3.611663255805744,10.578333460432992,8.167536723048409,-1.0455497863616603,66.14899999997579
312822.4937,4.938593759266098,9.947351550946433,9.375241743186741,-0.8175514722911574,66.14999999996508
312822.4947,5.780023377130048,8.85874945419398,10.06826068563708,-0.84541839026137,66.15099999995437
312822.4957,6.164549281237149,7.397537714441881,10.29459837401543,-1.0542052236021489,66.15200000000186
312822.4967,6.143190670366142,5.661793079600015,10.122823194083919,-1.3596718886901176,66.15299999999115
312822.4977,5.782864639433234,3.755343738522073,9.633838475973418,-1.675873333652023,66.15399999998044
312822.4987,5.1592201785530385,1.7803648948859983,8.912156654327577,-1.9227133117012183,66.15499999996973
312822.4997,4.349498315149337,-0.16951575488471005,8.037462988401169,-2.032820658344366,66.15599999995902
312822.5007,3.4260469790721464,-2.015059774632975,7.077209532175864,-1.9571743043608638,66.15699999994831
312822.5017,2.451023232199402,-3.695767539755297,6.080868410590237,-1.6690209781012924,66.15799999999581
312822.5027,1.4726737902213178,-5.172436331889463,5.076307497280314,-1.165786109997403,66.1589999999851
312822.5037,0.5234121109250489,-6.427791406437269,4.068547397297919,-0.4688592097477627,66.15999999997439
312822.5047,-0.38027581260027554,-7.465226424856476,3.0409356249183848,0.37867677834914776,66.16099999996368
312822.5057,-1.2362460692438784,-8.3058541030662,1.958552891922813,1.3161241633274754,66.16199999995297
312822.5067,-2.0537398503930886,-8.984210022105275,0.7734678135358425,2.2706567020489796,66.16300000000047
312822.5077,-2.849484415335545,-9.543059707799815,-0.5687020182093042,3.1636996888075153,66.16399999998976
312822.5087,-3.6433547638775785,-10.027822181039276,-2.12156896939614,3.917626467720095,66.16499999997905
312822.5097,-4.454117640211654,-10.481137331623344,-3.9307825503847367,4.46218425093794,66.16599999996834
312822.5107,-5.29574346311106,-10.93806946500315,-6.027530160234148,4.740106528888537,66.16699999995762
312822.5117,-6.1746858205846,-11.422359638714417,-8.42331282797554,4.7114625201743205,66.16799999994691
312822.5127,-7.088402199977631,-11.944023540636092,-11.106442204124258,4.356426158457698,66.16899999999441
312822.5137,-8.025237496737033,-12.498451568859748,-14.040532886528524,3.676304585851063,66.1699999999837
312822.5147,-8.965629927243247,-13.067017486377544,-17.16507257674885,2.6928332920054148,66.17099999997299
312822.5157,-9.884444492390887,-13.619056322906888,-20.39796056424174,1.4459054813138763,66.17199999996228
312822.5167,-10.75410843597185,-14.114945155353041,-23.63973116066627,-0.009958525929111098,66.17299999995157
312822.5177,-11.54812999686133,-14.509924009290563,-26.77903917638846,-1.6099930778197677,66.17399999999907
312822.5187,-12.244535986113664,-14.758237131912718,-29.698891673971424,-3.28395293794227,66.17499999998836
312822.5197,-12.82877018284133,-14.817161960418696,-32.283071331792144,-4.960786508302617,66.17599999997765
312822.5207,-13.295652625734906,-14.650524424952218,-34.422213429185106,-6.572779544632351,66.17699999996694
312822.5217,-13.650103565852275,-14.231370507345039,-36.01906667150898,-8.058815290097003,66.17799999995623
312822.5227,-13.906474333786209,-13.543566990063084,-36.992578652568774,-9.36651356276966,66.17899999994552
312822.5237,-14.086486160796627,-12.582227760117734,-37.280586526601844,-10.453148636244109,66.17999999999302
312822.5247,-14.215940363645522,-11.352992673315077,-36.84104671472802,-11.285388819853024,66.1809999999823
312822.5257,-14.320512031089775,-9.870310098624774,-35.651887649638354,-11.838034174140619,66.1819999999716
312822.5267,-14.421058462918591,-8.154978989249788,-33.7097010350174,-12.09203870026414,66.18299999996088
312822.5277,-14.528950031807511,-6.231280983783512,-31.02758676322571,-12.032178189379161,66.18399999995017
312822.5287,-14.641956038285652,-4.124070196993658,-27.632525235286952,-11.644757102233223,66.18499999999767
312822.5297,-14.74118786998108,-1.856184570368147,-23.56266380597349,-10.915734346778201,66.18599999998696
312822.5307,-14.789518317231998,0.5535012194392581,-18.864871930466773,-9.829590477756627,66.18699999997625
312822.5317,-14.731766643730273,3.0911402010777334,-13.592847669111702,-8.369164149052509,66.18799999996554
312822.5327,-14.496776108919446,5.747959056827965,-7.805956014660273,-6.516564043460304,66.18899999995483
312822.5337,-14.001329783364591,8.519269936888229,-1.5688595710091184,-4.255127256711229,66.19000000000233
312822.5347,-13.155669376214913,11.40255472592797,5.048121419580622,-1.5722609307933777,66.19099999999162
312822.5357,-11.870218318146938,14.394839516604451,11.968095608580223,1.537114581083934,66.19199999998091
312822.5367,-10.062980857117115,17.48966525118051,19.10639902468034,5.066892603255824,66.1929999999702
312822.5377,-7.667006558930883,20.674016250373217,26.36942692344399,8.996299886749203,66.19399999995949
312822.5387,-4.637282956187063,23.925585561855893,33.65383669769485,13.287038607371358,66.19499999994878
312822.5397,-0.9564513499629104,27.210732645649525,40.84643416025998,17.88144057728601,66.19599999999627
312822.5407,3.3611706003508814,30.48342700691304,47.82499105418513,22.701941606150548,66.19699999998556
312822.5417,8.267638887228197,33.68537712137651,54.46014490341045,27.652067139090043,66.19799999997485
312822.5427,13.6817125498481,36.74742687148953,60.61841354717977,32.61898016254226,66.19899999996414
312822.5437,19.491477162044667,39.592173608702815,66.16622856285508,37.477492827505486,66.19999999995343
312822.5447,25.559083569858895,42.137635940712734,70.97476803090167,42.09529927831175,66.20100000000093
312822.5457,31.72724607934664,44.30168831755426,74.92526317890946,46.33906333187345,66.20199999999022
312822.5467,37.827000319376445,46.006894894743944,77.91437711810397,50.080903555428804,66.20299999997951
312822.5477,43.68612312224292,47.185325794921575,79.85921601761595,53.20476938862049,66.2039999999688
312822.5487,49.13757357753962,47.78293006221061,80.70153868641287,55.61220056725791,66.20499999995809
312822.5497,54.02732922275014,47.76307254393185,80.41078031400356,57.227008883641005,66.20599999994738
312822.5507,58.22106188179425,47.10891370413889,78.98559623176611,57.99851217453447,66.20699999999488
312822.5517,61.6092164267377,45.82441515331127,76.45375400854019,57.90307693147539,66.20799999998417
312822.5527,64.11021072140078,43.9338794488084,72.87034558213489,56.94387612551147,66.20899999997346
312822.5537,65.67165095192544,41.48006825630213,68.31444172054906,55.14892841725226,66.20999999996275
312822.5547,66.26963644655032,38.521075039717076,62.8844541714543,52.56763860036685,66.21099999995204
312822.5557,65.90639481501422,35.1262441420078,56.692592103236294,49.266192126123464,66.21199999999953
312822.5567,64.60662620073268,31.371516068742412,49.85888642230839,45.322256032055634,66.21299999998882
312822.5577,62.41303202673676,27.334630294891184,42.50529892219587,40.81949486821666,66.21399999997811
312822.5587,59.38155036968466,23.090626796942498,34.75042769149561,35.84241769519417,66.2149999999674
312822.5597,55.576813464151584,18.708054597667275,26.705265135456596,30.47202997413442,66.2159999999567
312822.5607,51.06828446975072,14.246222866609164,18.47036449713804,24.782675981253156,66.21699999994598
312822.5617,45.92742717201764,9.753724377862051,10.134633532556514,18.84033146563414,66.21799999999348
312822.5627,40.22612470755048,5.268332447106887,1.7758123823352667,12.7024544936321,66.21899999998277
312822.5637,34.03640593034127,0.8182331939094263,-6.537478284168372,6.419339211734978,66.21999999997206
312822.5647,27.431376768550212,-3.5755814366542227,-14.742396804380485,0.03675826149897128,66.22099999996135
312822.5657,20.487105276444474,-7.896054703618435,-22.777666741947275,-6.400459793351472,66.22199999995064
312822.5667,13.28508821479246,-12.126327162988709,-30.579012619381743,-12.844377693557014,66.22299999999814
312822.5677,5.914846310003395,-16.245961691590804,-38.074823522069714,-19.239942982818146,66.22399999998743
312822.5687,-1.5238366813935704,-20.227585004643217,-45.18262340495223,-25.521560588248548,66.22499999997672
312822.5697,-8.919495650342283,-24.034366029422138,-51.80687064731815,-31.61073575686785,66.225999999966
312822.5707,-16.14877989680527,-27.618675960202857,-57.83849999532667,-37.415187356500375,66.2269999999553
312822.5717,-23.077740747140027,-30.92216360405301,-63.156466274810384,-42.8296983046309,66.22799999994459
312822.5727,-29.56473982086135,-33.877342904880685,-67.63136434179948,-47.73880650617186,66.22899999999208
312822.5737,-35.46493871356767,-36.41064006053994,-71.13100013985057,-52.02126103837494,66.22999999998137
312822.5747,-40.63616017733017,-38.446699577232486,-73.52759172482914,-55.55599097791963,66.23099999997066
312822.5757,-44.94575437557056,-39.91361614923899,-74.70610508080803,-58.2291749314693,66.23199999995995
312822.5767,-48.277977122364646,-40.74865532360765,-74.57309423578013,-59.94187329928142,66.23299999994924
312822.5777,-50.541303127952204,-40.90396087276276,-73.06533209124086,-60.617604990714426,66.23399999999674
312822.5787,-51.675065113568124,-40.35172744703468,-70.15749640891299,-60.20922406046851,66.23499999998603
312822.5797,-51.65483329173482,-39.08834594917486,-65.86821793423758,-58.704482969453785,66.23599999997532
312822.5807,-50.49602787996091,-37.13710415480434,-60.26390213455148,-56.12975602140633,66.23699999996461
312822.5817,-48.255383547315766,-34.54913999224225,-53.45989417612741,-52.551531931807155,66.2379999999539
312822.5827,-45.0300478786505,-31.40248936810894,-45.61875519703831,-48.07545682436055,66.2390000000014
312822.5837,-40.95428140079253,-27.799231385940864,-36.94563946248898,-42.84290307838695,66.23999999999069
312822.5847,-36.193917600965726,-23.860896519256418,-27.680987199473623,-37.025238103339355,66.24099999997998
312822.5857,-30.9389202829593,-19.722452792282226,-18.090956982987397,-30.816152521949864,66.24199999996927
312822.5867,-25.394526278441184,-15.52530750114224,-8.45619614567879,-24.422562795162676,66.24299999995856
312822.5877,-19.771570373016456,-11.409846189671098,0.9403273265974573,-18.054715152437772,66.24399999994785
312822.5887,-14.276646716310038,-7.508068773946245,9.825643075985717,-11.916175987344937,66.24499999999534
312822.5897,-9.102762247712656,-3.936871503018567,17.94845864996881,-6.194393811546884,66.24599999998463
312822.5907,-4.421083382740097,-0.7924641024989072,25.08947769414444,-1.0524600334028664,66.24699999997392
312822.5917,-0.37427318636312307,1.8536902652116949,31.069753104850772,3.3774138027760894,66.24799999996321
312822.5927,2.928227056512024,3.957158965519553,35.75663832859667,6.998335402920505,66.2489999999525
312822.5937,5.412786573565941,5.5009488453054125,39.067095282190856,9.7508982290104,66.25
312822.5947,7.0420365627208605,6.494101020442515,40.96832364054796,11.613073027492526,66.25099999998929
312822.5957,7.813346863562204,6.968682713956345,41.475874828342754,12.598002357586767,66.25199999997858
312822.5967,7.755637032045792,6.97551451173697,40.64958756374424,12.750032530798977,66.25299999996787
312822.5977,6.924941216740597,6.579063891344925,38.58781574895912,12.139436453706058,66.25399999995716
312822.5987,5.399210669578755,5.851985723830851,35.420503611266476,10.856352764934464,66.25499999994645
312822.5997,3.272851818880045,4.8697938628568025,31.301692088196575,9.00448632447508,66.25599999999395
312822.6007,0.6514621336244574,3.706105657530016,26.402014791659106,6.6950826904640275,66.25699999998324
312822.6017,-2.3528539418363756,2.4288184002191384,20.901667024258032,4.041609932674419,66.25799999997253
312822.6027,-5.625320979446271,1.0974623561887058,14.984217395595618,1.1554646910507025,66.25899999996182
312822.6037,-9.051347825674204,-0.23815892596226165,8.83149221575294,-1.8571210588282852,66.2599999999511
312822.6047,-12.518410659130472,-1.5380701447290652,2.6196137004212128,-4.896945295459256,66.2609999999986
312822.6057,-15.917103808054499,-2.771128319665429,-3.4838697593998513,-7.872588301965444,66.26199999998789
312822.6067,-19.141605536061096,-3.913200319488497,-9.32194444507415,-10.700287638042312,66.26299999997718
312822.6077,-22.08987732876512,-4.944862712677144,-14.749454177709568,-13.303257958509858,66.26399999996647
312822.6087,-24.66394274552113,-5.849010949295534,-19.634101561535612,-15.610822178745345,66.26499999995576
312822.6097,-26.770572465779505,-6.608759681199495,-23.857443229774958,-17.557718397768824,66.26599999994505
312822.6107,-28.322637636290697,-7.20596834619542,-27.316148891198367,-19.08389945864656,66.26699999999255
312822.6117,-29.241290798342476,-7.620641151181382,-29.92370902006062,-20.135054765264478,66.26799999998184
312822.6127,-29.45900359861189,-7.831337276076198,-31.61266221385594,-20.66396690498542,66.26899999997113
312822.6137,-28.923347415147397,-7.816597417686677,-32.33728409839023,-20.632681878111296,66.26999999996042
312822.6147,-27.60126299620869,-7.557260415093651,-32.07655063263058,-20.01533632101492,66.27099999994971
312822.6157,-25.48344440770777,-7.0394227842843975,-30.837075525756394,-18.801363399637598,66.2719999999972
312822.6167,-22.588375688865188,-6.257697681166925,-28.65563866251926,-16.99870518477128,66.2729999999865
312822.6177,-18.96551721376308,-5.2183689062910075,-25.60088147874668,-14.636604728849905,66.27399999997579
312822.6187,-14.697150059254898,-3.942017379002202,-21.773753465726205,-11.767543230314295,66.27499999996508
312822.6197,-9.898452642645328,-2.4652250763343595,-17.306353621371073,-8.46792928798196,66.27599999995437
312822.6207,-4.715500856725054,-0.8410331194786365,-12.358918404351705,-4.837235845374925,66.27700000000186
312822.6217,0.6789581682919331,0.8620597111594104,-7.1148549429089325,-0.995408533284779,66.27799999999115
312822.6227,6.091921403407042,2.5626344660775744,-1.7738916672390963,2.921475054089236,66.27899999998044
312822.6237,11.31849877020085,4.170350238843563,3.456398407142577,6.767147045471884,66.27999999996973
312822.6247,16.15180922299697,5.591176649912463,8.370272112145768,10.392379209230372,66.28099999995902
312822.6257,20.393813429238005,6.733498744934135,12.77411105287427,13.653044394936398,66.28199999994831
312822.6267,23.86637113206909,7.514626712202581,16.496655188780146,16.41844452850843,66.28299999999581
312822.6277,26.42174617275426,7.867177949221945,19.398444053235746,18.57927948459741,66.2839999999851
312822.6287,27.951781332006398,7.744782335727229,21.379748260414875,20.054625441265472,66.28499999997439
312822.6297,28.395030879564022,7.126595821835456,22.38635196197434,20.797342798539223,66.28599999996368
312822.6307,27.74126710889785,6.020190418999324,22.412684597094138,20.79743913149134,66.28699999995297
312822.6317,26.03295842725273,4.4625134586879724,21.501987103395184,20.083063444144518,66.28800000000047
312822.6327,23.363536015129885,2.5187645483237464,19.743418276732843,18.718991245556293,66.28899999998976
312822.6337,19.872505241974977,0.27921096566651,17.2662422349193,16.802659514113326,66.28999999997905
312822.6347,15.737696526963358,-2.14586442996625,14.231467276636916,14.458008592613616,66.29099999996834
312822.6357,11.165167667919635,-4.632730220166169,10.821509386749886,11.827566619967248,66.29199999995762
312822.6367,6.377447121402033,-7.051806765915381,7.228611958235792,9.063355121951625,66.29299999994691
312822.6377,1.6009301063527976,-9.275730372759138,3.642852638963155,6.317288963141152,66.29399999999441
312822.6387,-2.9467035809814854,-11.18727305376879,0.24059951818376163,3.731781570989873,66.2949999999837
312822.6397,-7.0681940044720015,-12.686523397857034,-2.825760765915825,1.4312439816247828,66.29599999997299
312822.6407,-10.59675277200273,-13.696798732427983,-5.4361074996878695,-0.48491386933482616,66.29699999996228
312822.6417,-13.40382851041735,-14.168868177931046,-7.50833245048857,-1.9473015259914912,66.29799999995157
312822.6427,-15.404141872518993,-14.083210057457272,-9.001206273422502,-2.919276480611337,66.29899999999907
312822.6437,-16.557765797048614,-13.450192135503709,-9.914255693190006,-3.397264449539925,66.29999999998836
312822.6447,-16.869258227991878,-12.30823424715451,-10.284780061497727,-3.4087500398455473,66.30099999997765
312822.6457,-16.38407756566159,-10.720174644402904,-10.18235758588476,-3.008201353280814,66.30199999996694
312822.6467,-15.18270699657295,-8.768199541455628,-9.701378471453586,-2.2713490471307054,66.30299999995623
312822.6477,-13.373066579026561,-6.547798017682062,-8.952279032257088,-1.2883561089455737,66.30399999994552
312822.6487,-11.081889797439826,-4.1612632546416455,-8.052226844416696,-0.15647988028521823,66.30499999999302
312822.6497,-8.445777678509055,-1.7112718753399399,-7.116017144930272,1.0271617321680337,66.3059999999823
312822.6507,-5.602617607651393,0.7049637092735009,-6.2478857921432684,2.1721516702962087,66.3069999999716
312822.6517,-2.6839704714135357,3.0005547530591006,-5.53483083207769,3.200186775609029,66.30799999996088
312822.6527,0.1911014346020761,5.102506068287965,-5.041874780852929,4.048997070945523,66.30899999995017
312822.6537,2.9204581711125126,6.953831197861882,-4.809508810040174,4.674581410498563,66.30999999999767
312822.6547,5.421431907106943,8.514192621601728,-4.853356252696593,5.05173470357741,66.31099999998696
312822.6557,7.631558052628793,9.75918620606477,-5.165895153147259,5.173000546180589,66.31199999997625
312822.6567,9.507706280532307,10.678509743216065,-5.7199059025100025,5.046320338124034,66.31299999996554
312822.6577,11.023960169617508,11.27334600662326,-6.473175633124755,4.691753320728474,66.31399999995483
312822.6587,12.16868026848489,11.553343247713777,-7.3739072401499,4.137702563685289,66.31500000000233
312822.6597,12.941220712081357,11.533586377985113,-8.366253845090874,3.4170953225935627,66.31599999999162
312822.6607,13.348752800642314,11.23192047357359,-9.395429810641387,2.5639327550108373,66.31699999998091
312822.6617,13.403584148796856,10.66691918184815,-10.411932084315072,1.6105487975956374,66.3179999999702
312822.6627,13.12125791222777,9.856692340969651,-11.374530710019199,0.5858102651224153,66.31899999995949
312822.6637,12.519585820065915,8.81861075268985,-12.251840873846241,-0.48563774088509576,66.31999999994878
312822.6647,11.618626396091253,7.569904399404141,-13.022454407613285,-1.583111071571845,66.32099999999627
312822.6657,10.441481863207349,6.128976676826964,-13.673768996486867,-2.688765970818243,66.32199999998556
312822.6667,9.015669064385609,4.517183657493838,-14.199792075212791,-3.78587801812135,66.32299999997485
312822.6677,7.374734248695584,2.7607640155896864,-14.598299747557581,-4.8568508768883065,66.32399999996414
312822.6687,5.5597380701588515,0.8925787951954884,-14.867789125393141,-5.881316086503184,66.32499999995343
312822.6697,3.6202403548812665,-1.0466664672440145,-15.004670206698867,-6.8346730024616775,66.32600000000093
312822.6707,1.614463785355507,-3.0079930098999665,-15.001101038637023,-7.687364367032255,66.32699999999022
312822.6717,-0.39159368751004964,-4.934704492142833,-14.843782882742344,-8.405093859605472,66.32799999997951
312822.6727,-2.3262059122482355,-6.7640091423017275,-14.51391042916064,-8.950077062118934,66.3289999999688
312822.6737,-4.115093153110659,-8.429669004405266,-13.988329307269884,-9.28328904818135,66.32999999995809
312822.6747,-5.685549241498509,-9.865515554008658,-13.241804796849927,-9.367544177175382,66.33099999994738
312822.6757,-6.971215918266516,-11.009562749229422,-12.250167798134475,-9.171130570401106,66.33199999999488
312822.6767,-7.917095991612047,-11.808365184989265,-10.993991614121224,-8.671635668879905,66.33299999998417
312822.6777,-8.484333098796423,-12.221219666491269,-9.462378062118159,-7.859550019400586,66.33399999997346
312822.6787,-8.654269212969893,-12.223799059671803,-7.65640204312334,-6.741230085762676,66.33499999996275
312822.6797,-8.431324821017066,-11.810839556109412,-5.591783364832469,-5.340839157486109,66.33599999995204
312822.6807,-7.844329029334977,-10.997574139913233,-3.3004216381737033,-3.7009654904232856,66.33699999999953
312822.6817,-6.946050861644769,-9.819709697670753,-0.8305378291368531,-1.8817315190797061,66.33799999998882
312822.6827,-5.81083748677235,-8.331873116860304,1.7546963084873253,0.04165343564741009,66.33899999997811
312822.6837,-4.530435589132612,-6.6045906857060315,4.380006150792454,1.9827954159756325,66.3399999999674
312822.6847,-3.208242260322042,-4.720001709977122,6.962150950225825,3.8492264306730535,66.3409999999567
312822.6857,-1.9523850906926357,-2.766628148603252,9.41502273600906,5.548350261288116,66.34199999994598
312822.6867,-0.8681523988255501,-0.8336152779562521,11.655272478951616,6.993755129977353,66.34299999999348
312822.6877,-0.05037145086904727,0.9950854723200097,13.607961783759135,8.1113710410189,66.34399999998277
312822.6887,0.4236431258751543,2.6461072141170034,15.211720265270719,8.84494322826072,66.34499999997206
312822.6897,0.499980050163137,4.0611791716983685,16.42292197265801,9.160335862800085,66.34599999996135
312822.6907,0.15235597700393447,5.200380455898344,17.21847624763655,9.048268950527733,66.34699999995064
312822.6917,-0.6156989365485614,6.04386716502185,17.596951885449418,8.525218699691553,66.34799999999814
312822.6927,-1.7708996896068785,6.591939558668775,17.57790689282144,7.632366334757964,66.34899999998743
312822.6937,-3.2525263405636986,6.863464983757304,17.19946491639561,6.432648430286948,66.34999999997672
312822.6947,-4.976830451214356,6.892820603856801,16.51434728258032,5.0061279755264465,66.350999999966
312822.6957,-6.8431754667835705,6.7256538739576035,15.58472016651435,3.4440542136213064,66.3519999999553
312822.6967,-8.741410545390378,6.4138654614876325,14.476334789176004,1.842096944392363,66.35299999994459
312822.6977,-10.559872999184572,6.0102887608365405,13.252512755759293,0.29331632258771745,66.35399999999208
312822.6987,-12.193363245971092,5.563565552710828,11.968550847263572,-1.118545059527898,66.35499999998137
312822.6997,-13.550442698474434,5.113696100950168,10.667086841422021,-2.324887590641131,66.35599999997066
312822.7007,-14.559468736973429,4.688675825150688,9.374882615505236,-3.2767141683642547,66.35699999995995
312822.7017,-15.172895955879175,4.302525658158266,8.101350318205528,-3.9473607675164555,66.35799999994924
312822.7027,-15.369528655159163,3.9548890297939727,6.838983675746358,-4.333287983745827,66.35899999999674
312822.7037,-15.154591726424895,3.6322176703700055,5.565674749047732,-4.4528952737455825,66.35999999998603
312822.7047,-14.557678913719535,3.3104153094554967,4.2487138351125155,-4.3434944818317005,66.36099999997532
312822.7057,-13.62882131992101,2.9586673799269665,2.8501041551572275,-4.056741155796681,66.36199999996461
312822.7067,-12.433078199199349,2.5440694794046204,1.332689571844151,-3.652956241819033,66.3629999999539
312822.7077,-11.044172132346576,2.0365886839615523,-0.33349402173516224,-3.1948647102515304,66.3640000000014
312822.7087,-9.537760984102968,1.4138575032847946,-2.165265871508821,-2.741322947162535,66.36499999999069
312822.7097,-7.984953707346927,0.6653137592751215,-4.161342672277488,-2.3415993645627884,66.36599999997998
312822.7107,-6.446635517864572,-0.20474015862423517,-6.298890196278641,-2.0307136098681555,66.36699999996927
312822.7117,-4.969074998356539,-1.175483969031924,-8.531966481082739,-1.826234845506407,66.36799999995856
312822.7127,-3.5811509574109417,-2.2095246928987473,-10.792069387764126,-1.7267990012096102,66.36899999994785
312822.7137,-2.293373939424176,-3.25448140873203,-12.990810167797546,-1.712442203537521,66.36999999999534
312822.7147,-1.0987022981750891,-4.2460947492153105,-15.02453972893364,-1.7466783354015216,66.37099999998463
312822.7157,0.025017168854569304,-5.112601100431917,-16.780574028773355,-1.7800889888737723,66.37199999997392
312822.7167,1.1113024638218116,-5.779990842428657,-18.14451661909285,-1.7550590416986276,66.37299999996321
312822.7177,2.200414810201432,-6.177685531662728,-19.00807401194826,-1.6111933202981008,66.3739999999525
312822.7187,3.3343604432563962,-6.244128759061816,-19.276713064944918,-1.2908982108884923,66.375
312822.7197,4.5520291746507855,-5.931793315237275,-18.87652345503457,-0.7446109807413824,66.37599999998929
312822.7207,5.884946204408069,-5.211162381939084,-17.75972117129168,0.06479166725323034,66.37699999997858
312822.7217,7.354029344429684,-4.073339285732582,-15.908353730230115,1.158781197873773,66.37799999996787
312822.7227,8.967621634836219,-2.5310693827462853,-13.335932373355398,2.541408851522361,66.37899999995716
312822.7237,10.720922531753946,-0.6181062573225223,-10.086904839047495,4.199080300156673,66.37999999994645
312822.7247,12.596785072198184,1.6129919037695772,-6.2340760933410815,6.101817535130035,66.38099999999395
312822.7257,14.567698125284616,4.094406126228314,-1.8742648406663163,8.205806931187922,66.38199999998324
312822.7267,16.598647583499545,6.747591097138487,2.877366729113531,10.456911378406733,66.38299999997253
312822.7277,18.65046122110295,9.488366178180858,7.893767999312432,12.794739498812968,66.38399999996182
312822.7287,20.683198214547453,12.232087817013673,13.04264824958023,15.156824471211124,66.3849999999511
312822.7297,22.659150466462947,14.89843419801291,18.192736298818755,17.48247247187545,66.3859999999986
312822.7307,24.54507813226582,17.415385083535945,23.21913661705084,19.715894834440544,66.38699999998789
312822.7317,26.313400164400655,19.722072431652357,28.0073842079147,21.80833256803678,66.38799999997718
312822.7327,27.94219172976412,21.770300948775766,32.455955345178104,23.71900651902123,66.38899999996647
312822.7337,29.413989983376297,23.52467961828541,36.477167507368755,25.41486780442416,66.38999999995576
312822.7347,30.713561796765408,24.96145104295643,39.996581361340034,26.869266073241143,66.39099999994505
312822.7357,31.824925140753535,26.066240431311343,42.95118192154612,28.059782415214265,66.39199999999255
312822.7367,32.72802470802228,26.831056678641623,45.28674818881831,28.96557551648572,66.39299999998184
312822.7377,33.3955297038841,27.250953178711402,46.95490707133001,29.56465298704691,66.39399999997113
312822.7387,33.790239363466796,27.32078828647859,47.910399263773144,29.831497657887873,66.39499999996042
312822.7397,33.86354651691402,27.03251159624724,48.10905856878489,29.735448754718337,66.39599999994971
312822.7407,33.55532363971092,26.373343881318647,47.50692428337416,29.240162811553297,66.3969999999972
312822.7417,32.79546669703657,25.325121583360946,46.06077672826855,28.304366262128834,66.3979999999865
312822.7427,31.507171604668613,23.86495089701369,43.730221554745654,26.883972037112358,66.39899999997579
312822.7437,29.61184150198383,21.967174365105727,40.48126545224985,24.93548019864261,66.39999999996508
312822.7447,27.03534733689494,19.606508660775873,36.29114258512018,22.420433059206456,66.40099999995437
312822.7457,23.715206765991564,16.76208023857835,31.153985971104362,19.310563622986226,66.40200000000186
312822.7467,19.60812286394014,13.421978907881392,25.08680793405609,15.593176169410453,66.40299999999115
312822.7477,14.697247392711336,9.587878732931058,18.135172341180553,11.276239991904474,66.40399999998044
312822.7487,8.998511932894882,5.279248088296595,10.377917648046614,6.392668292334461,66.40499999996973
312822.7497,2.5654074745159807,0.536689106181966,1.9303274748341175,1.003295910431002,66.40599999995902
312822.7507,-4.508312879387471,-4.575990381166868,-7.054757609507118,-4.801841041170501,66.40699999994831
312822.7517,-12.088389878221399,-9.971267755726958,-16.38824495013127,-10.904191035668369,66.40799999999581
312822.7527,-20.002473329959574,-15.53912396436368,-25.848681818081573,-17.15944766336725,66.4089999999851
312822.7537,-28.045193653124763,-21.150006075435584,-35.18869518880153,-23.402321334704116,66.40999999997439
312822.7547,-35.98567865674804,-26.659399702330212,-44.143726049883426,-29.45308717880005,66.41099999996368
312822.7557,-43.57710945426409,-31.91373651525151,-52.44260621936545,-35.125519500535404,66.41199999995297
312822.7567,-50.56774454877526,-36.75724515636557,-59.819359719910686,-40.23569940053075,66.41300000000047
312822.7577,-56.712720553619384,-41.03927105545493,-66.02549252866027,-44.611100554474135,66.41399999998976
312822.7587,-61.785871976681406,-44.6215491900682,-70.84197461708843,-48.09932606480436,66.41499999997905
312822.7597,-65.59080640274814,-47.3849171038858,-74.09012202067711,-50.57588957846475,66.41599999996834
312822.7607,-67.97052537803346,-49.235002672418574,-75.64065399310837,-51.950504588610144,66.41699999995762
312822.7617,-68.81499022328937,-50.10650733586607,-75.42032528034935,-52.17146054621173,66.41799999994691
312822.7627,-68.06618605284311,-49.96582244000989,-73.4157053701071,-51.227812741058145,66.41899999999441
312822.7637,-65.72042286168752,-48.8118528951186,-69.67388042908004,-49.149281605239594,66.4199999999837
312822.7647,-61.82781356450336,-46.675065931715636,-64.30007212900239,-46.00393121957179,66.42099999997299
312822.7657,-56.48906820713195,-43.61492024828535,-57.45238226618719,-41.8938611604253,66.42199999996228
312822.7667,-49.84992462464305,-39.71595007289344,-49.334065233328495,-36.94928632087485,66.42299999995157
312822.7677,-42.09368399823537,-35.08286930350947,-40.18388647699308,-31.321484273626076,66.42399999999907
312822.7687,-33.43242375804303,-29.835115528223607,-30.26523213523346,-25.175150840043464,66.42499999998836
312822.7697,-24.097513029686976,-24.10126845814453,-19.854685772221675,-18.680717658152524,66.42599999997765
312822.7707,-14.330055073006594,-18.01375207255049,-9.230780370759698,-12.007151035539275,66.42699999996694
312822.7717,-4.371829564003952,-11.704168306796639,1.336429360447685,-5.31567393109225,66.42799999995623
312822.7727,5.542787671789725,-5.299519519843481,11.594439767107684,1.2452589037895612,66.42899999994552
312822.7737,15.193577783719848,1.0805329700938546,21.315627338258942,7.543537213742259,66.42999999999302
312822.7747,24.379702168523743,7.325344839370185,30.302611725639274,13.465471543421058,66.4309999999823
312822.7757,32.923344338317015,13.333983486235,38.39160120240491,18.916457522013992,66.4319999999716
312822.7767,40.671859463880175,19.015124020377293,45.453828589644004,23.820437641502355,66.43299999996088
312822.7777,47.498637691768195,24.28640201326733,51.39531972865209,28.118462582828254,66.43399999995017
312822.7787,53.30297050649853,29.0735193244139,56.15533411977555,31.76670959649486,66.43499999999767
312822.7797,58.009252308718594,33.30940430406208,59.70387141056285,34.73432957459783,66.43599999998696
312822.7807,61.56584994414651,36.933696907768656,62.03864567044115,37.001467252990444,66.43699999997625
312822.7817,63.94393356584443,39.89276653286922,63.18189427606557,38.557734639803506,66.43799999996554
312822.7827,65.136489512606,42.14038282147932,63.1773165987435,39.40132420839729,66.43899999995483
312822.7837,65.15763980698625,43.63905700319227,62.08733998839674,39.538836472110084,66.44000000000233
312822.7847,64.04228569609977,44.3619649333318,59.99079968770997,38.98577893906584,66.44099999999162
312822.7857,61.84598764695961,44.29526464498445,56.981009222609586,37.76758330374228,66.44199999998091
312822.7867,58.64490421449838,43.44054204619437,53.16410196617464,35.92089739936052,66.4429999999702
312822.7877,54.535548287804595,41.81706752075367,48.6574545031062,33.494848121984674,66.44399999995949
312822.7887,49.634089492438264,39.46352991903337,43.58796650447914,30.551948267965823,66.44499999994878
312822.7897,44.07494026563697,36.438935485010724,38.08997436419864,27.168337096073,66.44599999999627
312822.7907,38.00841032388167,32.82241651189775,32.302616628350385,23.433100257277932,66.44699999998556
312822.7917,31.597295607072013,28.711783007375526,26.366543546016914,19.44650417504664,66.44799999997485
312822.7927,25.012375145186464,24.220762104668488,20.419962178760407,15.317094002598143,66.44899999996414
312822.7937,18.42691146098965,19.474993581662936,14.594120676787993,11.157731178751577,66.44999999995343
312822.7947,12.010374033637117,14.606973403551997,9.008447042649323,7.080773039895672,66.45100000000093
312822.7957,5.921717418874932,9.750248218641868,3.765655131142183,3.192709406556113,66.45199999999022
312822.7967,0.30263315434621935,5.033250774736687,-1.0527988547374214,-0.41134279051051154,66.45299999997951
312822.7977,-4.728752914708118,0.5732200306574421,-5.390492570535711,-3.652835841888173,66.4539999999688
312822.7987,-9.083255946463721,-3.5293358170272704,-9.218639419782232,-6.474220235160714,66.45499999995809
312822.7997,-12.704633079919148,-7.19520246164275,-12.537164117271782,-8.84218553205998,66.45599999994738
312822.8007,-15.571841977885143,-10.369685213049681,-15.373997324312546,-10.74937266980825,66.45699999999488
312822.8017,-17.699305823912766,-13.024235682897833,-17.782467165604,-12.214333699503056,66.45799999998417
312822.8027,-19.135079105164547,-15.156345310608568,-19.836821549282604,-13.27965752114357,66.45899999997346
312822.8037,-19.95696975176846,-16.78771326275448,-21.626080848587172,-14.008335861891057,66.45999999996275
312822.8047,-20.266835776599283,-17.96083908009207,-23.246579957857225,-14.478598132937329,66.46099999995204
312822.8057,-20.183423585723144,-18.734321317951846,-24.793696274680688,-14.77758231319693,66.46199999999953
312822.8067,-19.834236734019978,-19.177250199678607,-26.35336156021135,-14.994318333785637,66.46299999998882
312822.8077,-19.347006556497018,-19.363155047745643,-27.99400959115097,-15.212569824710489,66.46399999997811
312822.8087,-18.84137176119622,-19.363999192271176,-29.759610827395786,-15.50410240000546,66.4649999999674
312822.8097,-18.42135894749615,-19.244703209953517,-31.664387655854487,-15.92291910115543,66.4659999999567
312822.8107,-18.169191012938995,-19.05862285286182,-33.68969205961283,-16.50092803965992,66.46699999994598
312822.8117,-18.140841065428813,-18.844316036395593,-35.78336985367813,-17.245390044841375,66.46799999999348
312822.8127,-18.36360544768677,-18.623812458831264,-37.86174449093083,-18.138345556236953,66.46899999998277
312822.8137,-18.835803749624095,-18.402461231139892,-39.814144904948606,-19.13805343625754,66.46999999997206
312822.8147,-19.52854122157815,-18.17028934695335,-41.50969400316673,-20.18230492087648,66.47099999996135
312822.8157,-20.38930541921652,-17.904670337178477,-42.805885744208354,-21.193319018239805,66.47199999995064
312822.8167,-21.34702894376566,-17.573990526557296,-43.5583263930183,-22.08379562241074,66.47299999999814
312822.8177,-22.31814621963586,-17.14192029436986,-43.63091373904107,-22.763611245846075,66.47399999998743
312822.8187,-23.21311329436956,-16.571856840634013,-42.90568660025552,-23.14659776485832,66.47499999997672
312822.8197,-23.942850195445043,-15.831106521305108,-41.291600239986465,-23.156850664644058,66.475999999966
312822.8207,-24.424605169181397,-14.894418016205844,-38.731569905041646,-22.73406892232603,66.4769999999553
312822.8217,-24.58682413346233,-13.746557527761103,-35.207267200903935,-21.837528148676927,66.47799999994459
312822.8227,-24.37272763765043,-12.383725394683276,-30.741339855545597,-20.448422063204937,66.47899999999208
312822.8237,-23.74243899229441,-10.813738738536554,-25.396937886955623,-18.570461774573246,66.47999999998137
312822.8247,-22.673656449143298,-9.055034244326363,-19.274649036379675,-16.228782748964512,66.48099999997066
312822.8257,-21.161004281905974,-7.13466580142273,-12.507153603825218,-13.46736039625493,66.48199999995995
312822.8267,-19.214318227069818,-5.085571395439104,-5.252084780116178,-10.345262563035567,66.48299999994924
312822.8277,-16.85620827709468,-2.9434524578184016,2.3162905026783704,-6.932159015748082,66.48399999999674
312822.8287,-14.119288123393774,-0.7436401617378162,10.01588443508717,-3.3035559519730486,66.48499999998603
312822.8297,-11.043461831705988,1.4816859227034693,17.665402085414883,0.4637761808864433,66.48599999997532
312822.8307,-7.673615516679815,3.705609523380434,25.09211920068078,4.295759864818874,66.48699999996461
312822.8317,-4.0579803672281525,5.907684290204983,32.13829949100976,8.124018865522885,66.4879999999539
312822.8327,-0.2473228521273127,8.07410680322841,38.6658833283729,11.887723482642226,66.4890000000014
312822.8337,3.705009201633989,10.196848009460398,44.55926426359652,15.534196916748726,66.48999999999069
312822.8347,7.742285516398571,12.271856740191831,49.72616349579026,19.018349900387886,66.49099999997998
312822.8357,11.803055630994699,14.296558770133405,54.09679608218699,22.30114321340889,66.49199999996927
312822.8367,15.819585162971697,16.266961257580363,57.621678240279955,25.347385991054438,66.49299999995856
312822.8377,19.716433084693513,18.174726080564795,60.268537660504464,28.123250639242613,66.49399999994785
312822.8387,23.409550604926647,20.00459059894306,62.01884797608282,30.59391516232176,66.49499999999534
312822.8397,26.80625050443291,21.73248869854991,62.86450964357548,32.721727680408286,66.49599999998463
312822.8407,29.806320927671052,23.324660739229667,62.805143667687624,34.46522750978098,66.49699999997392
312822.8417,32.30444643385054,24.737944326975224,61.84635884329575,35.779258631202204,66.49799999996321
312822.8427,34.193962212505916,25.92131812893515,59.99920949626112,36.61628487024595,66.4989999999525
312822.8437,35.37181829735828,26.818640157915684,57.28089484973106,36.92887478921467,66.5
312822.8447,35.74448444261896,27.372393239990572,53.71658101965024,36.673182880708254,66.50099999998929
312822.8457,35.23439819443139,27.52813686213351,49.34207044992777,35.81312701591632,66.50199999997858
312822.8467,33.786462286979464,27.239278026256525,44.20691799651553,34.32486370495508,66.50299999996787
312822.8477,31.374043682186898,26.47172330833997,38.37751131870524,32.20110327915772,66.50399999995716
312822.8487,28.00392227643361,25.207965741446003,31.939604651944226,29.454793452063385,66.50499999994645
312822.8497,23.719684757824258,23.45019502628767,24.999822917763222,26.121734127250242,66.50599999999395
312822.8507,18.60315558348051,21.222095259232,17.68573521960938,22.26176623654935,66.50699999998324
312822.8517,12.773595054543208,18.56910414426959,10.14422531262909,17.95829565155932,66.50799999997253
312822.8527,6.384562385472098,15.557041401009155,2.53804912657035,13.3160587511341,66.50899999996182
312822.8537,-0.3814751538860068,12.269159240325806,-4.959350111521393,8.45719516985155,66.5099999999511
312822.8547,-7.320523810030637,8.80181058529408,-12.170518038290352,3.515850277326212,66.5109999999986
312822.8557,-14.216007760545182,5.259057528729499,-18.921742822407275,-1.3683302020205343,66.51199999998789
312822.8567,-20.84871631442286,1.7466411599310985,-25.05134420041928,-6.057341994935123,66.51299999997718
312822.8577,-27.007106256816762,-1.6342051724482431,-30.417874835152798,-10.422061637293,66.51399999996647
312822.8587,-32.497276835864874,-4.792599827557272,-34.90758616325922,-14.349025429097267,66.51499999995576
312822.8597,-37.15195608848345,-7.65304294233008,-38.4405455396967,-17.74622145106508,66.51599999994505
312822.8607,-40.837912702250826,-10.159232631951571,-40.97488319868335,-20.547447333402594,66.51699999999255
312822.8617,-43.46133072120288,-12.27637483607037,-42.50878851729597,-22.71490623738863,66.51799999998184
312822.8627,-44.97084413273902,-13.991828076162887,-43.08005275224339,-24.239862702212037,66.51899999997113
312822.8637,-45.35811045976362,-15.314071843962436,-42.7631537473758,-25.1413447197708,66.51999999996042
312822.8647,-44.655990731914976,-16.2701346586851,-41.66407898679787,-25.463043285985687,66.52099999994971
312822.8657,-42.93458100734622,-16.901751215219228,-39.913268400326274,-25.268710431005495,66.5219999999972
312822.8667,-40.295492475882526,-17.26062506631142,-37.65721056100518,-24.636477545757984,66.5229999999865
312822.8677,-36.86489017696935,-17.40324406530515,-35.04933144808544,-23.6525967086965,66.52399999997579
312822.8687,-32.785865353833174,-17.385723967901832,-32.240864257430815,-22.4051415416364,66.52499999996508
312822.8697,-28.210728875747193,-17.259138882141407,-29.372377577430157,-20.978188277906412,66.52599999995437
312822.8707,-23.29377342047008,-17.06573770897647,-26.566569041512793,-19.446934352315576,66.52700000000186
312822.8717,-18.184965553963426,-16.836349479542477,-23.92280927662003,-17.87410758572437,66.52799999999115
312822.8727,-13.024905164218408,-16.589157215758537,-21.51375839758334,-16.30788445976318,66.52899999998044
312822.8737,-7.94124197279149,-16.32988181714603,-19.384189958806353,-14.781384403559963,66.52999999996973
312822.8747,-3.046582218445609,-16.053278067373025,-17.5519628739254,-13.313653303998246,66.53099999995902
312822.8757,1.5622311743346717,-15.745717753334066,-16.010898545136737,-11.911908530097344,66.53199999994831
312822.8767,5.8037097853451725,-15.388532401892833,-14.735165234948493,-10.574703171039266,66.53299999999581
312822.8777,9.6105212632754,-14.961720081794068,-13.68465860497848,-9.29558976775638,66.5339999999851
312822.8787,12.927891745279542,-14.4475934687193,-12.810806158691664,-8.066830665734575,66.53499999997439
312822.8797,15.71200412742827,-13.83396225585963,-12.062218739991762,-6.882715903321287,66.53599999996368
312822.8807,17.9287453985436,-13.11650006939165,-11.38966339127596,-5.742108278260839,66.53699999995297
312822.8817,19.553073623488988,-12.300038313249134,-10.749932480847255,-4.649932453914223,66.53800000000047
312822.8827,20.56916138816611,-11.398647355028848,-10.1083230343423,-3.6174504221976775,66.53899999998976
312822.8837,20.971340536246068,-10.434497189822252,-9.43960298424975,-2.6613063046296017,66.53999999997905
312822.8847,20.765737690582633,-9.435621864986695,-8.727510773870096,-1.8014648450612976,66.54099999996834
312822.8857,19.972366598829165,-8.432831186387762,-7.96299414384828,-1.0582955016071978,66.54199999995762
312822.8867,18.62734581991257,-7.456107529033108,-7.141526980048522,-0.44915468003382897,66.54299999994691
312822.8877,16.784850067879542,-6.530885406651787,-6.259936651211308,0.015118001014658107,66.54399999999441
312822.8887,14.518388190458978,-5.674630711224644,-5.3132192957142825,0.33335405904949844,66.5449999999837
312822.8897,11.921033155204489,-4.894113142562887,-4.291813017497843,0.5164523468215622,66.54599999997299
312822.8907,9.104307419196187,-4.183701472462695,-3.1797402703514805,0.5886785017832389,66.54699999996228
312822.8917,6.195543716181136,-3.524913109714967,-1.9539273682101357,0.5876359065359434,66.54799999995157
312822.8927,3.3336854999606453,-2.887326540446746,-0.5848720484034388,0.5628093825990712,66.54899999999907
312822.8937,0.6636488710386238,-2.230829661761623,0.9613263404262332,0.5727286490165016,66.54999999998836
312822.8947,-1.670477019789051,-1.509042126087125,2.7197189490095584,0.680942639500934,66.55099999997765
312822.8957,-3.5329772119272613,-0.6736288517051922,4.722332930614659,0.951123602647423,66.55199999996694
312822.8967,-4.804287656039114,0.3208732252389509,6.993479182038299,1.4417185721157042,66.55299999995623
312822.8977,-5.388422903708703,1.5121528420354966,9.545028255528898,2.2006251793137643,66.55399999994552
312822.8987,-5.219467044884332,2.925602650804322,12.372168598312815,3.2603826110992524,66.55499999999302
312822.8997,-4.266584434874898,4.570609181636473,15.450137276580787,4.634334962469246,66.5559999999823
312822.9007,-2.5371016856072397,6.438019574685624,18.732338927371707,6.314146109926251,66.5569999999716
312822.9017,-0.07735030428234542,8.499048951482617,22.150150661993298,8.268929715760503,66.55799999996088
312822.9027,3.028871628297158,10.70576557214799,25.61456016823627,10.446115922971833,66.55899999995017
312822.9037,6.664175175280712,12.993150607313643,29.01961574032216,12.774021193977584,66.55999999999767
312822.9047,10.683565346274078,15.282588685593396,32.24749668506554,15.16593437689904,66.56099999998696
312822.9057,14.922139021861705,17.48651761956821,35.174857066270484,17.525395121077068,66.56199999997625
312822.9067,19.203964648289215,19.513862867990003,37.679970265202066,19.752233328620107,66.56299999996554
312822.9077,23.351521454244633,21.275813954895355,39.65011871397947,21.74887071498114,66.56399999995483
312822.9087,27.19503766922829,22.69147251226736,40.98864069019928,23.42636422487814,66.56500000000233
312822.9097,30.581084837530454,23.6929172044431,41.621067638458314,24.70969802056666,66.56599999999162
312822.9107,33.379856914222124,24.229287768261987,41.49985926576328,25.54190338813638,66.56699999998091
312822.9117,35.490681507895864,24.269583063893766,40.60736274517647,25.886697163624525,66.5679999999702
312822.9127,36.84546518963766,23.803987305443997,38.95677548010938,25.729468426919535,66.56899999995949
312822.9137,37.409950768046755,22.843672970332925,36.59106348447096,25.076596844996487,66.56999999994878
312822.9147,37.18284552750974,21.419165352117105,33.5799631270675,23.953239395754046,66.57099999999627
312822.9157,36.19304903285997,19.577479290807116,30.015356125673296,22.39986055587888,66.57199999998556
312822.9167,34.49535189187673,17.378341401436316,26.005440972623763,20.46789115294134,66.57299999997485
312822.9177,32.165080248997214,14.889881529712657,21.668215984934466,18.214972476858215,66.57399999996414
312822.9187,29.292216094977082,12.184208809591658,17.1248314929269,15.700268194784401,66.57499999995343
312822.9197,25.975526783349096,9.333278021140211,12.493357755501783,12.980304804776035,66.57600000000093
312822.9207,22.317189584440825,6.405402450656613,7.883452648703942,10.105734125385588,66.57699999999022
312822.9217,18.418304744803105,3.4626855497619746,3.392305673571305,7.119305400952046,66.57799999997951
312822.9227,14.375563713873268,0.5595341612800192,-0.8979065987607431,4.055200535186177,66.5789999999688
312822.9237,10.279191561651949,-2.2577077772651646,-4.920979551743054,0.939737049493422,66.57999999995809
312822.9247,6.212129643857198,-4.950091631455557,-8.626144319168104,-2.2067056088108825,66.58099999994738
312822.9257,2.2502821268582665,-7.484563426293593,-11.97627788319196,-5.366814950561316,66.58199999999488
312822.9267,-1.5364673078354054,-9.831922362028912,-14.94522386031956,-8.52291394383308,66.58299999998417
312822.9277,-5.0828424470859455,-11.964589663297499,-17.514670457549006,-11.653420354789755,66.58399999997346
312822.9287,-8.32677407395171,-13.854559332218422,-19.671065100563645,-14.72966885068198,66.58499999996275
312822.9297,-11.208407255185486,-15.471881853827982,-21.403025765430325,-17.713539796456086,66.58599999995204
312822.9307,-13.669850903477451,-16.783972230821234,-22.699638940551473,-20.55626417057145,66.58699999999953
312822.9317,-15.655902785012923,-17.755940633506654,-23.54992038032422,-23.198659726240727,66.58799999998882
312822.9327,-17.11585177811247,-18.352026585465786,-23.943568825498588,-25.572910092607735,66.58899999997811
312822.9337,-18.00631158571567,-18.538087646980596,-23.872979472922655,-27.60583954647726,66.5899999999674
312822.9347,-18.294891843227912,-18.28496409534738,-23.33631994768395,-29.223476947486617,66.5909999999567
312822.9357,-17.96437948520059,-17.57242536172246,-22.341323964620106,-30.35655829541091,66.59199999994598
312822.9367,-17.01699987831872,-16.39331405105542,-20.90934253121689,-30.94650277201524,66.59299999999348
312822.9377,-15.478265387891335,-14.757449003044188,-19.079122317969066,-30.951323613975003,66.59399999998277
312822.9387,-13.39990658378194,-12.694836516499011,-16.909764393764128,-30.350910665401567,66.59499999997206
312822.9397,-10.861421326042839,-10.257771076168204,-14.482357470827663,-29.151149434095505,66.59599999996135
312822.9407,-7.969867499874636,-7.521481965821393,-11.899876142392724,-27.386420527562,66.59699999995064
312822.9417,-4.85765918860661,-4.583094157945663,-9.285078847481834,-25.120147292306516,66.59799999999814
312822.9427,-1.6782921605017387,-1.558811320445876,-6.776320075256059,-22.443217865702685,66.59899999998743
312822.9437,1.3998921228870949,1.4206166576812198,-4.521390400959012,-19.470286844614346,66.59999999997672
312822.9447,4.201611064565075,4.215923577187174,-2.6696977202135668,-16.334145405516374,66.600999999966
312822.9457,6.553754418863282,6.686493944090253,-1.3632842549494588,-13.178520305383255,66.6019999999553
312822.9467,8.295113514243154,8.698191313829481,-0.7273184560405197,-10.149805918146946,66.60299999994459
312822.9477,9.286046100360673,10.131294838138627,-0.8607936863089759,-7.388335811693063,66.60399999999208
312822.9487,9.417365841165116,10.887959548664828,-1.8281958770895435,-5.019851463169754,66.60499999998137
312822.9497,8.617775060734031,10.89863436031192,-3.6528651797127885,-3.1478202680632603,66.60599999997066
312822.9507,6.8592482647908435,10.126939239225582,-6.3126731943761305,-1.847192907799639,66.60699999995995
312822.9517,4.159915586938496,8.572614134500377,-9.738475143532002,-1.1600765295178257,66.60799999994924
312822.9527,0.5841780660593139,6.272297700530275,-13.815588550238017,-1.0936450040225432,66.60899999999674
312822.9537,-3.76000495868384,3.2980608696414526,-18.388314313840066,-1.620424627369353,66.60999999998603
312822.9547,-8.72650006891749,-0.24620577496722773,-23.267273205810845,-2.680899513239168,66.61099999997532
312822.9557,-14.138694622105811,-4.230286567759999,-28.23910239961407,-4.188193154901458,66.61199999996461
312822.9567,-19.798965745053287,-8.504610953941484,-33.0778633109111,-6.034418178962035,66.6129999999539
312822.9577,-25.4992559832457,-12.908186675890748,-37.55737134189278,-8.098159893867065,66.6140000000014
312822.9587,-31.03201293029081,-17.276921881116817,-41.46358295178755,-10.252481926544291,66.61499999999069
312822.9597,-36.20073692108165,-21.45175040940897,-44.60617268875612,-12.372820400264718,66.61599999997998
312822.9607,-40.829430073930254,-25.286012828410875,-46.828502629155366,-14.34416778983332,66.61699999996927
312822.9617,-44.770346418707526,-28.651629615357116,-48.01532259452992,-16.067034477874515,66.61799999995856
312822.9627,-47.909596207401925,-31.44372355167868,-48.09772898874766,-17.46180590081501,66.61899999994785
312822.9637,-50.17034329736832,-33.58349389395429,-47.05513567571592,-18.471272824621895,66.61999999999534
312822.9647,-51.513535527336174,-35.019301056421156,-44.914251364133115,-19.061285904300437,66.62099999998463
312822.9657,-51.936305998694856,-35.72607249059393,-41.74529263309202,-19.219656377879495,66.62199999997392
312822.9667,-51.46836051625783,-35.703273994897465,-37.655869064312284,-18.95357625720944,66.62299999996321
312822.9677,-50.166807830607375,-34.971793740557175,-32.783138877101955,-18.285949638455826,66.6239999999525
312822.9687,-48.109983173702354,-33.57015001650815,-27.284936517950214,-17.25110125597151,66.625
312822.9697,-45.39085505679182,-31.550453307403643,-21.330610194213694,-15.890353179711756,66.62599999998929
312822.9707,-42.11058888201576,-28.974528545470232,-15.09227619440958,-14.247934711516027,66.62699999997858
312822.9717,-38.372772434783826,-25.91053839248855,-8.737103319555118,-12.367618251962854,66.62799999996787
312822.9727,-34.27869647522749,-22.430351359241207,-2.4210960188367796,-10.290363954149818,66.62899999995716
312822.9737,-29.923941068130564,-18.607780703632717,3.715335316770578,-8.053120758608648,66.62999999994645
312822.9747,-25.396360241405304,-14.517694538250536,9.549925178153705,-5.688785659605936,66.63099999999395
312822.9757,-20.775400388304863,-10.235878164431238,14.979326534133667,-3.2271823568934113,66.63199999998324
312822.9767,-16.132547338707024,-5.839429239073991,19.918379798962768,-0.6967996129553965,66.63299999997253
312822.9777,-11.53258695527806,-1.4073957354043478,24.29828189301423,1.8730587642745313,66.63399999996182
312822.9787,-7.035294806893337,2.978666685172275,28.064141295088763,4.450107280039062,66.6349999999511
312822.9797,-2.6971479263152514,7.234533763170226,31.17242847153651,6.997291098020382,66.6359999999986
312822.9807,1.4273230164642423,11.273816483917006,33.58879608722629,9.471727626781016,66.63699999998789
312822.9817,5.284853412063918,15.00931534241218,35.28665514698606,11.824641081559177,66.63799999997718
312822.9827,8.823643428113963,18.35530181439475,36.246762263788426,14.0024353348469,66.63899999996647
312822.9837,11.994513909753506,21.23068030679437,36.4579144718853,15.94891262984374,66.63999999995576
312822.9847,14.752959116959556,23.562859051326928,35.91867904332169,17.608503336217478,66.64099999994505
312822.9857,17.06190316478789,25.292045970982915,34.63992525394379,18.930240140743553,66.64199999999255
312822.9867,18.894854632567704,26.375598121195903,32.6477907045273,19.872103201348626,66.64299999998184
312822.9877,20.239074372414024,26.792001175221667,29.986621646606093,20.405292756210038,66.64399999997113
312822.9887,21.09833428643502,26.54404545758763,26.72138554859492,20.517960732324283,66.64499999996042
312822.9897,21.49485464381383,25.660799934949782,22.939070247879904,20.217956786682826,66.64599999994971
312822.9907,21.47006441285056,24.19806355074594,18.748656896329287,19.5342157428855,66.6469999999972
312822.9917,21.083928237988456,22.237088146084695,14.279377020902325,18.516526491537707,66.6479999999865
312822.9927,20.412715807283377,19.881508912188455,9.677125595850294,17.23356673257805,66.64899999997579
312822.9937,19.545241602066433,17.252573940618333,5.0990861506414955,15.76924977493034,66.64999999996508
312822.9947,18.577760289670124,14.48291939039489,0.7068121916170996,14.21759332925787,66.65099999995437
312822.9957,17.60784942143859,11.709276245104475,-3.341817497827089,12.676469761033465,66.65200000000186
312822.9967,16.727731541234117,9.064604957557995,-6.901211637345345,11.240717700721937,66.65299999999115
312822.9977,16.017569516432257,6.670224379169355,-9.846596409521602,9.995173957649689,66.65399999998044
312822.9987,15.539302701824903,4.628523779177288,-12.081776749426938,9.008213929336335,66.65499999996973
312822.9997,15.331572815079348,3.016818382139513,-13.545470829655065,8.32636440809891,66.65599999995902
312823.0007,15.406217570476572,1.8828312967307013,-14.215648734991811,7.970476207922424,66.65699999994831
312823.0017,15.746692675327694,1.2421641551311926,-14.11144971812423,7.933821679932302,66.65799999999581
312823.0027,16.30862880260028,1.0779654251749842,-13.292437747149378,8.18232464545846,66.6589999999851
312823.0037,17.022553312301486,1.3428324678790822,-11.855165927272495,8.656951615031218,66.65999999997439
312823.0047,17.798622845886083,1.9628061119489901,-9.927237962209793,9.278109491943303,66.66099999996368
312823.0057,18.533039326075745,2.84315037880254,-7.65925957614197,9.951722928373808,66.66199999995297
312823.0067,19.115674435144516,3.8754696080429336,-5.215246332683492,10.576519734871344,66.66300000000047
312823.0077,19.438320066977546,4.945612868551185,-2.762180990266353,11.051948379740484,66.66399999998976
312823.0087,19.40292465033577,5.941760003477165,-0.4594821311017665,11.286097080766611,66.66499999997905
312823.0097,18.92917309044024,6.7620794937385185,1.5508496791113822,11.202984123138565,66.66599999996834
312823.0107,17.960821671335136,7.3213954043667435,3.152701614508231,10.748643630207313,66.66699999995762
312823.0117,16.470303689773278,7.556394223258775,4.262345738801655,9.895534853363813,66.66799999994691
312823.0127,14.461267194852745,7.429033453789992,4.832540704453288,8.644946416231301,66.66899999999441
312823.0137,11.968879515152283,6.9279701077368285,4.854012939917083,7.027236565192274,66.6699999999837
312823.0147,9.05791828947311,6.067994357742371,4.354304364363167,5.099930779346856,66.67099999997299
312823.0157,5.818848547955116,4.887616396120807,3.394181086937056,2.943872729475567,66.67199999996228
312823.0167,2.362243773960673,3.4450985550974997,2.0619820958463704,0.657777976405171,66.67299999995157
312823.0177,-1.1879681807436706,1.8133375815348218,0.4664329178327586,-1.6483413567233933,66.67399999999907
312823.0187,-4.701876374376249,0.07407444378449977,-1.2714551534031402,-3.8603382522470397,66.67499999998836
312823.0197,-8.050991961838756,-1.6880639809301556,-3.026741229831469,-5.867111532700414,66.67599999997765
312823.0207,-11.11513127349179,-3.3912062630850843,-4.678527462078553,-7.567264333554074,66.67699999996694
312823.0217,-13.788296457674646,-4.961137592670507,-6.116983640403583,-8.874771354555277,66.67799999995623
312823.0227,-15.983188740207734,-6.335134347404697,-7.248978950804552,-9.723296339391439,66.67899999994552
312823.0237,-17.634132090646542,-7.464526691593662,-8.002027888754919,-10.068937915216479,66.67999999999302
312823.0247,-18.69834049458646,-8.315916425094425,-8.326425583867913,-9.891330939255354,66.6809999999823
312823.0257,-19.1556145724022,-8.871108006590822,-8.195615756564841,-9.19317713798535,66.6819999999716
312823.0267,-19.006688107713057,-9.12592672041256,-7.604986130400682,-7.998409054132984,66.68299999996088
312823.0277,-18.270549462798037,-9.08818844586776,-6.569407475447448,-6.349293152277799,66.68399999995017
312823.0287,-16.981127571239156,-8.775142456705181,-5.1199131864704635,-4.30284258244335,66.68499999999767
312823.0297,-15.183752207819927,-8.210727831271752,-3.2999504926030983,-1.9269327820544304,66.68599999998696
312823.0307,-12.93177328120423,-7.422965133529826,-1.1616210911631741,0.7035065461193956,66.68699999997625
312823.0317,-10.283658423418075,-6.441751765583178,1.2377278270758316,3.5099074751014263,66.68799999996554
312823.0327,-7.300790800351206,-5.297249069153011,3.8382931380910397,6.4128605851547755,66.68899999995483
312823.0337,-4.046071721014794,-4.018951872569676,6.579832096718075,9.334172689672364,66.69000000000233
312823.0347,-0.5833091216904127,-2.6354283900374664,9.402875958724547,12.19818000184399,66.69099999999162
312823.0357,3.022742338467077,-1.1746222189150886,12.249230367883682,14.932418499360823,66.69199999998091
312823.0367,6.705917749370777,0.3354702151243759,15.061951589464567,17.467841307421686,66.6929999999702
312823.0377,10.398044870448745,1.8659850044789388,17.785056644053117,19.738831564959323,66.69399999995949
312823.0387,14.028525707520625,3.386495945729988,20.363255940015343,21.683281633324345,66.69499999994878
312823.0397,17.524389146664262,4.8646803855715675,22.74198578800127,23.24299290618141,66.69599999999627
312823.0407,20.811047058025235,6.266537001859896,24.86796668126504,24.36459655352708,66.69699999998556
312823.0417,23.81389259797957,7.557269468965507,26.690427573221932,25.00111023085267,66.69799999997485
312823.0427,26.460762407396857,8.702853632565498,28.163026721395095,25.114138749757934,66.69899999996414
312823.0437,28.685157172972605,9.67220161143281,29.246379069139575,24.67661029260215,66.69999999995343
312823.0447,30.429992155096414,10.43973642345336,29.91098320828664,23.67582774119104,66.70100000000093
312823.0457,31.65154524316676,10.988107414792408,30.140242264851175,22.116520827642525,66.70199999999022
312823.0467,32.32319767815341,11.310720598128325,29.93320549535749,20.023521342136334,66.70299999997951
312823.0477,32.43853154379373,11.413736967799627,29.30663081438109,17.443659919326684,66.7039999999688
312823.0487,32.013364103859786,11.31721036736045,28.29598852042765,14.446504394317001,66.70499999995809
312823.0497,31.086362874375705,11.055094800938184,26.955093842445883,11.123627140391001,66.70599999994738
312823.0507,29.717992776502104,10.673945168198372,25.35416614272833,7.586198054451516,66.70699999999488
312823.0517,27.98768892309195,10.2302572212218,23.576256402191405,3.9608421898764816,66.70799999998417
312823.0527,25.98931273641584,9.786530752278383,21.7121486880829,0.38386380200927844,66.70899999997346
312823.0537,23.825119639013913,9.406281057422124,19.854009607510314,-3.0058936220573185,66.70999999996275
312823.0547,21.598626731139465,9.148353106881395,18.08821502754884,-6.075125600261349,66.71099999995204
312823.0557,19.40690229735891,9.060996652996696,16.487908857772375,-8.704529175326584,66.71199999999953
312823.0567,17.332891336345703,9.17622675249104,15.105929935003516,-10.797009753360815,66.71299999998882
312823.0577,15.438431742978562,9.505014142631557,13.968769267438491,-12.284959382363706,66.71399999997811
312823.0587,13.758598095715486,10.033819075605326,13.072185271907044,-13.13595986449133,66.7149999999674
312823.0597,12.297933378960629,10.722900862205,12.379009027051818,-13.356350229037218,66.7159999999567
312823.0607,11.028998127780262,11.506708696113542,11.81952067202387,-12.99223906978681,66.71699999994598
312823.0617,9.893491379906797,12.296497059157472,11.294583079997082,-12.127727679134827,66.71799999999348
312823.0627,8.80599280271739,12.985124602781571,10.681495553899579,-10.880324876050688,66.71899999998277
312823.0637,7.660157883568571,13.453804838169702,9.842297432199535,-9.393760796029571,66.71999999997206
312823.0647,6.336987101486217,13.580397277419523,8.634029542898523,-7.828624993702067,66.72099999996135
312823.0657,4.714604280300489,13.248675349314444,6.920270418647548,-6.351444568631843,66.72199999995064
312823.0667,2.678835641319412,12.357896879625988,4.5831218845836394,-5.122963313157951,66.72299999999814
312823.0677,0.1337926970968617,10.831945139903983,1.5347389828058935,-4.286469477712624,66.72399999998743
312823.0687,-2.98836241628229,8.627309888998386,-2.272509050269661,-3.957039062288785,66.72499999997672
312823.0697,-6.719248288956255,5.739239775392898,-6.838094174192706,-4.21251083902898,66.725999999966
312823.0707,-11.048365103098224,2.20551594709339,-12.108312386565155,-5.08689199340513,66.7269999999553
312823.0717,-15.919975946270215,-1.8925372438262766,-17.974708024874385,-6.566718584007142,66.72799999994459
312823.0727,-21.23307518833392,-6.431988134651415,-24.27621075207861,-8.590677210186021,66.72899999999208
312823.0737,-26.844520643819944,-11.253145370359546,-30.804987022045207,-11.052551298156853,66.72999999998137
312823.0747,-32.57516973187646,-16.167063521905806,-37.315733220355405,-13.807307312630849,66.73099999997066
312823.0757,-38.21863613038537,-20.96525175771979,-43.53787994600042,-16.679903311746408,66.73199999995995
312823.0767,-43.55209065055808,-25.430963439384335,-49.1899567712126,-19.476203431411125,66.73299999994924
312823.0777,-48.348383551194686,-29.351324853681472,-53.99520194209,-21.995232831400536,66.73399999999674
312823.0787,-52.38867645181921,-32.52949857014006,-57.69740493928696,-24.04191963885882,66.73499999998603
312823.0797,-55.47474652874543,-34.79607569238784,-60.07594901468865,-25.43944942717469,66.73599999997532
312823.0807,-57.4401644323802,-36.01895093710702,-60.95907689775803,-26.04040397038332,66.73699999996461
312823.0817,-58.15964555166054,-36.11104935280748,-60.23453064388692,-25.735963986910892,66.7379999999539
312823.0827,-57.556022174035654,-35.03543341919297,-57.856905069371955,-24.462614878600657,66.7390000000014
312823.0837,-55.6044681127065,-32.807510547910134,-53.85128754631132,-22.20599063447238,66.73999999999069
312823.0847,-52.333811226121156,-29.494267649397248,-48.313015858626805,-19.001707017286137,66.74099999997998
312823.0857,-47.824975537669054,-25.21066458660572,-41.40364936836362,-14.933252710971237,66.74199999996927
312823.0867,-42.20678642069698,-20.11350576110004,-33.343496042922716,-10.127208625111539,66.74299999995856
312823.0877,-35.6495345325292,-14.393264524755933,-24.40125000351861,-4.74623541830992,66.74399999994785
312823.0887,-28.356815077326395,-8.264447517879372,-14.881455768604685,1.0196047481772852,66.74499999999534
312823.0897,-20.556230958753535,-1.9551484001684707,-5.110615704918301,6.962552122225262,66.74599999998463
312823.0907,-12.489568602957435,4.303549677690136,4.577208558108813,12.86721964939098,66.74699999997392
312823.0917,-4.4030256914814405,10.287703921336846,13.854480813406603,18.52040412738686,66.74799999996321
312823.0927,3.4620027647080156,15.7896393266949,22.41323027893859,23.72009286282275,66.7489999999525
312823.0937,10.877179447482574,20.62565693106339,29.976452016275804,28.28323652181891,66.75
312823.0947,17.634246415168224,24.64204527611189,36.30744023413941,32.05199762777205,66.75099999998929
312823.0957,23.55067135958197,27.719264051076824,41.21680854980735,34.89833105452155,66.75199999997858
312823.0967,28.47390109083399,29.774309196370695,44.56712960643947,36.72689342183524,66.75299999996787
312823.0977,32.28430984201726,30.761390568049443,46.27528548124265,37.47639959078316,66.75399999995716
312823.0987,34.897005763561864,30.671146950324847,46.31274712001139,37.11963633400467,66.75499999994645
312823.0997,36.262699988906505,29.52868256335135,44.70408691155377,35.66239929701713,66.75599999999395
312823.1007,36.367847540634905,27.390731989580352,41.52406976249666,33.141637397191886,66.75699999998324
312823.1017,35.23424103369957,24.342248379989307,36.89366608154409,29.62307096628657,66.75799999997253
312823.1027,32.91818339842581,20.49266829589275,30.975291106895245,25.198502284956934,66.75899999996182
312823.1037,29.50929447740287,15.972043902760662,23.967509020479383,19.98296883888126,66.7599999999511
312823.1047,25.12892997151606,10.92715965796638,16.09935982642092,14.111811766898954,66.7609999999986
312823.1057,19.928121917099418,5.517677005882876,7.624385544165075,7.737656329934487,66.76199999998789
312823.1067,14.084898823659774,-0.087712776485953,-1.1856372507745687,1.0272388275579012,66.76299999997718
312823.1077,7.800819700422599,-5.715191970706107,-10.047298398803502,-5.842025753819508,66.76399999996647
312823.1087,1.296565062165632,-11.18986022074198,-18.672545443451714,-12.68585296734352,66.76499999995576
312823.1097,-5.193528745494616,-16.339995382905553,-26.776105907896778,-19.317373952747708,66.76599999994505
312823.1107,-11.428030537939126,-21.001574164563817,-34.08333344694423,-25.55194768450733,66.76699999999255
312823.1117,-17.166009074348526,-25.023039463141487,-40.3383970503645,-31.21248071962605,66.76799999998184
312823.1127,-22.175484793524635,-28.270230853415974,-45.3126422052198,-36.135148658398855,66.76899999997113
312823.1137,-26.24244351071713,-30.631318934483,-48.81285798123364,-40.1753231118858,66.76999999996042
312823.1147,-29.18000940501508,-32.02151357480336,-50.68909739897387,-43.213424830722836,66.77099999994971
312823.1157,-30.837290322594804,-32.38726061694464,-50.84163281695505,-45.16035903661634,66.7719999999972
312823.1167,-31.10735856762384,-31.709610091556677,-49.226594243182205,-45.96215250755015,66.7729999999865
312823.1177,-29.93382297965766,-30.006437834385554,-45.85984417430458,-45.6034104453497,66.77399999997579
312823.1187,-27.315487268378657,-27.3332348563332,-40.81869153736207,-44.10924787956567,66.77499999996508
312823.1197,-23.308674875792644,-23.78224457718716,-34.24113882576819,-41.54542461077788,66.77599999995437
312823.1207,-18.026927099371914,-19.479823174919677,-26.322485360373374,-38.01651972175306,66.77700000000186
312823.1217,-11.637939723924873,-14.58201560800214,-17.30926649780774,-33.66211311414883,66.77799999999115
312823.1227,-4.3577815246166365,-9.268469493905094,-7.490681089911053,-28.651086142117634,66.77899999998044
312823.1237,3.557378921886994,-3.7349394383245462,2.812166905362166,-23.174298223143524,66.77999999996973
312823.1247,11.821639109425309,1.8152465032943716,13.258727158435924,-17.43602782292601,66.78099999995902
312823.1257,20.131274911732014,7.180290290871329,23.50254523440566,-11.644671786513214,66.78199999994831
312823.1267,28.17754398497965,12.16906568047493,33.20518068097867,-6.00326608493024,66.78299999999581
312823.1277,35.65966352722563,16.60974267305918,42.049751532609385,-0.7004163183711712,66.7839999999851
312823.1287,42.297237399923205,20.357358177878567,49.753367943835414,4.097795616405798,66.78499999997439
312823.1297,47.84145326001625,23.299858608483113,56.07778358652242,8.254430445655352,66.78599999996368
312823.1307,52.08446592377522,25.362241123414627,60.837708517695056,11.666446854969772,66.78699999995297
312823.1317,54.866520331875584,26.508552308861105,63.90638255658351,14.267344901931935,66.78800000000047
312823.1327,56.08053424515188,26.741655627457984,65.21819146081555,16.027609563164862,66.78899999998976
312823.1337,55.674042706918236,26.100839303082314,64.76830466401898,16.9530323971955,66.78999999997905
312823.1347,53.648587740008104,24.657491016962616,62.609507271410756,17.081146188746555,66.79099999996834
312823.1357,50.056802382105076,22.509201787848497,58.84657497047438,16.47614159469849,66.79199999995762
312823.1367,44.997574399878864,19.772767220861276,53.62868473655393,15.222734724739698,66.79299999994691
312823.1377,38.60977123474983,16.576621105769636,47.140455800250635,13.419512009199643,66.79399999999441
312823.1387,31.065057233981367,13.05325875528289,39.59226719825441,11.172289394776108,66.7949999999837
312823.1397,22.560334842412434,9.33218407621609,31.210497648393517,8.587986992341465,66.79599999997299
312823.1407,13.310295663537868,5.5338478090699805,22.228282358052635,5.769442192843661,66.79699999996228
312823.1417,3.5404819823671567,1.7649411128879744,12.877285943770675,2.8114721791797037,66.79799999995157
312823.1427,-6.518855067123208,-1.884721630659004,3.3808609070519497,-0.2016381338933875,66.79899999999907
312823.1437,-16.637945010536818,-5.343642313964124,-6.051190136495536,-3.1971913663295726,66.79999999998836
312823.1447,-26.591711906028078,-8.558459764400634,-15.22618867539572,-6.113785558994386,66.80099999997765
312823.1457,-36.163109467331815,-11.49234660411709,-23.970582116652007,-8.899907974116609,66.80199999996694
312823.1467,-45.14576990552041,-14.12229043740629,-32.130594361622535,-11.511743914898595,66.80299999995623
312823.1477,-53.34622031042046,-16.435647899545557,-39.57184426357113,-13.910589067523176,66.80399999994552
312823.1487,-60.585941679012734,-18.426401357621586,-46.17830919839717,-16.060272075368722,66.80499999999302
312823.1497,-66.70352544559348,-20.091547417774212,-51.85102548758679,-17.92497024952819,66.8059999999823
312823.1507,-71.55712361427456,-21.428005054431065,-56.50688886237333,-19.46773867780115,66.8069999999716
312823.1517,-75.02729858430237,-22.43035411295809,-60.07785127948302,-20.6499783633634,66.80799999996088
312823.1527,-77.02026821946576,-23.089610414869593,-62.51071358451982,-21.43195226251161,66.80899999995017
312823.1537,-77.47142376516624,-23.393122466839078,-63.76759796180633,-21.77433112986934,66.80999999999767
312823.1547,-76.34888703018973,-23.325549041888546,-63.827062675091966,-21.64062679125959,66.81099999998696
312823.1557,-73.65678257080145,-22.8707591375612,-62.68570754686437,-21.000261433941194,66.81199999997625
312823.1567,-69.4378423098067,-22.014397567077665,-60.36002427046893,-19.831938818352988,66.81299999996554
312823.1577,-63.77494279200648,-20.746790205930996,-56.888181168375226,-18.12693548469722,66.81399999995483
312823.1587,-56.79120366282588,-19.06582923171667,-52.33140440176757,-15.891922139022531,66.81500000000233
312823.1597,-48.648349765788645,-16.97948349054641,-46.774630033196395,-13.150958597951856,66.81599999999162
312823.1607,-39.54315345699206,-14.507621445502359,-40.32615269845547,-9.946376997845531,66.81699999998091
312823.1617,-29.701918861048764,-11.682909275077677,-33.11608184116916,-6.3383706442104355,66.8179999999702
312823.1627,-19.37313279620398,-8.550646554878377,-25.293526843076968,-2.4032298993210923,66.81899999995949
312823.1637,-8.818572597195788,-5.167516049095327,-17.02255661876565,1.7697003552177737,66.81999999994878
312823.1647,1.6966871469691105,-1.5993405130015155,-8.477104492108861,6.082138179768023,66.82099999999627
312823.1657,11.914804280698544,2.0819540933222065,0.16489763115114567,10.431741713200283,66.82199999998556
312823.1667,21.595590148379447,5.801884092062764,8.727782603507578,14.71734771008145,66.82299999997485
312823.1677,30.526148311098208,9.487121893702788,17.044380210864666,18.844127714876773,66.82399999996414
312823.1687,38.529085005857866,13.069018155099965,24.961774102410438,22.72821538609879,66.82499999995343
312823.1697,45.468729360824454,16.4865908854868,32.34616653376412,26.30039960965138,66.82600000000093
312823.1707,51.25493573827883,19.68869512875081,39.086501904777236,29.50855979474575,66.82699999999022
312823.1717,55.844214887422574,22.63517290694402,45.09660292937631,32.318634852414924,66.82799999997951
312823.1727,59.238140441775144,25.296891503571192,50.3157016375496,34.71405513437525,66.8289999999688
312823.1737,61.47918562752496,27.654697819584097,54.707389143936254,36.69371395642419,66.82999999995809
312823.1747,62.64434367981525,29.697435081928003,58.25714952340813,38.26869795752408,66.83099999994738
312823.1757,62.837056757717484,31.419273200234173,60.9687702658344,39.45811935088867,66.83199999999488
312823.1767,62.17810664923106,32.816684328355926,62.86002182323182,40.284485570003156,66.83299999998417
312823.1777,60.79619444599864,33.885441821588756,63.95806132378097,40.769093183861465,66.83399999997346
312823.1787,58.818948603736104,34.618028196835226,64.29503373968716,40.92793735956098,66.83499999996275
312823.1797,56.36504984258082,35.001804206686444,63.90431508031115,40.76858416936517,66.83599999995204
312823.1807,53.53805134284313,35.01821916285557,62.817768608521625,40.28836395553163,66.83699999999953
312823.1817,50.422313209391,34.64323857473284,61.06427326692423,39.47411752919686,66.83799999998882
312823.1827,47.08127533604445,33.84903876834153,58.66964406019704,38.30357473194721,66.83899999997811
312823.1837,43.55808003634322,32.60688164345821,55.65791068912255,36.74828110750584,66.8399999999674
312823.1847,39.878344285905605,30.890949621544653,52.053768593846854,34.777828783771184,66.8409999999567
312823.1857,36.05469028110912,28.68280461066144,47.88588125565402,32.365007708283855,66.84199999994598
312823.1867,32.092489589862225,25.976047574413645,43.19060827566851,29.49138704338313,66.84299999999348
312823.1877,27.996174355129497,22.780706562860804,38.015671711796145,26.152774737702433,66.84399999998277
312823.1887,23.775427970617628,19.126876799341662,32.42326068907209,22.363992867769547,66.84499999997206
312823.1897,19.450590921728484,15.067178361087912,26.49211381555751,18.162449281620372,66.84599999996135
312823.1907,15.056702644482582,10.677682432951512,20.318207633125663,13.610079288213477,66.84699999995064
312823.1917,10.645739113870023,6.057079080814309,14.013809365384224,8.793366689096368,66.84799999999814
312823.1927,6.28678524684707,1.3240073617475532,7.70481139932496,3.8213192740583426,66.84899999998743
312823.1937,2.0640841508814796,-3.387370937579442,1.526437860360422,-1.1785450833126487,66.84999999997672
312823.1947,-1.9268873360764918,-7.93331429480124,-4.382416777281954,-6.065966068489162,66.850999999966
312823.1957,-5.584974939760703,-12.167580081074671,-9.885807944649798,-10.695065293161267,66.8519999999553
312823.1967,-8.810033731629018,-15.949146545248722,-14.857797609775977,-14.922302291619701,66.85299999994459
312823.1977,-11.5101323304194,-19.150015676237025,-19.189359219822798,-18.614654307781525,66.85399999999208
312823.1987,-13.608607716043938,-21.662512258027654,-22.794532578157,-21.657382507468412,66.85499999998137
312823.1997,-15.050312825998908,-23.40552280947146,-25.615277336578597,-23.960773881650667,66.85599999997066
312823.2007,-15.806469616505025,-24.329194992085515,-27.624574654006725,-25.46532862128122,66.85699999995995
312823.2017,-15.877665369310135,-24.41773690273571,-28.827472367832822,-26.1449898741795,66.85799999994924
312823.2027,-15.294697686168915,-23.690105977838286,-29.259946341060708,-26.008174969166188,66.85899999999674
312823.2037,-14.11716789868888,-22.198545632255037,-28.98564285863519,-25.096549638777606,66.85999999998603
312823.2047,-12.429925203665666,-20.025099177686553,-28.090755801991182,-23.48167290789858,66.86099999997532
312823.2057,-10.337655735155518,-17.276389688919235,-26.677459738552773,-21.25981331257905,66.86199999996461
312823.2067,-7.958074169166044,-14.077087164369589,-24.856449852642555,-18.545381472683296,66.8629999999539
312823.2077,-5.414295311130955,-10.5625789154494,-22.739219160178173,-15.463527042244696,66.8640000000014
312823.2087,-2.8270286535743456,-6.871407565183107,-20.43072480737221,-12.14250093537198,66.86499999999069
312823.2097,-0.3072445518833597,-3.138039627029405,-18.02305613922397,-8.706382457808438,66.86599999997998
312823.2107,2.050093384756018,0.5135226735774496,-15.590621150276421,-5.268716641756711,66.86699999996927
312823.2117,4.17074301436285,3.9748673716423744,-13.187223925697543,-1.927505706705723,66.86799999995856
312823.2127,6.004009707094718,7.156745150968005,-10.84522743045369,1.2381394996573811,66.86899999994785
312823.2137,7.523526871506014,9.990945679740694,-8.576800531428336,4.169543343547961,66.86999999999534
312823.2147,8.726023707626213,12.430491269360008,-6.3770541494428485,6.828228356101448,66.87099999998463
312823.2157,9.628294937295319,14.448309200805568,-4.228697501734559,9.19408108472472,66.87199999997392
312823.2167,10.262744430862336,16.034670356896118,-2.1077081189951956,11.262241069916861,66.87299999996321
312823.2177,10.671992376656531,17.193774965145483,0.010578272171834692,13.039133676924257,66.8739999999525
312823.2187,10.903103371311143,17.939918276280256,2.145581656707729,14.53812339454212,66.875
312823.2197,11.002005032158273,18.293676038220998,4.306388471162034,15.775271285244079,66.87599999998929
312823.2207,11.008623456902267,18.27851233623929,6.487964618864439,16.765639190484297,66.87699999997858
312823.2217,10.953168539017321,17.918135792642452,8.66904051598113,17.520499436238524,66.87799999996787
312823.2227,10.85386908273589,17.234823101669217,10.811867681975965,18.045691638775565,66.87899999995716
312823.2237,10.716298889238862,16.248803143905647,12.863858399291482,18.341230394809273,66.87999999994645
312823.2247,10.534266848628137,14.978663876979034,14.760932655455395,18.402123602487475,66.88099999999395
312823.2257,10.29208356429314,13.442621546688674,16.432228179197363,18.220225728492874,66.88199999998324
312823.2267,9.967880110139978,11.660390159312279,17.805696166671314,17.7868372464176,66.88299999997253
312823.2277,9.53755452338786,9.655318949592788,18.814020027767217,17.09568201417118,66.88399999996182
312823.2287,8.978868018826251,7.456433802956621,19.400265214433304,16.1458562861073,66.8849999999511
312823.2297,8.27521034326741,5.100028289022402,19.522697515951617,14.944349842172075,66.8859999999986
312823.2307,7.4186016448485805,2.630499913562879,19.158292038242166,13.50779023987807,66.88699999998789
312823.2317,6.411591090768084,0.10021204929773951,18.30458698432177,11.863149875085131,66.88799999997718
312823.2327,5.267840116749698,-2.4317271662661,16.979702338269576,10.047272911206464,66.88899999996647
312823.2337,4.011327068008417,-4.901752486996928,15.22052734410311,8.105212815829825,66.88999999995576
312823.2347,2.674264456242296,-7.245052868993146,13.079264238272756,6.087507165749195,66.89099999994505
312823.2357,1.2939639766738957,-9.399449226898543,10.618680993678941,4.046640225942593,66.89199999999255
312823.2367,-0.09099719863571062,-11.309591433621103,7.906556530057355,2.0330424463453904,66.89299999998184
312823.2377,-1.4448748678324634,-12.93107152456711,5.009884898016323,0.09103884939655643,66.89399999997113
312823.2387,-2.7386529061898117,-14.234034851643079,1.989431876859348,-1.7448216893298918,66.89499999996042
312823.2397,-3.953282938605741,-15.205898751613514,-1.1047948219211092,-3.452649685577372,66.89599999994971
312823.2407,-5.081881131955307,-15.85285723330184,-4.236689298104185,-5.024973118996652,66.8969999999972
312823.2417,-6.130601550643174,-16.199954156056055,-7.385469732449964,-6.469138535533302,66.8979999999865
312823.2427,-7.11804386163613,-16.28963666519164,-10.545216077681133,-7.806255997624235,66.89899999997579
312823.2437,-8.073208896921251,-16.17884288665051,-13.722551114049073,-9.068734902312347,66.89999999996508
312823.2447,-9.032172727020551,-15.93481920486339,-16.932684041871827,-10.296602806328737,66.90099999995437
312823.2457,-10.033792236126528,-15.629988879813702,-20.194208420032457,-11.532928687817925,66.90200000000186
312823.2467,-11.11486784162405,-15.336292590756498,-23.523183120800116,-12.818772193041633,66.90299999999115
312823.2477,-12.30525995466284,-15.119482545453545,-26.927112142723175,-14.188140769346795,66.90399999998044
312823.2487,-13.623477109309926,-15.033868444687814,-30.399467338797447,-15.66345041380245,66.90499999996973
312823.2497,-15.07322238445466,-15.117983466376677,-33.91536370734796,-17.251950857708426,66.90599999995902
312823.2507,-16.64130304756839,-15.391563674636094,-37.42890220338473,-18.94349496126446,66.90699999994831
312823.2517,-18.29718357957846,-15.854121361528051,-40.87254825915884,-20.709912115487143,66.90799999999581
312823.2527,-19.99430610459852,-16.485252046702705,-44.158728681456225,-22.506097684675733,66.9089999999851
312823.2537,-21.673129728708666,-17.24665924149202,-47.18362253950478,-24.272768996074127,66.90999999997439
312823.2547,-23.265668193856687,-18.085725230482677,-49.83291255789171,-25.940678643131523,66.91099999996368
312823.2557,-24.701150567709877,-18.94031478708724,-51.98907227471378,-27.435933473897776,66.91199999995297
312823.2567,-25.91230792701274,-19.744385396739045,-53.539609192248356,-28.685956624649307,66.91300000000047
312823.2577,-26.841712640637333,-20.433903101762162,-54.38558040766288,-29.625561453144307,66.91399999998976
312823.2587,-27.447574135142723,-20.95253473969993,-54.449655052126936,-30.202587312529037,66.91499999997905
312823.2597,-27.70842902454304,-21.25660798017155,-53.68302176806786,-30.382580105214632,66.91599999996834
312823.2607,-27.626251824722043,-21.318898358533332,-52.07052762782284,-30.152082751900576,66.91699999995762
312823.2617,-27.22764747027197,-21.13091112442474,-49.63357943654241,-29.52022458691365,66.91799999994691
312823.2627,-26.562956225434423,-20.703464917047413,-46.43052599383787,-28.51845263441052,66.91899999999441
312823.2637,-25.70328960299448,-20.06554085913263,-42.554453245785034,-27.198417141050463,66.9199999999837
312823.2647,-24.73570490216164,-19.26151978022101,-38.12854355782761,-25.62819249155562,66.92099999997299
312823.2657,-23.756898033109945,-18.34707686933343,-33.299355288864405,-23.887166585745636,66.92199999996228
312823.2667,-22.86593299165556,-17.384123292663343,-28.22855060552101,-22.060052379275035,66.92299999995157
312823.2677,-22.15661835867825,-16.435266952974974,-23.08372246241107,-20.23055307666891,66.92399999999907
312823.2687,-21.710177604076396,-15.558302043580243,-18.029035059214703,-18.475240051983274,66.92499999998836
312823.2697,-21.588837136551998,-14.801226185015794,-13.216390812037538,-16.858177460865956,66.92599999997765
312823.2707,-21.830875971673045,-14.198226236237566,-8.777772114645495,-15.426752302957368,66.92699999996694
312823.2717,-22.447551072529794,-13.766975369925014,-4.819285149643052,-14.209050844349079,66.92799999995623
312823.2727,-23.422145081967084,-13.507454623960573,-1.4172682794738167,-13.212973376309826,66.92899999994552
312823.2737,-24.71119411582649,-13.402364732602797,1.3833643384174898,-12.427113806912642,66.92999999999302
312823.2747,-26.24776036889159,-13.41904308680066,3.5685734061345924,-11.823264650633465,66.9309999999823
312823.2757,-27.946435661949494,-13.512660872460302,5.152657947989624,-11.360257674685721,66.9319999999716
312823.2767,-29.709614452276256,-13.630360257846318,6.174110209812199,-10.988730269939367,66.93299999996088
312823.2777,-31.43447190820259,-13.715911870051892,6.690357147356781,-10.656329026293085,66.93399999995017
312823.2787,-33.0200337064093,-13.71443603061239,6.771946669629009,-10.312832369184452,66.93499999999767
312823.2797,-34.373733282561865,-13.576740314796943,6.496741960460089,-9.914695970820537,66.93599999998696
312823.2807,-35.41691775191226,-13.262879372448005,5.944636108849905,-9.42859540840072,66.93699999997625
312823.2817,-36.088878561617776,-12.744634605024814,5.193199231857217,-8.833652783547569,66.93799999996554
312823.2827,-36.349135345292524,-12.006731444270134,4.314533419450054,-8.12217621545024,66.93899999995483
312823.2837,-36.177876066696534,-11.046748032593078,3.373452834319776,-7.298898781405399,66.94000000000233
312823.2847,-35.574635976269754,-9.873806946892902,2.426944667148887,-6.3788605846711235,66.94099999999162
312823.2857,-34.5554644710108,-8.506267020825227,1.5247188752312657,-5.384218240190643,66.94199999998091
312823.2867,-33.14896640670092,-6.968732433170764,0.7105363776177567,-4.3403759223735054,66.9429999999702
312823.2877,-31.39169958325453,-5.288760822298219,0.023928846523850814,-3.271900074437666,66.94399999995949
312823.2887,-29.323454189129578,-3.493674735876546,-0.4981040673275063,-2.1986990470018037,66.94499999994878
312823.2897,-26.9829293462438,-1.6078590762707183,-0.819810227730125,-1.1329173847602827,66.94599999999627
312823.2907,-24.404258487529727,0.3491362037241617,-0.9061315643885154,-0.07691544916164866,66.94699999998556
312823.2917,-21.614726387642275,2.363467268751333,-0.7230890827096034,0.9774133656001712,66.94799999997485
312823.2927,-18.63387806641605,4.4267434191652155,-0.23917654015731887,2.0478812767275696,66.94899999996414
312823.2937,-15.474058632872705,6.534686268062666,0.5723147657701588,3.159852125798052,66.94999999995343
312823.2947,-12.142260342000247,8.684868840550795,1.7302591807517989,4.3429004256240535,66.95100000000093
312823.2957,-8.643005644381853,10.873816844441068,3.2422860744905475,5.626623454795381,66.95199999999022
312823.2967,-4.981878083541556,13.093839442913785,5.1014166141805095,7.036046991410891,66.95299999997951
312823.2977,-1.169238573369236,15.330003061177733,7.2832059293644775,8.5871214813053,66.9539999999688
312823.2987,2.776359532110358,17.55766355909181,9.743834158290914,10.282811101153376,66.95499999995809
312823.2997,6.825514670172632,19.740928527144593,12.419524277112634,12.110232207260264,66.95599999994738
312823.3007,10.936460584504907,21.832336223086827,15.22755354485008,14.039204150959511,66.95699999999488
312823.3017,15.054949457327018,23.77391880887682,18.068979264277164,16.02244327705509,66.95799999998417
312823.3027,19.115646125138113,25.499676674617024,20.83303255898587,17.997472902786473,66.95899999997346
312823.3037,23.044982060134622,26.939341756906202,23.40296257287813,19.89015365085844,66.95999999996275
312823.3047,26.765257821600105,28.023165895328958,25.662955219510398,21.61957625454817,66.96099999995204
312823.3057,30.199641972500682,28.687349955880084,27.505621676460333,23.10391892883579,66.96199999999953
312823.3067,33.277607563083365,28.879643269556382,28.839465962697425,24.266767579116493,66.96299999998882
312823.3077,35.94028538486034,28.564600254245146,29.595707899474423,25.0433399990736,66.96399999997811
312823.3087,38.145202995831,27.727987096896346,29.733862294077223,25.386050785748573,66.9649999999674
312823.3097,39.869921571618235,26.37988653305015,29.245556540571187,25.268902862925632,66.9659999999567
312823.3107,41.11417521692061,24.556148724421902,28.156200727025865,24.690289941074205,66.96699999994598
312823.3117,41.90025082783148,22.317972235284223,26.52429552136805,23.673932846924306,66.96799999999348
312823.3127,42.2715082134659,19.749558785007007,24.43835837344667,22.26783840539052,66.96899999998277
312823.3137,42.28911443331878,16.95395403664538,22.01165018408092,20.541346771427026,66.96999999997206
312823.3147,42.02723635399613,14.047348409088107,19.37507396823645,18.58050497285891,66.97099999996135
312823.3157,41.5670847831047,11.152251542240494,16.668776524082283,16.482154614691844,66.97199999995064
312823.3167,40.99031764399902,8.390058371285145,14.03309869110005,14.34723596551233,66.97299999999814
312823.3177,40.37237730069287,5.873583826765027,11.599578511212728,12.27387820996636,66.97399999998743
312823.3187,39.77635153820901,3.7001512620200177,9.482708734968451,10.350860221608029,66.97499999997672
312823.3197,39.24790713530236,1.9457758996594714,7.77308561779193,8.651986605704495,66.975999999966
312823.3207,38.811752957787355,0.6608928444259825,6.532465565820668,7.231834008801423,66.9769999999553
312823.3217,38.46995447650733,-0.13205201343154116,5.791080874367713,6.123191622418703,66.97799999994459
312823.3227,38.20225609505216,-0.4389884472076411,5.547370691678135,5.336360185377443,66.97899999999208
312823.3237,37.968387081453216,-0.2925972016931133,5.770076312976263,4.860301054075089,66.97999999998137
312823.3247,37.71214809267881,0.2511461292652662,6.402449884967507,4.665457671261022,66.98099999997066
312823.3257,37.366914952139254,1.117929161317448,7.368150756380686,4.707922180598325,66.98199999995995
312823.3267,36.86206943161237,2.221115366873363,8.578269775301063,4.934504150294994,66.98299999994924
312823.3277,36.129785080238996,3.4682884275994756,9.938840626653937,5.288187150727457,66.98399999999674
312823.3287,35.11156713824013,4.7677784870050575,11.358175641769058,5.713438639526463,66.98499999998603
312823.3297,33.76397179120701,6.034643829162304,12.753402603417017,6.160870603376532,66.98599999997532
312823.3307,32.06300876298504,7.195651952594582,14.055674426182993,6.59082893981198,66.98699999996461
312823.3317,30.006854855860933,8.192913981362738,15.213665482462398,6.975610164116319,66.9879999999539
312823.3327,27.61666265026704,8.985964600591279,16.195142737943307,7.300152349579547,66.9890000000014
312823.3337,24.93542321789296,9.552232404239074,16.98658977430394,7.561208252462564,66.98999999999069
312823.3347,22.025017787923083,9.885997684433104,17.59104890284413,7.765166158936917,66.99099999997998
312823.3357,18.961754204176845,9.99607153703469,18.02451303174612,7.924822362137044,66.99199999996927
312823.3367,15.830814661233319,9.902538692419798,18.311329007510334,8.055514551443247,66.99299999995856
312823.3377,12.720129583384107,9.632976684328066,18.479155731173137,8.171087333940582,66.99399999994785
312823.3387,9.714230784766098,9.218589793490803,18.55404619249611,8.280173553180301,66.99499999999534
312823.3397,6.8886223482280045,8.690676142594004,18.55619091670649,8.383236956406202,66.99599999998463
312823.3407,4.30514232086824,8.077783532734435,18.496775077278627,8.470737120708346,66.99699999997392
312823.3417,2.0086796256788206,7.403811560735833,18.376271832957666,8.522655107804987,66.99799999996321
312823.3427,0.025469988083132077,6.6871952116547835,18.18433374522412,8.50947061742894,66.9989999999525
312823.3437,-1.636963379546877,5.9411718089632375,17.901268828508226,8.394523540178566,67.0
312823.3447,-2.9883181466182633,5.175003225852894,17.50091560739475,8.137540888410006,67.00099999998929
312823.3457,-4.052709304036134,4.395912412716767,16.954579801921135,7.698979630106413,67.00199999997858
312823.3467,-4.864909404427066,3.6114094644088777,16.235579109787974,7.044740338100452,67.00299999996787
312823.3477,-5.466065499364324,2.8316364089211628,15.32387358229024,6.150755685969798,67.00399999995716
312823.3487,-5.899356406669732,2.0713564302887644,14.210244169237784,5.006957101591479,67.00499999994645
312823.3497,-6.206036161727608,1.3512526731030334,12.899522648151187,3.6201727657287304,67.00599999999395
312823.3507,-6.4222460750194434,0.6982799782598439,11.412468376598387,2.015606022181824,67.00699999998324
312823.3517,-6.576876198407852,0.14492170292982667,9.786022044587392,0.2366759816300125,67.00799999997253
312823.3527,-6.690628460087634,-0.2726681801846464,8.071830581540402,-1.6568411825062297,67.00899999996182
312823.3537,-6.776292156600849,-0.5175236376228557,6.333114396294667,-3.5922662795403633,67.0099999999511
312823.3547,-6.840102989369931,-0.5554861240738294,4.640120655253418,-5.488804475784933,67.0109999999986
312823.3557,-6.883934173001762,-0.35924154313067025,3.064557140387369,-7.263268890166134,67.01199999998789
312823.3567,-6.907975268440582,0.08763987989113352,1.6735152062036638,-8.836244536299256,67.01299999997718
312823.3577,-6.913501116353944,0.7871050909929713,0.5234558130617082,-10.138144223296832,67.01399999996647
312823.3587,-6.905325244898791,1.7238898777400038,-0.3451574443418258,-11.114607282250489,67.01499999995576
312823.3597,-6.8935703680331795,2.8640291779601497,-0.912041598045287,-11.730743564523037,67.01599999994505
312823.3607,-6.894469218366419,4.154874085166676,-1.1796575602277433,-11.973824595703944,67.01699999999255
312823.3617,-6.930023663390876,5.526752021346189,-1.173861565555505,-11.854161989653951,67.01799999998184
312823.3627,-7.026486896867886,6.896255856040393,-0.9425280801182383,-11.40407739921244,67.01899999997113
312823.3637,-7.211778097948721,8.170992108968465,-0.552216568507527,-10.675043029755056,67.01999999996042
312823.3647,-7.512075927063583,9.255472666511649,-0.08313962229065075,-9.733240607372148,67.02099999994971
312823.3657,-7.947951742635971,10.057712866978642,0.37714672162860324,-8.653933685461952,67.0219999999972
312823.3667,-8.530482686871563,10.496013515018413,0.7407839293234871,-7.5151592900147905,67.0229999999865
312823.3677,-9.257819370698174,10.505364301313078,0.9267608774876789,-6.391309459794968,67.02399999997579
312823.3687,-10.112667703565197,10.042916063391793,0.8675322674512382,-5.347184884268303,67.02499999996508
312823.3697,-11.061079299882149,9.092029566630519,0.5145068127020545,-4.433060181442979,67.02599999995437
312823.3707,-12.052834706354071,7.664514582999316,-0.15809535326922847,-3.681207094398007,67.02700000000186
312823.3717,-13.023557921318277,5.800816261944881,-1.1513707232531314,-3.1041865002838684,67.02799999999115
312823.3727,-13.898532597926117,3.5680738388568516,-2.442020325841936,-2.695055100660961,67.02899999998044
312823.3737,-14.59801579085811,1.0561548775750471,-3.984773888797235,-2.4294533238634117,67.02999999996973
312823.3747,-15.043681064479875,-1.6280593560714698,-5.716729284564524,-2.2693640616990898,67.03099999995902
312823.3757,-15.165685650761386,-4.3677106594160255,-7.563208048396814,-2.1681739752885805,67.03199999994831
312823.3767,-14.90976044050808,-7.043779951775691,-9.444585443258418,-2.076545116661677,67.03299999999581
312823.3777,-14.243677702055876,-9.543069391312292,-11.283460694082482,-1.948526284429481,67.0339999999851
312823.3787,-13.162465714429333,-11.765719299899056,-13.011498629291792,-1.7473083894914134,67.03499999997439
312823.3797,-11.691812837947506,-13.631664967195492,-14.575301642056669,-1.450058720283632,67.03599999996368
312823.3807,-9.889231286091585,-15.085526120814022,-15.940758433111041,-1.0513527231497564,67.03699999995297
312823.3817,-7.842723190928193,-16.099553363342253,-17.095455633269868,-0.5648511282583988,67.03800000000047
312823.3827,-5.666894284853479,-16.674419617029088,-18.048917436746134,-0.023033054064147816,67.03899999998976
312823.3837,-3.4966763307977384,-16.837826087341625,-18.830640378473305,0.5250229559948,67.03999999997905
312823.3847,-1.4790294024307262,-16.64107536566494,-19.48609671753805,1.017634999351971,67.04099999996834
312823.3857,0.23681955789016368,-16.15393283109027,-20.071071423753008,1.3859483204122742,67.04199999995762
312823.3867,1.5099017576305545,-15.458236648192528,-20.64485669293228,1.5603207970056543,67.04299999994691
312823.3877,2.2180064474834253,-14.640814293963029,-21.262939402207707,1.4770907510624398,67.04399999999441
312823.3887,2.267342463782877,-13.786311420365445,-21.96987048997051,1.0851134633931507,67.0449999999837
312823.3897,1.6005910303009456,-12.970533278522218,-22.792995784312104,0.35146780217829776,67.04599999997299
312823.3907,0.20268706150405189,-12.25484107993048,-23.737656016515732,-0.7341960441858753,67.04699999996228
312823.3917,-1.8961696415666098,-11.682041451975962,-24.78433611275582,-2.157079093990734,67.04799999995157
312823.3927,-4.620564534680298,-11.274066586602794,-25.888071986990393,-3.8766829117094432,67.04899999999907
312823.3937,-7.853037583570496,-11.031578962423938,-26.980222663752244,-5.828364601476929,67.04999999998836
312823.3947,-11.440189341401247,-10.935462722645457,-27.97250495337628,-7.926891967680244,67.05099999997765
312823.3957,-15.201315031609774,-10.949999484633794,-28.76298630055984,-10.071719185481522,67.05199999996694
312823.3967,-18.938963775858372,-11.027384166995386,-29.24355716220368,-12.153555020834684,67.05299999995623
312823.3977,-22.450674710400612,-11.113128699858569,-29.308273084539497,-14.061686403738433,67.05399999994552
312823.3987,-25.541056903484424,-11.151837217506259,-28.8618802315736,-15.691459485290139,67.05499999999302
312823.3997,-28.03336237551476,-11.092820362876903,-27.82782301960961,-16.951313146080107,67.0559999999823
312823.4007,-29.779751955920656,-10.895048983629808,-26.15507955526376,-17.76880625593702,67.0569999999716
312823.4017,-30.669567134602342,-10.531024612635163,-23.82327479099473,-18.09517488401835,67.05799999996088
312823.4027,-30.63508703412423,-9.989257517362775,-20.845672453732796,-17.908089782806336,67.05899999995017
312823.4037,-29.654453257279044,-9.275181378339111,-17.269830346218715,-17.2124449750767,67.05999999999767
312823.4047,-27.75166868715584,-8.410483318827954,-13.175902191137995,-16.039180040046826,67.06099999998696
312823.4057,-24.993799916663733,-7.430974747607352,-8.672764247452895,-14.44230576580157,67.06199999997625
312823.4067,-21.485717756950653,-6.383258535045804,-3.8923185750055262,-12.494449923504208,67.06299999996554
312823.4077,-17.362879161472346,-5.320549512108992,1.0175384818035458,-10.281353853663438,67.06399999995483
312823.4087,-12.782773439337094,-4.298069228371768,5.900705971495263,-7.895821519334005,67.06500000000233
312823.4097,-7.915717153650715,-3.368457201047414,10.60081690688324,-5.4316451286660525,67.06599999999162
312823.4107,-2.9356824944617204,-2.57761867217875,14.96874044178313,-2.978004580233346,67.06699999998091
312823.4117,1.9882141691870507,-1.961366611091406,18.869138629317074,-0.6147658544700699,67.0679999999702
312823.4127,6.699045358824783,-1.5431207143325172,22.185687910622978,1.5910055760630808,67.06899999995949
312823.4137,11.057855321643066,-1.3328089561410537,24.824724177174918,3.5871343938662923,67.06999999994878
312823.4147,14.947689180409323,-1.3269903507440615,26.717232498120335,5.336991409338682,67.07099999999627
312823.4157,18.27583808083663,-1.510094256111176,27.819261525536515,6.818820519071898,67.07199999998556
312823.4167,20.97443075597214,-1.856564394532134,28.110982131263032,8.023964782621915,67.07299999997485
312823.4177,22.999635069719215,-2.333615480250031,27.594716389282404,8.954313336035636,67.07399999996414
312823.4187,24.32982686477655,-2.90426461395726,26.292326802882815,9.619345924525465,67.07499999995343
312823.4197,24.963130558157225,-3.530292347258872,24.242371635570386,10.033163915426153,67.07600000000093
312823.4207,24.914734271447067,-4.174819325941379,21.497400470247552,10.211865846051053,67.07699999999022
312823.4217,24.21433493790247,-4.804249415012886,18.121689905262386,10.171556456079452,67.07799999997951
312823.4227,22.903983629777645,-5.389421342963649,14.189612272684355,9.927179286012155,67.0789999999688
312823.4237,21.036489939339802,-5.905917612154239,9.784703500107774,9.492245836846802,67.07999999995809
312823.4247,18.674420756790184,-6.333589557972313,4.999364787332503,8.879412295235293,67.08099999994738
312823.4257,15.889608284971885,-6.65545856259259,-0.06498791737708977,8.101741603312778,67.08199999999488
312823.4267,12.762978994311236,-6.8562341295838864,-5.297608359466904,7.174396781518822,67.08299999998417
312823.4277,9.38444161693332,-6.9207406300281775,-10.578279273081169,6.116451085602946,67.08399999997346
312823.4287,5.852536879811629,-6.832560077254273,-15.77770261791782,4.952478525144,67.08499999996275
312823.4297,2.2735587682053064,-6.573176164963022,-20.75874510018292,3.7136070616800234,67.08599999995204
312823.4307,-1.2400938396617884,-6.121846993297722,-25.378786895189933,2.4377745875139896,67.08699999999953
312823.4317,-4.572490587879269,-5.456346298295827,-29.49330748779622,1.1690184771673569,67.08799999998882
312823.4327,-7.607710536644761,-4.554604800661037,-32.96070226516558,-0.04425658548822957,67.08899999997811
312823.4337,-10.234265304349343,-3.397166093693219,-35.64817131273449,-1.1519629614294697,67.0899999999674
312823.4347,-12.35019131109554,-1.970258090270236,-37.438373804316676,-2.105774903983711,67.0909999999567
312823.4357,-13.868484503882344,-0.2691841166536427,-38.23641349753174,-2.863036303317095,67.09199999994598
312823.4367,-14.722465347414984,1.6983314952841175,-37.976627595994174,-3.390756102828432,67.09299999999348
312823.4377,-14.870614870072965,3.9092414136690063,-36.62860396722721,-3.6692760799132906,67.09399999998277
312823.4387,-14.300421010460816,6.323106649860805,-34.201857451933506,-3.6951986317597525,67.09499999997206
312823.4397,-13.030820610123099,8.881200469100419,-30.748656715983582,-3.4832092577375606,67.09599999996135
312823.4407,-11.112913378931404,11.50703492703587,-26.36460535184498,-3.066516060483375,67.09699999995064
312823.4417,-8.62875250861042,14.108439825400897,-21.186736166928558,-2.495748970580474,67.09799999999814
312823.4427,-5.688170768415949,16.581183476115726,-15.389062858929513,-1.8363031455310475,67.09899999998743
312823.4437,-2.4237664119899787,18.813977417489756,-9.175732443655678,-1.1642602752985998,67.09999999997672
312823.4447,1.0156658872474997,20.694567477420375,-2.772117070084702,-0.5611634712995542,67.100999999966
312823.4457,4.472833376698826,22.116495280650756,3.5856425494152204,-0.10804162163807751,67.1019999999553
312823.4467,7.790241134653973,22.98602961652672,9.661994011787739,0.12083488759818921,67.10299999994459
312823.4477,10.818493172533731,23.22872516178375,15.233497007724166,0.06394256909727469,67.10399999999208
312823.4487,13.423997593695665,22.79507206408008,20.099754175286826,-0.3222813642218509,67.10499999998137
312823.4497,15.495519414132856,21.664754491676135,24.093024598748663,-1.0594639887355466,67.10599999997066
312823.4507,16.949119308138066,19.8491354722102,27.08589022209927,-2.144925883904399,67.10699999995995
312823.4517,17.731152694743173,17.391720927632836,28.99649143815058,-3.5511458008448233,67.10799999994924
312823.4527,17.81916877285934,14.366515990875307,29.79103277902216,-5.227134651223198,67.10899999999674
312823.4537,17.220728051748857,10.8743572663181,29.483466870673276,-7.1016267135586855,67.10999999998603
312823.4547,15.970332946822715,7.03747037556247,28.132476542304754,-9.087836818647517,67.11099999997532
312823.4557,14.12482268475876,2.9926479470140777,25.83607282189522,-11.089394814292694,67.11199999996461
312823.4567,11.757706454906115,-1.116444075793052,22.72429353083087,-13.006965662486268,67.1129999999539
312823.4577,8.952986030473877,-5.147254589208322,18.950609319667663,-14.745004724001747,67.1140000000014
312823.4587,5.799043845490019,-8.966033102807268,14.682711529765166,-16.218088663538918,67.11499999999069
312823.4597,2.3831426369282225,-12.454648184074253,10.093364622603882,-17.35630386731863,67.11599999997998
312823.4607,-1.212998646051171,-15.516054142089994,5.351956008101059,-18.109262496766288,67.11699999996927
312823.4617,-4.916212847535193,-18.0780432762979,0.6172742159474269,-18.44844313365638,67.11799999995856
312823.4627,-8.66329281700255,-20.09507285104197,-3.968096503799571,-18.367706615738133,67.11899999994785
312823.4637,-12.400788169316014,-21.548123932351093,-8.281546277203427,-17.88200380233714,67.11999999999534
312823.4647,-16.08335005268849,-22.44271792993572,-12.222334317223293,-17.024455133979163,67.12099999998463
312823.4657,-19.670936743212895,-22.805370677994798,-15.71173924934182,-15.842126699732466,67.12199999997392
312823.4667,-23.125313320925954,-22.67888913402311,-18.691743327088684,-14.390940536780985,67.12299999996321
312823.4677,-26.4063541883958,-22.11700099446691,-21.12263893025107,-12.730227486700722,67.1239999999525
312823.4687,-29.46868010684752,-21.1788452671591,-22.980009392475807,-10.917452569957552,67.125
312823.4697,-32.25912921397215,-19.923839200047535,-24.25154900263121,-9.003613638568398,67.12599999998929
312823.4707,-34.71547703576831,-18.40737587784953,-24.93414985767408,-7.0297370413083415,67.12699999997858
312823.4717,-36.766691871069526,-16.677703851856457,-25.031602115664864,-5.024776832555629,67.12799999996787
312823.4727,-38.33485159003199,-14.774205966187457,-24.55313951550146,-3.0050782363009563,67.12899999995716
312823.4737,-39.33867154206298,-12.727142660886653,-23.512927455142552,-0.9754060049173837,67.12999999994645
312823.4747,-39.69841829305463,-10.558770669602774,-21.930451874212093,1.0686202508678755,67.13099999999395
312823.4757,-39.34182765441555,-8.285606501192389,-19.831639191248623,3.136983140321633,67.13199999998324
312823.4767,-38.210523524197434,-5.921489298098622,-17.25043456774333,5.241026828330721,67.13299999997253
312823.4777,-36.266358729083834,-3.4810206950092755,-14.230498758016234,7.388997190703517,67.13399999996182
