TimeStamp,ECR,FCR,ECU,FCU,time_index
312797.3437,34.39739927654735,21.722323449327828,12.360454616690411,37.531926564441484,41.0
312797.3447,32.71455397445428,21.382206865550934,12.020754465726656,36.892526492278265,41.00099999998929
312797.3457,30.75871785791009,20.916081949322784,11.560371802601813,36.07942224225821,41.00199999997858
312797.3467,28.54173571876097,20.31676571744748,10.937417351714489,35.09018084361451,41.00299999996787
312797.3477,26.074195480336748,19.579958221389468,10.114274734991476,33.92567453570996,41.00399999995716
312797.3487,23.36798945018775,18.70664498241086,9.061786808787314,32.59271324758524,41.00499999994645
312797.3497,20.438481146100504,17.704813648021865,7.762522481617966,31.105888326253194,41.005999999993946
312797.3507,17.305983411073466,16.590262952711726,6.212808412588195,29.488383867113455,41.006999999983236
312797.3517,13.996359985725617,15.386389800598057,4.423347307428572,27.771634886949872,41.007999999972526
312797.3527,10.540688147973281,14.122959744973187,2.4183981876648883,25.99384674538568,41.008999999961816
312797.3537,6.974049726604669,12.83398449980274,0.23364789282800225,24.197523160893653,41.009999999951106
312797.3547,3.333636734983498,11.55493473831539,-2.086958858196704,22.426266688504516,41.0109999999986
312797.3557,-0.34354762283001694,10.319596153647934,-4.495055601880407,20.72120320686751,41.01199999998789
312797.3567,-4.023052623237717,9.15692304890413,-6.941914591958799,19.117431431362974,41.01299999997718
312797.3577,-7.675051442085588,8.088251572608053,-9.382271213714345,17.64090436891645,41.01399999996647
312797.3587,-11.275790841944765,7.125203129582966,-11.777483389670062,16.306111160511488,41.01499999995576
312797.3597,-14.80815880064848,6.268540610718459,-14.097674946723494,15.114848759261701,41.01599999994505
312797.3607,-18.26121323322283,5.508142830983991,-16.32262810737952,14.056261446306896,41.01699999999255
312797.3617,-21.62864151905321,4.824145959726274,-18.441332463292262,13.108193783750947,41.01799999998184
312797.3627,-24.906256257442195,4.189176838771659,-20.450250986058197,12.23976296240353,41.01899999997113
312797.3637,-28.088762397463423,3.5714847913251018,-22.35051162493726,11.414924163551264,41.01999999996042
312797.3647,-31.16613987288541,2.93867819640789,-24.14436009468707,10.596691392070289,41.02099999994971
312797.3657,-34.12006132835469,2.2617003285819357,-25.831301913171753,9.751598037309138,41.021999999997206
312797.3667,-36.92079698522462,1.518643464800373,-27.40440944454604,8.853944663833111,41.022999999986496
312797.3677,-39.52504306077715,0.6980051047048368,-28.847267024793823,7.889390537381664,41.023999999975786
312797.3687,-41.875046268076474,-0.19896467686338598,-30.13197372205673,6.857499835305799,41.024999999965075
312797.3697,-43.899289662497736,-1.1570943272887624,-31.218523665153217,5.772948444360569,41.025999999954365
312797.3707,-45.51486394366236,-2.1474601015824737,-32.05574767947895,4.665223646975009,41.02700000000186
312797.3717,-46.63148644534829,-3.128925668285535,-32.583840553590726,3.576794538267276,41.02799999999115
312797.3727,-47.15696304285535,-4.050951317210404,-32.73833148539141,2.559881385892282,41.02899999998044
312797.3737,-47.00373254782693,-4.857447049209996,-32.4551979160333,1.6720924438495126,41.02999999996973
312797.3747,-46.096004560383044,-5.491339046094646,-31.67669109491738,0.9713129611347977,41.03099999995902
312797.3757,-44.3769136016581,-5.899444869083878,-30.35734901559953,0.5103115845955555,41.03199999994831
312797.3767,-41.81507438462307,-6.037216645595282,-28.4696287716222,0.33156580255659457,41.03299999999581
312797.3777,-38.40994037053618,-5.872917193792434,-26.008601113649252,0.4627965540594348,41.0339999999851
312797.3787,-34.195440182245676,-5.39084115054536,-22.995214973730832,0.9136433582875262,41.03499999997439
312797.3797,-29.24148865305485,-4.593277335718525,-19.477753585578895,1.6738106331676534,41.03599999996368
312797.3807,-23.653131164980145,-3.5010218417499606,-15.531256393696639,2.712882700692444,41.03699999995297
312797.3817,-17.56726751321427,-2.152382916622574,-11.25485819380746,3.981851930143795,41.038000000000466
312797.3827,-11.147098309403695,-0.6007560913157559,-6.7671823689162345,5.416246119852337,41.038999999989755
312797.3837,-4.574625368170075,1.0890218697658964,-2.200101250026453,6.940592684720025,41.039999999979045
312797.3847,1.958299315074839,2.8452210853087956,2.3086731355966434,8.473832711868608,41.040999999968335
312797.3857,8.25975822146991,4.59426913111631,6.62359467874606,9.935209400553301,41.041999999957625
312797.3867,14.147696815696628,6.2658615306586665,10.619252755605194,11.250111312878518,41.042999999946915
312797.3877,19.459291791911127,7.797688177837932,14.187670828495305,12.355355474927316,41.04399999999441
312797.3887,24.05909960541123,9.139371693835036,17.244353796320812,13.203448267744742,41.0449999999837
312797.3897,27.845425413127582,10.25529111797961,19.732610703875018,13.765458195327437,41.04599999997299
312797.3907,30.7544979995956,11.12607156722001,21.62582875134158,14.03226483462184,41.04699999996228
312797.3917,32.762214428117,11.74864717853759,22.927552498421758,14.014100125940537,41.04799999995157
312797.3927,33.88341297445738,12.13493857502482,23.66941222359535,13.738457154404387,41.04899999999907
312797.3937,34.16882693922643,12.309314441710985,23.90712994906559,13.246592537148523,41.04999999998836
312797.3947,33.70004801694817,12.305117338026783,23.7149936015842,12.588977085984533,41.05099999997765
312797.3957,32.58297070517104,12.160616160829194,23.179314251521443,11.820143345831703,41.05199999996694
312797.3967,30.940286724623693,11.91479402637994,22.39145705164546,10.993429039012446,41.05299999995623
312797.3977,28.90364293042073,11.603386581270442,21.441056739408253,10.156117689849907,41.05399999994552
312797.3987,26.606065123478146,11.25555159094871,20.409992014383278,9.345431722437167,41.054999999993015
312797.3997,24.17518617309735,10.891479709678658,19.367603802103904,8.585743728187992,41.055999999982305
312797.4007,21.72770753340262,10.521155781821149,18.367509417618006,7.887247212965397,41.056999999971595
312797.4017,19.365380339269716,10.14435989561005,17.446201122836683,7.246181148552748,41.057999999960884
312797.4027,17.17263054988382,9.75186963124427,16.623439558341275,6.646547458653361,41.058999999950174
312797.4037,15.215788345555431,9.327702174562948,15.904277351852956,6.063112361526232,41.05999999999767
312797.4047,13.543731376104208,8.85212937027663,15.282392817895113,5.465355798597603,41.06099999998696
312797.4057,12.18962904174581,8.305120844774352,14.74429300762459,4.821940443207804,41.06199999997625
312797.4067,11.173392205915668,7.6698277994212445,14.273870922488975,4.105222135499325,41.06299999996554
312797.4077,10.504396834661415,6.935717226576114,13.85678037030513,3.2953219330607633,41.06399999995483
312797.4087,10.18406336790286,6.101003460563409,13.484125369082959,2.383326478174023,41.06500000000233
312797.4097,10.207933385591696,5.174097478463601,13.15504543805203,1.3732734669482372,41.06599999999162
312797.4107,10.566983772001212,4.17389688929716,12.8779047706568,0.2827037299838934,41.06699999998091
312797.4117,11.248044542387438,3.128860824814735,12.669949213903546,-0.858291606828344,41.0679999999702
312797.4127,12.23332542814277,2.074941760875531,12.555464358526224,-2.009445876797363,41.06899999995949
312797.4137,13.499192577491261,1.0525677187670788,12.562633743376486,-3.123883881594413,41.06999999994878
312797.4147,15.014455016126446,0.10297095349090298,12.719441454308312,-4.15252743387953,41.070999999996275
312797.4157,16.738507460191546,-0.7357674191572087,13.049073560446523,-5.048896748127464,41.071999999985565
312797.4167,18.619721652704992,-1.4325510336564093,13.565336687994572,-5.773820158081261,41.072999999974854
312797.4177,20.594476965393067,-1.9665788880475616,14.268622996244051,-6.299568581881577,41.073999999964144
312797.4187,22.587171927048573,-2.3297771583725413,15.142907553660669,-6.612983676194463,41.074999999953434
312797.4197,24.511466047215343,-2.5280784809686008,16.15417065073767,-6.717264677550724,41.07600000000093
312797.4207,26.272874891509588,-2.581385754283798,17.250502941683084,-6.6322091375654715,41.07699999999022
312797.4217,27.77269366401069,-2.5221861729788975,18.36398857680106,-6.392854317860542,41.07799999997951
312797.4227,28.913070839695656,-2.3929150482168473,19.41428657195204,-6.046623970910268,41.0789999999688
312797.4237,29.602909838334565,-2.2422946966441084,20.313660707455647,-5.649233976470528,41.07999999995809
312797.4247,29.764158761370844,-2.120978729278814,20.973059972752388,-5.259735088445983,41.08099999994738
312797.4257,29.3379689142185,-2.0769058514976004,21.3087396266199,-4.935159468264169,41.08199999999488
312797.4267,28.290171612165278,-2.1508022462215806,21.248848478264957,-4.725280895369102,41.08299999998417
312797.4277,26.615544347260744,-2.372264003009357,20.739397572408095,-4.667992148749751,41.08399999997346
312797.4287,24.34041130262693,-2.7568013086324896,19.749070404576774,-4.7857475152058075,41.08499999996275
312797.4297,21.523243755061955,-3.3041388159176064,18.27243105449892,-5.083418998732491,41.08599999995204
312797.4307,18.25308272258272,-3.997950054044528,16.331225182588696,-5.5477811856782955,41.086999999999534
312797.4317,14.64578518872708,-4.807069131402432,13.973636568246611,-6.148684826454435,41.087999999988824
312797.4327,10.83827990496594,-5.68808330827818,11.271542846047291,-6.841818073795061,41.088999999978114
312797.4337,6.981191902005324,-6.589078801199114,8.315991125128145,-7.572802620700991,41.089999999967404
312797.4347,3.230340100748409,-7.454202139286961,5.21127048360711,-8.28224442714569,41.09099999995669
312797.4357,-0.26228403043922793,-8.228621189919048,2.068079186899106,-8.91126766055735,41.09199999994598
312797.4367,-3.3573969661038015,-8.863431177416413,-1.0036413674308873,-9.407014674005717,41.09299999999348
312797.4377,-5.936507969108418,-9.320055376838205,-3.9016132261644874,-9.727598659042688,41.09399999998277
312797.4387,-7.908615240100566,-9.573737231882905,-6.537310399383732,-9.846048555361376,41.09499999997206
312797.4397,-9.215033334983145,-9.61580584635834,-8.840756054537746,-9.75288262539745,41.09599999996135
312797.4407,-9.832025860548113,-9.454511884049948,-10.7636828795901,-9.457078317065637,41.09699999995064
312797.4417,-9.771098488896525,-9.11436477448918,-12.280868602870566,-8.9853588509433,41.09799999999814
312797.4427,-9.076998836721799,-8.634041884849818,-13.389630400678614,-8.379876546678267,41.09899999998743
312797.4437,-7.823654336657683,-8.063072589764134,-14.107631195498483,-7.694523823050553,41.09999999997672
312797.4447,-6.108440244215722,-7.457612344379872,-14.469301326230978,-6.990230551524423,41.10099999996601
312797.4457,-4.045293061093601,-6.875703333071629,-14.52129642544556,-6.329698811652546,41.1019999999553
312797.4467,-1.7572592626351422,-6.37246142969285,-14.317485612851165,-5.772074370951647,41.102999999944586
312797.4477,0.6309107133688306,-5.995630194357913,-13.913986782033179,-5.368053988717283,41.103999999992084
312797.4487,2.999548556991258,-5.781901653819734,-13.364736332653296,-5.155879241666466,41.10499999998137
312797.4497,5.239745872831206,-5.7543249108302765,-12.718002855623622,-5.158575980584257,41.10599999997066
312797.4507,7.257563386995049,-5.92101505308114,-12.014136461182101,-5.382672914658593,41.10699999995995
312797.4517,8.976568230873795,-6.275247070889822,-11.284700020182552,-5.818485618374509,41.10799999994924
312797.4527,10.33866612689139,-6.796885027313334,-10.552970629799233,-6.441897955777469,41.10899999999674
312797.4537,11.303362042868049,-7.454968624879349,-9.835645375240999,-7.2174266548089925,41.10999999998603
312797.4547,11.845730068265452,-8.211169974354508,-9.145450781164474,-8.102230848452974,41.11099999997532
312797.4557,11.953486859145055,-9.02375331574269,-8.494254081325558,-9.050638916757007,41.11199999996461
312797.4567,11.623632398472731,-9.851627305331228,-7.896217061678531,-10.018718602601732,41.1129999999539
312797.4577,10.85914087326656,-10.658077276654133,-7.3705258069714334,-10.968417575933097,41.1140000000014
312797.4587,9.666152055615227,-11.413803610976847,-6.94327322191387,-11.870850147287982,41.11499999999069
312797.4597,8.052033678969472,-12.09896801487331,-6.6481615667490095,-12.708396786835882,41.11599999997998
312797.4607,6.024566610775221,-12.704054492767842,-6.525820541048771,-13.475407419225238,41.116999999969266
312797.4617,3.5923596484737748,-13.229475657424508,-6.621689867638533,-14.177444781825761,41.117999999958556
312797.4627,0.7664445967638784,-13.683985448202286,-6.982578424702893,-14.829156027828759,41.118999999947846
312797.4637,-2.4371489109054916,-14.08208340893213,-7.652168176340304,-15.451004145069836,41.11999999999534
312797.4647,-5.994169953567431,-14.44070113971922,-8.665864397287502,-16.065211391328063,41.12099999998463
312797.4657,-9.868701690124439,-14.775537946344985,-10.045490013492797,-16.691352786186584,41.12199999997392
312797.4667,-14.009974970353849,-15.097452491342311,-11.794370815197961,-17.342080119680183,41.12299999996321
312797.4677,-18.349921369135043,-15.409316417914525,-13.893353918323774,-18.019451556496985,41.1239999999525
312797.4687,-22.801897570444417,-15.703694459922184,-16.298243391273495,-18.712289022836952,41.125
312797.4697,-27.260916981967007,-15.96163742143377,-18.93902894500474,-19.394890097165362,41.12599999998929
312797.4707,-31.605590478557232,-16.15276713242567,-21.721135404414074,-20.02729218486307,41.12699999997858
312797.4717,-35.70181887951091,-16.23670641944254,-24.52874574913923,-20.55713671560113,41.12799999996787
312797.4727,-39.4081103310943,-16.16577444748198,-27.230064986801075,-20.923024409912962,41.12899999995716
312797.4737,-42.58223243745086,-15.888741303390681,-29.684213362886556,-21.059104437580753,41.12999999994645
312797.4747,-45.088767512560544,-15.355327607196715,-31.749282324010128,-20.900514861152523,41.130999999993946
312797.4757,-46.80703345958783,-14.521055679100472,-33.29097005724536,-20.38920127150624,41.131999999983236
312797.4767,-47.63877294824346,-13.35201599839475,-34.1911466337717,-19.479593780052152,41.132999999972526
312797.4777,-47.51500587546369,-11.829110503135377,-34.355688481502845,-18.143624145872174,41.133999999961816
312797.4787,-46.40148580484925,-9.951372945694283,-33.72096951805219,-16.374614774395443,41.134999999951106
312797.4797,-44.30229645876588,-7.738042398211642,-32.25849779077184,-14.18966500651491,41.1359999999986
312797.4807,-41.26126106236557,-5.229171933189609,-29.977332847160493,-11.630288753171875,41.13699999998789
312797.4817,-37.361003307345435,-2.4846805180152765,-26.924097066926024,-8.76120905895287,41.13799999997718
312797.4827,-32.71967919202888,0.418109546413115,-23.180587682510467,-5.6673754184598355,41.13899999996647
312797.4837,-27.485578058891946,3.3882772380475217,-18.85918768736255,-2.4494236911118343,41.13999999995576
312797.4847,-21.829953120905945,6.32616319780005,-14.096446077394681,0.7820679821070192,41.14099999994505
312797.4857,-15.938572698310498,9.128912265330886,-9.045335630286544,3.9130729663568737,41.14199999999255
312797.4867,-10.002572323670652,11.696271452211946,-3.8667878181123014,6.832846120220395,41.14299999998184
312797.4877,-4.2092278209386444,13.936202176651392,1.2788579332203003,9.44036392944025,41.14399999997113
312797.4887,1.2667420291131006,15.769890434884392,6.2398718517646525,11.649983367242402,41.14499999996042
312797.4897,6.270795323579074,17.135799702153285,10.880070971898299,13.395905923641271,41.14599999994971
312797.4907,10.67466473377068,17.992502310061493,15.0842450780834,14.635146340715073,41.146999999997206
312797.4917,14.380623955541282,18.32013668352598,18.76179034881816,15.348842690327887,41.147999999986496
312797.4927,17.323768618047783,18.12045918248889,21.84843748731858,15.541892196096779,41.148999999975786
312797.4937,19.472317089550785,17.41557870496473,24.306130962087714,15.24104149577457,41.149999999965075
312797.4947,20.82608690676053,16.245568418221808,26.121271734698006,14.491687308789642,41.150999999954365
312797.4957,21.413430369581295,14.665232260796124,27.301663249305044,13.353742053882327,41.15200000000186
312797.4967,21.287007697897046,12.740356917578053,27.872588346110906,11.89698019648243,41.15299999999115
312797.4977,20.51883102131531,10.543798666203879,27.872486137547607,10.196300150817402,41.15399999998044
312797.4987,19.19502439240478,8.151738180422074,27.34869050624598,8.32731281182136,41.15499999996973
312797.4997,17.410715226458642,5.640387927936767,26.35363838775537,6.362604880930479,41.15599999995902
312797.5007,15.265406308902275,3.0833622714929634,24.941863558052496,4.368930534385043,41.15699999994831
312797.5017,12.859083373864788,0.5498283574822744,23.167971157709722,2.4054691485746034,41.15799999999581
312797.5027,10.289202273474077,-1.896543431113132,21.08565312910676,0.5231621724574576,41.1589999999851
312797.5037,7.648584231720648,-4.197906489878859,18.74766977955815,-1.234978077811026,41.15999999997439
312797.5047,5.024139930544396,-6.302001579909998,16.206602159045996,-2.832798486547139,41.16099999996368
312797.5057,2.4962543103722723,-8.161575772732279,13.516086449134873,-4.239461115512088,41.16199999995297
312797.5067,0.1386027703485054,-9.733706651711598,10.732184687809921,-5.427753513040004,41.163000000000466
312797.5077,-1.9818584459246642,-10.97928112261346,7.914531551195971,-6.372584374999576,41.163999999989755
312797.5087,-3.8049775416730673,-11.86284629395355,5.1269257516541185,-7.04995956888585,41.164999999979045
312797.5097,-5.277777260119638,-12.352990320304658,2.4371035113251645,-7.436663117660015,41.165999999968335
312797.5107,-6.355250223681162,-12.4233305045934,-0.0844670333736368,-7.510770698421602,41.166999999957625
312797.5117,-7.00163176424584,-12.05409326298303,-2.366808707665503,-7.253010100727673,41.167999999946915
312797.5127,-7.19210528785152,-11.234176071552854,-4.3415824316304965,-6.648866169308207,41.16899999999441
312797.5137,-6.914800523808705,-9.96349585055651,-5.946940219285443,-5.691219740014884,41.1699999999837
312797.5147,-6.172864136800301,-8.255361229366782,-7.1317598167780805,-4.3832228451446476,41.17099999997299
312797.5157,-4.986325071755332,-6.138565803407738,-7.859862233892157,-2.7410558522195254,41.17199999996228
312797.5167,-3.3934511818151187,-3.658891234114113,-8.113778920819161,-0.7961929990094325,41.17299999995157
312797.5177,-1.4513034623886976,-0.8797350249242076,-7.897645574986572,1.4031759671405002,41.17399999999907
312797.5187,0.764759837871952,2.11836328365059,-7.238854753626795,3.7918597044642754,41.17499999998836
312797.5197,3.1627981046320612,5.239436640826928,-6.1881952690184026,6.288711477426854,41.17599999997765
312797.5207,5.637286231513501,8.375077270805576,-4.818334209103567,8.799083823600265,41.17699999996694
312797.5217,8.073338404196557,11.408609162988895,-3.220645401809588,11.21863313531695,41.17799999995623
312797.5227,10.35197539861401,14.220242482129235,-1.5005419985309658,13.438279809417537,41.17899999994552
312797.5237,12.35613623644537,16.692901337301738,0.22838453499840136,15.350006288322021,41.179999999993015
312797.5247,13.977039279644151,18.718334745151864,1.8509959003293306,16.853077060991005,41.180999999982305
312797.5257,15.120433866339516,20.203070961614635,3.257501243117563,17.86020194730683,41.181999999971595
312797.5267,15.712259376453591,21.073763559991168,4.350067440628417,18.303143946686625,41.182999999960884
312797.5277,15.703248456962246,21.281506137654763,5.048609846348382,18.137298777155678,41.183999999950174
312797.5287,15.072075086012362,20.80475997365948,5.295289548376835,17.344843758338975,41.18499999999767
312797.5297,13.826751893858376,19.650640218783387,5.057350293107209,15.936163341389447,41.18599999998696
312797.5307,12.004116302512951,17.854432825665146,4.328071372763342,13.949397914271014,41.18699999997625
312797.5317,9.667399865488088,15.477355378490453,3.12577885793518,11.448119032565705,41.18799999996554
312797.5327,6.902035683037205,12.60271764132689,1.491031003859307,8.517293595149278,41.18899999995483
312797.5337,3.8100099912764147,9.330768999876978,-0.5177420610480646,5.2578468452521205,41.19000000000233
312797.5347,0.5031915362709097,5.772627857406074,-2.8297250307688837,1.7802554995508684,41.19099999999162
312797.5357,-2.903836354589134,2.043762319190384,-5.3678106702308055,-1.8023138567640675,41.19199999998091
312797.5367,-6.300870297612015,-1.7424749612793413,-8.054728103915545,-5.380767934775945,41.1929999999702
312797.5377,-9.588542098736573,-5.480765481002118,-10.818637232931613,-8.856210001780948,41.19399999995949
312797.5387,-12.68362466433399,-9.078758817790298,-13.597677506096923,-12.144942484700977,41.19499999994878
312797.5397,-15.522780824561073,-12.46067606590612,-16.343065893923516,-15.181972480033005,41.195999999996275
312797.5407,-18.06448709677904,-15.569359798618244,-19.020485104404145,-17.922782070218446,41.196999999985565
312797.5417,-20.28902897335039,-18.366689166875613,-21.60967496189865,-20.343284838605804,41.197999999974854
312797.5427,-22.196638447061797,-20.832426034336784,-24.102320928397624,-22.438055684643977,41.198999999964144
312797.5437,-23.80401192187091,-22.961697334263725,-26.49850640422997,-24.21707738076317,41.199999999953434
312797.5447,-25.139591630207693,-24.761437135613797,-28.80214277007844,-25.701379541011548,41.20100000000093
312797.5457,-26.238102451518724,-26.24619821934922,-31.01589848911416,-26.918041312494704,41.20199999999022
312797.5467,-27.134898230215406,-27.433789318140292,-33.13620508677849,-27.89507915097214,41.20299999997951
312797.5477,-27.860681348288264,-28.341196393514632,-35.14891741638204,-28.65674085077522,41.2039999999688
312797.5487,-28.437115440332853,-28.981204458484676,-37.02614772841112,-29.219676730811532,41.20499999995809
312797.5497,-28.873757890017593,-29.36005476645833,-38.724682705542854,-29.59036351225045,41.20599999994738
312797.5507,-29.16660500975363,-29.476358766660475,-40.18623997732611,-29.764025288660804,41.20699999999488
312797.5517,-29.298381386222168,-29.321356213069794,-41.3396400847233,-29.72514187597257,41.20799999998417
312797.5527,-29.240531274869287,-28.880463334167068,-42.104778689510866,-29.44947276028018,41.20899999997346
312797.5537,-28.956700855257687,-28.135921872227307,-42.39810050076862,-28.907370640441098,41.20999999996275
312797.5547,-28.407351920448978,-27.070244313273957,-42.139118839373246,-28.06802724192564,41.21099999995204
312797.5557,-27.555034486745836,-25.67006607900666,-41.257408587386145,-26.904198491512958,41.211999999999534
312797.5567,-26.36977881552484,-23.929970158096072,-39.69943722390764,-25.396905645923265,41.212999999988824
312797.5577,-24.834052926883253,-21.85584810752068,-37.43459544830943,-23.53960851894042,41.213999999978114
312797.5587,-22.946771254118985,-19.467403770709186,-34.45984651532367,-21.341396613565994,41.214999999967404
312797.5597,-20.725929798408,-16.79948834398672,-30.80252695119197,-18.828838887717467,41.21599999995669
312797.5607,-18.20957427891028,-13.902069558708162,-26.52099042959335,-16.046263764496622,41.21699999994598
312797.5617,-15.454967585525731,-10.838772564147304,-21.702976419819155,-13.054394995767566,41.21799999999348
312797.5627,-12.53599578496092,-7.684072357583594,-16.46178787147354,-9.927430964026376,41.21899999998277
312797.5637,-9.539021181365657,-4.51935329635674,-10.930558429233237,-6.748809017767865,41.21999999997206
312797.5647,-6.55754003125076,-1.4281669181764596,-5.255060776317592,-3.606027293672279,41.22099999996135
312797.5657,-3.686116976419693,1.5088965214298489,0.4143626469810742,-0.5849912519663722,41.22199999995064
312797.5667,-1.0141370035960364,4.219263176321077,5.931089476278247,2.2355985652698807,41.22299999999814
312797.5677,1.3800678328297222,6.642898122532371,11.160055907256087,4.789302195140391,41.22399999998743
312797.5687,3.434197040475888,8.735881088081591,15.984519395692708,7.025975557891868,41.22499999997672
312797.5697,5.105633100652536,10.472706945204154,20.311226173572663,8.914418671500403,41.22599999996601
312797.5707,6.373461645542475,11.847100660750192,24.073616517075454,10.443403103559119,41.2269999999553
312797.5717,7.23871341115111,12.87127560519416,27.232885524440437,11.621001050120881,41.227999999944586
312797.5727,7.722850924687664,13.573710885218484,29.776916561116167,12.472302194409723,41.228999999992084
312797.5737,7.864688957387611,13.995663395185021,31.71729924649934,13.035759862978201,41.22999999998137
312797.5747,7.7160835902717455,14.186749882707746,33.08481515515229,13.358539648974155,41.23099999997066
312797.5757,7.33683596548135,14.200021739028006,33.9239058954664,13.491338590923984,41.23199999995995
312797.5767,6.789322566049741,14.08700180501323,34.28671745931469,13.48319174218764,41.23299999994924
312797.5777,6.133377876600098,13.89315354247308,34.227334406977555,13.376780626618443,41.23399999999674
312797.5787,5.421916413366263,13.654208214496675,33.79677612398646,13.20470476089011,41.23499999998603
312797.5797,4.697693570929375,13.393689489291527,33.03922962349547,12.987078277594144,41.23599999997532
312797.5807,3.9914776074784304,13.121855458272972,31.989849285857208,12.730678394127652,41.23699999996461
312797.5817,3.321751460594218,12.836137054116142,30.67427820139134,12.429714333532075,41.2379999999539
312797.5827,2.6958987082969115,12.52300303600466,29.10985620021331,12.068119911907957,41.2390000000014
312797.5837,2.112669713445566,12.161039653407165,27.30829535694932,11.62311673133926,41.23999999999069
312797.5847,1.5655880534164,11.724911760239012,25.27944335164957,11.069663283853709,41.24099999997998
312797.5857,1.0468577307504565,11.189783487635836,23.035634772099883,10.385311431299336,41.241999999969266
312797.5867,0.55127870415399,10.53572938279386,20.59606248590732,9.554945150936803,41.242999999958556
312797.5877,0.07967757135796855,9.751665931229741,17.99059261456729,8.57488198182042,41.243999999947846
312797.5887,-0.3585879257642449,8.838378838895622,15.262498518429556,7.455875023259706,41.24499999999534
312797.5897,-0.7443925660976716,7.810309060574198,12.469696634941908,6.224657285576547,41.24599999998463
312797.5907,-1.0490805449253455,6.695881903774922,9.684219532346782,4.9238107624502785,41.24699999997392
312797.5917,-1.2362199159626726,5.536306894465655,6.989844142479991,3.609906258658145,41.24799999996321
312797.5927,-1.2647506241516746,4.382927583920937,4.477987746311021,2.3500309445570897,41.2489999999525
312797.5937,-1.0932435464097907,3.2933454149797723,2.2421715308342685,1.2169822364678693,41.25
312797.5947,-0.6848553132321173,2.3266660746025662,0.371512640112263,0.28354318678287904,41.25099999998929
312797.5957,-0.012470895056046198,1.5383083361148897,-1.0561757279094974,-0.38364724994552246,41.25199999997858
312797.5967,0.9365169825976685,0.9748652787866366,-1.9810327580698162,-0.7300656205090179,41.25299999996787
312797.5977,2.1563304390932294,0.6695110060883157,-2.366901474121821,-0.7185566869145527,41.25399999995716
312797.5987,3.620303054373209,0.6384020830620775,-2.20559842350947,-0.3333633662220985,41.25499999994645
312797.5997,5.280106573001868,0.8784359092399548,-1.5192352777640312,0.4174658284108396,41.255999999993946
312797.6007,7.066909300449879,1.366606291385677,-0.36029157044658683,1.5015488198996345,41.256999999983236
312797.6017,8.894489202323834,2.0610510723093354,1.1906649297812337,2.8636106666213506,41.257999999972526
312797.6027,10.664138905019625,2.9037315340987906,3.0295031648382693,4.428805056819252,41.258999999961816
312797.6037,12.271024533785134,3.8245330713995305,5.034988027273154,6.107658993332579,41.259999999951106
312797.6047,13.6115125331467,4.746445487576808,7.076684769679602,7.802236571418052,41.2609999999986
312797.6057,14.590872739901695,5.591381537784336,9.023684147361617,9.413008176985674,41.26199999998789
312797.6067,15.13071259520161,6.286133359316161,10.753444225684126,10.845848924404146,41.26299999997718
312797.6077,15.17550217080075,6.767953636908965,12.160028459458418,12.018580379133521,41.26399999996647
312797.6087,14.697612875648622,6.989282800534958,13.16106827921525,12.866513230905255,41.26499999995576
312797.6097,13.700409043824727,6.921221816572461,13.702887507201288,13.346541209222336,41.26599999994505
312797.6107,12.219090819148946,6.555464643687661,13.763385293141136,13.439469169795347,41.26699999999255
312797.6117,10.31917453577131,5.90454421887129,13.352469026352916,13.150418211290305,41.26799999998184
312797.6127,8.092696136303811,5.00039762145384,12.510040708958659,12.507322706136863,41.26899999997113
312797.6137,5.652415957461769,3.8914054927252493,11.301749917379363,11.557702035763631,41.26999999996042
312797.6147,3.124471939429083,2.638193862509257,9.812914463483754,10.364037949456845,41.27099999994971
312797.6157,0.6400577208874363,1.308590930147331,8.141159131258556,8.998203208568798,41.271999999997206
312797.6167,-1.6732194110256233,-0.027802397997071487,6.388420169600348,7.535458269274663,41.272999999986496
312797.6177,-3.6996249567359816,-1.3049470125318687,4.6530003768512955,6.048554235773786,41.273999999975786
312797.6187,-5.342590632229365,-2.465146838862718,3.022334208860208,4.602451057481869,41.274999999965075
312797.6197,-6.530470862778732,-3.462883751136563,1.5670379165808026,3.2500837211590197,41.275999999954365
312797.6207,-7.220357860947087,-4.267413717691309,0.33668534333188405,2.0294942538519614,41.27700000000186
312797.6217,-7.399722929085571,-4.86395738168335,-0.6424206495969467,0.9625055842397134,41.27799999999115
312797.6227,-7.085840242595915,-5.253456340631513,-1.3674012257684374,0.054959016918333006,41.27899999998044
312797.6237,-6.323136973782116,-5.451003199115098,-1.856990223401455,-0.7016144306522661,41.27999999996973
312797.6247,-5.1787830470634635,-5.483175680048457,-2.148043395080273,-1.327152487443863,41.28099999995902
312797.6257,-3.736969883155535,-5.384600961817921,-2.2907937007612054,-1.8494169989881748,41.28199999994831
312797.6267,-2.092418386628478,-5.194136989163449,-2.3433726116341127,-2.299976662085068,41.28299999999581
312797.6277,-0.3436948161343836,-4.951077429171829,-2.366157985990714,-2.710265248651457,41.2839999999851
312797.6287,1.4131031874343998,-4.69176496632767,-2.416493306560628,-3.108134514412537,41.28499999997439
312797.6297,3.0897962370719143,-4.4469367089205765,-2.544254022665109,-3.5152492016435017,41.28599999996368
312797.6307,4.610326239271589,-4.24003244600922,-2.788622726628389,-3.9455649118788876,41.28699999995297
312797.6317,5.9134743171355355,-4.086581356022578,-3.1762885411622235,-4.404999604183677,41.288000000000466
312797.6327,6.954015782516235,-3.994657695096843,-3.721123057537383,-4.892269822059286,41.288999999989755
312797.6337,7.702395654966579,-3.966274101116217,-4.425222542439579,-5.4007281418077815,41.289999999979045
312797.6347,8.14315407914115,-3.999475191043477,-5.281060757374107,-5.920922897112053,41.290999999968335
312797.6357,8.27244698473203,-4.090815221858271,-6.2743835001426165,-6.44351714196695,41.291999999957625
312797.6367,8.095082221543768,-4.237860096128164,-7.3874063561344565,-6.962160059470009,41.292999999946915
312797.6377,7.6215181801585805,-4.441350688416264,-8.601858052707858,-7.47590550183854,41.29399999999441
312797.6387,6.865248490931675,-4.706702012876323,-9.901444908711582,-7.990819333575763,41.2949999999837
312797.6397,5.840925826268967,-5.044587605798998,-11.273393406078325,-8.520505333577123,41.29599999997299
312797.6407,4.56346799559671,-5.470463227121592,-12.708849063246973,-9.085399887255278,41.29699999996228
312797.6417,3.0482523660561847,-6.003007967103619,-14.202057549216002,-9.710826389009103,41.29799999995157
312797.6427,1.3123549952533196,-6.661591287536538,-15.748412430221075,-10.42394670781854,41.29899999999907
312797.6437,-0.6233550394414722,-7.462997730997356,-17.341605872940292,-11.249883903721377,41.29999999998836
312797.6447,-2.731581782562665,-8.417743755517327,-18.970247267162126,-12.207402942095623,41.30099999997765
312797.6457,-4.975836939711045,-9.526391958497586,-20.61440547553322,-13.304611912105301,41.30199999996694
312797.6467,-7.3079982916859265,-10.776298399246144,-22.24257237021898,-14.535176149544066,41.30299999995623
312797.6477,-9.666643970285104,-12.139214277073584,-23.809532465039055,-15.875517067975641,41.30399999994552
312797.6487,-11.976558917945427,-13.570103781409191,-25.25555538246075,-17.283396791189425,41.304999999993015
312797.6497,-14.149706293419996,-15.007439966343375,-26.507209945221597,-18.69817430230652,41.305999999982305
312797.6507,-16.087814486224815,-16.375108688733587,-27.47994151673119,-20.042868867985057,41.306999999971595
312797.6517,-17.686563347344187,-17.585899099414753,-28.082372850801985,-21.227995784402765,41.307999999960884
312797.6527,-18.84117775299139,-18.546402312627983,-28.222101087580405,-22.156964292613626,41.308999999950174
312797.6537,-19.453070538658846,-19.162993046649195,-27.812588748901973,-22.73266497276496,41.30999999999767
312797.6547,-19.437037571766048,-19.348446998405425,-26.780602995375038,-22.864740397528234,41.31099999998696
312797.6557,-18.728410464536086,-19.0286622032371,-25.073560743521714,-22.47694221879678,41.31199999997625
312797.6567,-17.289528576685175,-18.148915001440727,-22.66609897733566,-21.51394023511231,41.31299999996554
312797.6577,-15.11490793186518,-16.67909550472051,-19.565215692191842,-19.946969474203033,41.31399999995483
312797.6587,-12.234561139762363,-14.617433723887704,-15.813417128387716,-17.777779539134755,41.31500000000233
312797.6597,-8.715054114721793,-11.992340855599885,-11.489454713062738,-15.04048044043159,41.31599999999162
312797.6607,-4.658061519356364,-8.862141072314248,-6.706428065785499,-11.801049810648012,41.31699999998091
312797.6617,-0.196388069638537,-5.312644185484288,-1.6072514895493073,-8.1544626191762,41.3179999999702
312797.6627,4.512361406422074,-1.4526928967622712,3.642289560794246,-4.219608441754756,41.31899999995949
312797.6637,9.294073885302193,2.5920068678402597,8.862449750056633,-0.1323541762778887,41.31999999994878
312797.6647,13.967815175029903,6.6863141112505255,13.869778462979637,3.9627261536551273,41.320999999996275
312797.6657,18.356213384752195,10.693769984030645,18.48796234841259,7.921313618307903,41.321999999985565
312797.6667,22.2957670800405,14.484773127917014,22.558433489847683,11.608294325137438,41.322999999974854
312797.6677,25.64629954671252,17.94417608690898,25.94992499586012,14.905991353827662,41.323999999964144
312797.6687,28.29884144095309,20.977715744959415,28.566231371051405,17.721033828416495,41.324999999953434
312797.6697,30.181347715616475,23.516792349350716,30.351571802088102,19.989335939255117,41.32600000000093
312797.6707,31.26183027579928,25.521255466221174,31.29314813714952,21.67882233835716,41.32699999999022
312797.6717,31.548699650950713,26.980027855485385,31.420718584497504,22.789730760388284,41.32799999997951
312797.6727,31.088338010857687,27.90958376876985,30.803252444097275,23.352530026000707,41.3289999999688
312797.6737,29.960151465821962,28.350479492308317,29.542968600733797,23.423692737528878,41.32999999995809
312797.6747,28.269551540534266,28.362294553852216,27.767269850325825,23.079738694993257,41.33099999994738
312797.6757,26.13947607283052,28.01746749556639,25.61924791342423,22.41010154252033,41.33199999999488
312797.6767,23.701164632776166,27.394589576958598,23.247536149813932,21.50945556830746,41.33299999998417
312797.6777,21.084944230251175,26.571746793103085,20.796320177868054,20.470165140090103,41.33399999997346
312797.6787,18.41175496405512,25.620473790173197,18.396278916517762,19.375484803809023,41.33499999996275
312797.6797,15.786055957911206,24.60080633716665,16.157124651194877,18.2940480977206,41.33599999995204
312797.6807,13.29060881272488,23.557800319132713,14.162251254950682,17.276047257804255,41.336999999999534
312797.6817,10.983453082464298,22.519736861565622,12.465800295259772,16.35133795230773,41.337999999988824
312797.6827,8.897183558132673,21.498069811825424,11.09223445171192,15.529519452835377,41.338999999978114
312797.6837,7.040431710753847,20.489009097672643,10.038287042995591,14.801858798929999,41.339999999967404
312797.6847,5.401262626485641,19.476486707054736,9.276955687593317,14.144764516830506,41.34099999995669
312797.6857,3.952041326452077,18.436134534942532,8.76304507203782,13.524386077689076,41.34199999994598
312797.6867,2.655212116023787,17.339825332706017,8.439652398191589,12.901830722083034,41.34299999999348
312797.6877,1.469380407660596,16.16029564374204,8.244938070311592,12.23845617129209,41.34399999998277
312797.6887,0.35509166267248216,14.875384553727402,8.11853640814119,11.500717635207417,41.34499999997206
312797.6897,-0.7202356476248077,13.471481384614314,8.007033437626443,10.664116833793829,41.34599999996135
312797.6907,-1.778654559574759,11.94587199411257,7.868062314362793,9.715911235068269,41.34699999995064
312797.6917,-2.8295943861166863,10.307796584725965,7.672728228172322,8.656381375942567,41.34799999999814
312797.6927,-3.8694381356988585,8.578169051259493,7.406257005682199,7.498608447509683,41.34899999998743
312797.6937,-4.882710142745978,6.788045060261739,7.066946754103247,6.266867700152421,41.34999999997672
312797.6947,-5.8446493806502255,4.97604975987216,6.663671638670211,4.993880526080599,41.35099999996601
312797.6957,-6.7248101618451495,3.1850744074870385,6.21232504293962,3.7172760999770786,41.3519999999553
312797.6967,-7.4912389575139695,1.4586151789040742,5.7316831557649905,2.475682167886685,41.352999999944586
312797.6977,-8.114732099623259,-0.16284851837676953,5.239211311975674,1.3048880344527676,41.353999999992084
312797.6987,-8.572687377319397,-1.6450562033872846,4.747321371338065,0.2344996876632366,41.35499999998137
312797.6997,-8.85212099831042,-2.962424886815903,4.260521764462276,-0.7145593277396889,41.35599999997066
312797.7007,-8.95152308994375,-4.099528097710277,3.773790457538181,-1.5314495888093265,41.35699999995995
312797.7017,-8.881358698423673,-5.0514700953747385,3.2723572172986066,-2.215594718744507,41.35799999994924
312797.7027,-8.663172893169621,-5.823151482625988,2.732920494685465,-2.775649697334594,41.35899999999674
312797.7037,-8.327412272772637,-6.427542099981377,2.1261628154780134,-3.227404805798808,41.35999999998603
312797.7047,-7.9102150514192155,-6.883182603925141,1.4202834297891627,-3.5908883161236065,41.36099999997532
312797.7057,-7.449533683771378,-7.211216772021564,0.5851529667074222,-3.8870186173063286,41.36199999996461
312797.7067,-6.981026330844295,-7.432304216988827,-0.4033764922744519,-4.134205812344256,41.3629999999539
312797.7077,-6.534179126846237,-7.56377313718052,-1.559494055395669,-4.345308918110738,41.3640000000014
312797.7087,-6.12909770952799,-7.61734416259266,-2.884243284794622,-4.525317102225727,41.36499999999069
312797.7097,-5.774336371409104,-7.597692392619401,-4.363505289923839,-4.670045837083624,41.36599999997998
312797.7107,-5.466023769619034,-7.502022094387198,-5.96741193065662,-4.766029470421104,41.366999999969266
312797.7117,-5.188406696894837,-7.32071689232603,-7.651302587193566,-4.791661807603269,41.367999999958556
312797.7127,-4.915782129993108,-7.039009229549933,-9.358178390095242,-4.71949930824984,41.368999999947846
312797.7137,-4.615638237584372,-6.639498791104178,-11.022451936755553,-4.51951162840661,41.36999999999534
312797.7147,-4.252692716874141,-6.105252342380368,-12.574654398974609,-4.162955036749586,41.37099999998463
312797.7157,-3.7934155100523803,-5.423147267135345,-13.946659583670812,-3.626467213089478,41.37199999997392
312797.7167,-3.210563310033763,-4.5870854872460365,-15.076926545456267,-2.8959454098918944,41.37299999996321
312797.7177,-2.48724180108496,-3.6007074294427452,-15.915254864299413,-1.969778178587637,41.3739999999525
312797.7187,-1.620049941810426,-2.479277395161816,-16.426590678274145,-0.8610535878120703,41.375
312797.7197,-0.6209453922298321,-1.2504882870149634,-16.593512773437663,0.40154065098023395,41.37599999998929
312797.7207,0.482406704695942,0.045962211005239534,-16.417157465725282,1.7742862702388948,41.37699999997858
312797.7217,1.6478900057144075,1.3600504112587084,-15.916495761540917,3.2004913994733815,41.37799999996787
312797.7227,2.821725898403851,2.6342599639378417,-15.126040849614078,4.613906563178985,41.37899999995716
312797.7237,3.9425664480743157,3.8073499258407204,-14.09222178955171,5.9432330441899195,41.37999999994645
312797.7247,4.946526890871013,4.81873770823271,-12.868794338420004,7.117342514342828,41.380999999993946
312797.7257,5.772691616381341,5.613106728448323,-11.511758385090635,8.07074749673484,41.381999999983236
312797.7267,6.368570826870238,6.144815360161495,-10.074303186546071,8.748826267837536,41.382999999972526
312797.7277,6.694979350689381,6.381691462178415,-8.602300856261763,9.112317350601115,41.383999999961816
312797.7287,6.72985562326754,6.307845181795613,-7.130814862895685,9.140657289920794,41.384999999951106
312797.7297,6.47063365316797,5.9252176779552785,-5.68198845386824,8.833835833139881,41.3859999999986
312797.7307,5.934915060742784,5.253697058650528,-4.264537569173668,8.212575714378186,41.38699999998789
312797.7317,5.159349215411212,4.329764448325697,-2.874907549017967,7.316797448760435,41.38799999997718
312797.7327,4.196801541690923,3.203770100461171,-1.4999790065522507,6.202488297467245,41.38899999996647
312797.7337,3.11205639765971,1.9360686076776623,-0.12104295348935787,4.937243620693497,41.38999999995576
312797.7347,1.976445130827572,0.5923509412728437,1.2813746664791428,3.594873765459731,41.39099999994505
312797.7357,0.8618975811035168,-0.7614114379349346,2.722359035032471,2.2495582409941894,41.39199999999255
312797.7367,-0.16502452008357799,-2.063956581380449,4.20769277700981,0.9700724510342829,41.39299999998184
312797.7377,-1.0485474940046873,-3.263206751069129,5.729745524160769,-0.18539377681236333,41.39399999997113
312797.7387,-1.7480429443807237,-4.319825661279733,7.264666269880746,-1.1733618875456917,41.39499999996042
312797.7397,-2.2409056816996675,-5.209541957225012,8.771263042944145,-1.9677699629749683,41.39599999994971
312797.7407,-2.5236767069200345,-5.924038998441674,10.191798154744253,-2.5610273954343734,41.396999999997206
312797.7417,-2.6113046333287198,-6.470346846291354,11.454744252200726,-2.9633447128147608,41.397999999986496
312797.7427,-2.534619697693915,-6.868814623958409,12.479353958366175,-3.200427639036123,41.398999999975786
312797.7437,-2.3362694537028275,-7.149876414704107,13.181712476722126,-3.3097790711701545,41.399999999965075
312797.7447,-2.0655171931092573,-7.349938526865,13.481786007729529,-3.3359837135468453,41.400999999954365
312797.7457,-1.7724180642356047,-7.506799143008453,13.310864636778625,-3.3254449849408685,41.40200000000186
312797.7467,-1.5019523282784242,-7.655054964892134,12.618738069372057,-3.3210933466550356,41.40299999999115
312797.7477,-1.28870354736919,-7.821949165126085,11.37994274417481,-3.357584610920959,41.40399999998044
312797.7487,-1.1526205176561812,-8.02407071127118,9.598480283080205,-3.4574561618351547,41.40499999996973
312797.7497,-1.0962998285335555,-8.26523115499901,7.310524968625387,-3.62861329194652,41.40599999995902
312797.7507,-1.1040806292585001,-8.535729358209094,4.584801646348163,-3.8633863421780843,41.40699999994831
312797.7517,-1.1430683882541133,-8.81307852406097,1.5205104194489107,-4.139244819754299,41.40799999999581
312797.7527,-1.1660169592111098,-9.064126481264983,-1.757116973607405,-4.421092175016194,41.4089999999851
312797.7537,-1.1158162580723525,-9.248363328915055,-5.10334115677182,-4.664910225727586,41.40999999997439
312797.7547,-0.9311739903824267,-9.32209356004174,-8.362052507739524,-4.822390337765601,41.41099999996368
312797.7557,-0.5529596534306392,-9.24306400970717,-11.374916232526388,-4.846092183097451,41.41199999995297
312797.7567,0.06939072240644141,-8.975092770659451,-13.990833521830233,-4.6946195046737405,41.413000000000466
312797.7577,0.9720229866286336,-8.492242114783581,-16.075001719715022,-4.33730075120759,41.413999999989755
312797.7587,2.171933883643625,-7.782120713086707,-17.516893342809986,-3.757910777419754,41.414999999979045
312797.7597,3.663827159082743,-6.847983024204144,-18.236569240274378,-2.9570632552430665,41.415999999968335
312797.7607,5.418877350292669,-5.709408672023685,-18.188885966953706,-1.9530328392767053,41.416999999957625
312797.7617,7.385544954935493,-4.401480858616074,-17.365337867683994,-0.7809188144109928,41.417999999946915
312797.7627,9.492395715014164,-2.9725271817457797,-15.793473609681746,0.5097769923567245,41.41899999999441
312797.7637,11.652690048832508,-1.4806246639474407,-13.534026596690657,1.858931548967704,41.4199999999837
312797.7647,13.770344104181508,0.010810080288364925,-10.676080719516863,3.20058334766655,41.42099999997299
312797.7657,15.74673722948391,1.4379363872666422,-7.330741041376868,4.4682624259273815,41.42199999996228
312797.7667,17.487763915077814,2.741452901826818,-3.623880522288305,5.60036180252924,41.42299999995157
312797.7677,18.910508636052153,3.8711463511222943,0.31141940142099267,6.545042126665798,41.42399999999907
312797.7687,19.948961172649437,4.789603523005365,4.342127487867382,7.264208593739048,41.42499999998836
312797.7697,20.558283839218156,5.474745213034439,8.341679597894206,7.73619128863683,41.42599999997765
312797.7707,20.71728128054552,5.920954783737437,12.195125819438443,7.956887951180566,41.42699999996694
312797.7717,20.42889440761414,6.138709667782837,15.802727684331469,7.93927910004069,41.42799999995623
312797.7727,19.718725962267857,6.1527684206254545,19.08189283779791,7.711384631573729,41.42899999994552
312797.7737,18.631788091026337,5.99910473351802,21.96750467382738,7.312882773939335,41.429999999993015
312797.7747,17.22782455870592,5.7208996438249065,24.410860417264313,6.790741723755076,41.430999999982305
312797.7757,15.575686361666369,5.363992380276622,26.37755776393867,6.194308738571852,41.431999999971595
312797.7767,13.747317656438248,4.972240210909183,27.84475549690011,5.570351679219233,41.432999999960884
312797.7777,11.811932011909711,4.58324351747767,28.798269806544507,4.958549128089094,41.433999999950174
312797.7787,9.830925355444991,4.224853605190082,29.229952718284586,4.387877223194007,41.43499999999767
312797.7797,7.853985502108182,3.912801324627188,29.13573470149942,3.8742490472769666,41.43599999998696
312797.7807,5.9167278604753255,3.6496722589511386,28.514607801055156,3.4196349599919347,41.43699999997625
312797.7817,4.0400260584884125,3.425320044206571,27.368690293799666,3.012742281812228,41.43799999996554
312797.7827,2.2310309994955877,3.2186665001527146,25.70436371481198,2.6311750720664624,41.43899999995483
312797.7837,0.48569972309597753,3.000699649544744,23.534324397169204,2.2448449908274752,41.44000000000233
312797.7847,-1.207496526455962,2.7383618605761266,20.88026052876341,1.8202772190998564,41.44099999999162
312797.7857,-2.863132459536244,2.3989318760452587,17.775766435923213,1.3253637192572352,41.44199999998091
312797.7867,-4.49417486325179,1.9544550208331892,14.26904935507811,0.7340688518818095,41.4429999999702
312797.7877,-6.107649459052423,1.3857701995198513,10.424976924573476,0.030594248031795855,41.44399999995949
312797.7887,-7.701125646766221,0.68572090025295,6.326057479875796,-0.7874392597445661,41.44499999994878
312797.7897,-9.260428050345986,-0.13878354154487457,2.0720361477148765,-1.707139881750996,41.445999999996275
312797.7907,-10.758853992663564,-1.0660785002893811,-2.2220810176462455,-2.7000408101016147,41.446999999985565
312797.7917,-12.158017840183904,-2.060515204326876,-6.429607787845902,-3.7234096303882445,41.447999999974854
312797.7927,-13.410272493868256,-3.0746393331107567,-10.41723143798217,-4.723078102711876,41.448999999964144
312797.7937,-14.46249225591293,-4.052587302687838,-14.051249101279037,-5.637548763322675,41.449999999953434
312797.7947,-15.260856446884254,-4.934392395929363,-17.204561078793695,-6.403007522252363,41.45100000000093
312797.7957,-15.75616390402626,-5.660804779591861,-19.7638967766184,-6.958779772706083,41.45199999999022
312797.7967,-15.90914571661701,-6.178179735896624,-21.636697729686656,-7.252720431343438,41.45299999997951
312797.7977,-15.695233497755744,-6.4429817741593505,-22.757084274676735,-7.246030377521911,41.4539999999688
312797.7987,-15.108284209327111,-6.425489117197868,-23.090388583119722,-6.917042740055995,41.45499999995809
312797.7997,-14.162855835899494,-6.11235958881462,-22.635842409514918,-6.263617420103676,41.45599999994738
312797.8007,-12.894762004205413,-5.507827542933093,-21.42715365663466,-5.303911911456107,41.45699999999488
312797.8017,-11.359795005404065,-4.633431488374228,-19.53087838897944,-4.075448317299248,41.45799999998417
312797.8027,-9.630679990063081,-3.5263107859736036,-17.042678272853585,-2.6325557913036133,41.45899999997346
312797.8037,-7.792491640148288,-2.2362437739970145,-14.081730526867407,-1.0424191007618322,41.45999999996275
312797.8047,-5.936912143266131,-0.8217160050513295,-10.783711813573818,0.6199069173157401,41.46099999995204
312797.8057,-4.155821622212586,0.6546051665566587,-7.292894704997702,2.2770628840945117,41.461999999999534
312797.8067,-2.5347785358959194,2.1305628902346063,-3.7539645320290074,3.8550255671868814,41.462999999988824
312797.8077,-1.146961621514545,3.5489344113693564,-0.3041792447771279,5.288316545373072,41.463999999978114
312797.8087,-0.048105366427098714,4.861183730469517,2.9335458195372848,6.524317656124312,41.464999999967404
312797.8097,0.7271284166329629,6.030213196470198,5.85613857121494,7.526321720029375,41.46599999995669
312797.8107,1.1670310353179276,7.031887414398299,8.384101258200205,8.275071567571871,41.46699999994598
312797.8117,1.2828270225854757,7.855227485415748,10.46328139278718,8.768687579088192,41.46799999999348
312797.8127,1.1067746865949126,8.501307039871437,12.064670091210502,9.021039446757236,41.46899999998277
312797.8137,0.6885782346456756,8.981010630133454,13.18239049397852,9.058766574083794,41.46999999997206
312797.8147,0.09045402139655025,9.311927133226469,13.83019434063469,8.917279038416769,41.47099999996135
312797.8157,-0.6186882824025369,9.514734873801718,14.036905909073912,8.636165043368791,41.47199999995064
312797.8167,-1.369414757798402,9.609482971686079,13.84132823205239,8.254482253693062,41.47299999999814
312797.8177,-2.0977285934765613,9.612180260951908,13.287150117027302,7.806414469524572,41.47399999998743
312797.8187,-2.750295433122043,9.532068355494326,12.418362524052938,7.317731529497077,41.47499999997672
312797.8197,-3.288483554206735,9.369882478885827,11.275613105139865,6.803403563468284,41.47599999996601
312797.8207,-3.690890298943731,9.117299731838676,9.893806899550555,6.26659940939286,41.4769999999553
312797.8217,-3.9541761860964937,8.757649814070767,8.301112078817564,5.699155222542996,41.477999999944586
312797.8227,-4.0921927484123,8.267830207151547,6.519367772820763,5.083447315533655,41.478999999992084
312797.8237,-4.133553195903785,7.6212397012057,4.5657331188430295,4.395458175882668,41.47999999998137
312797.8247,-4.117940568585318,6.791433739431231,2.4552790144185668,3.608700859380169,41.48099999997066
312797.8257,-4.091561986793671,5.756123515959981,0.20412075715153397,2.6985769190291995,41.48199999995995
312797.8267,-4.102229003751839,4.501096473554449,-2.1673685958707605,1.6466957646396725,41.48299999994924
312797.8277,-4.194566262095965,3.0236335709271143,-4.63173176479136,0.44468371366837095,41.48399999999674
312797.8287,-4.4058219382556185,1.3350390815253033,-7.152411127436849,-0.9029408564454792,41.48499999998603
312797.8297,-4.762677215938981,-0.5380217956058075,-9.682875217578296,-2.377158493318267,41.48599999997532
312797.8307,-5.279336419608505,-2.5535710095290955,-12.167091418481567,-3.944312367222942,41.48699999996461
312797.8317,-5.957036569809323,-4.6558125899900356,-14.541395615193666,-5.557503616878386,41.4879999999539
312797.8327,-6.784959843055833,-6.777994962536442,-16.737648617578,-7.159422248399973,41.4890000000014
312797.8337,-7.742380826516713,-8.846425895694994,-18.68741701656455,-8.686370475138903,41.48999999999069
312797.8347,-8.801748274645385,-10.785308736306048,-20.326788966362518,-10.07311108968102,41.49099999997998
312797.8357,-9.932302057405325,-12.521982275623674,-21.60134695840021,-11.258084436944834,41.491999999969266
312797.8367,-11.103770525120524,-13.99209930152149,-22.47077989596783,-12.188492955148122,41.492999999958556
312797.8377,-12.289687550924741,-15.144275647633965,-22.912630740817953,-12.824756883438715,41.493999999947846
312797.8387,-13.469912927339692,-15.943783117385667,-22.924743295924884,-13.143898580585809,41.49499999999534
312797.8397,-14.632030277793815,-16.37494245572121,-22.52608647161729,-13.141511074804614,41.49599999998463
312797.8407,-15.771424097773162,-16.44198894810942,-21.75578589654167,-12.832099676059986,41.49699999997392
312797.8417,-16.88998896371648,-16.168322315115756,-20.670366336060546,-12.247740913590157,41.49799999996321
312797.8427,-17.993583726230817,-15.594201143805527,-19.339386969763666,-11.43516561869961,41.4989999999525
312797.8437,-19.088494967746367,-14.773085962436218,-17.83981729079669,-10.451526756491361,41.5
312797.8447,-20.177301105120097,-13.76696041244152,-16.249637366633884,-9.359242475106038,41.50099999998929
312797.8457,-21.254617457427763,-12.641054718699626,-14.641238287082587,-8.220397889870572,41.50199999997858
312797.8467,-22.303243249831798,-11.458450630989658,-13.075236797382054,-7.091235982013228,41.50299999996787
312797.8477,-23.291218491750076,-10.275056841976902,-11.595297517684976,-6.017263762037383,41.50399999995716
312797.8487,-24.170231894333714,-9.135407558485788,-10.224477632116672,-5.029444590538178,41.50499999994645
312797.8497,-24.87570583414087,-8.069657844435394,-8.963479015142857,-4.141846315449994,41.505999999993946
312797.8507,-25.328731131416596,-7.092035124052131,-7.791023068325031,-3.350977240278871,41.506999999983236
312797.8517,-25.439847382953523,-6.200867787793663,-6.666369691790125,-2.6368810443172266,41.507999999972526
312797.8527,-25.11448067696793,-5.3801624673749515,-5.533801956866445,-1.9658931138587312,41.508999999961816
312797.8537,-24.259677598420065,-4.602555564165743,-4.328711101819534,-1.2948006039673745,41.509999999951106
312797.8547,-22.791629603271957,-3.8333359924047055,-2.984760314256137,-0.5760124421503013,41.5109999999986
312797.8557,-20.64337972388769,-3.0351370836426037,-1.441495482332893,0.23675338325768255,41.51199999998789
312797.8567,-17.77205486423468,-2.1728355362193033,0.3482824657016467,1.1828099213902745,41.51299999997718
312797.8577,-14.164977352056153,-1.2181797252946773,2.4120603218836187,2.2894134947963836,41.51399999996647
312797.8587,-9.844079048929013,-0.15369983072947788,4.7526765133040865,3.5677409183448017,41.51499999995576
312797.8597,-4.868164665350591,1.0244751166403423,7.345385790120579,5.010325636009344,41.51599999994505
312797.8607,0.6672626414070487,2.3051603231218154,10.137233448990607,6.590210315196023,41.51699999999255
312797.8617,6.632705528188122,3.662153111648809,13.048848110033141,8.261912681494175,41.51799999998184
312797.8627,12.869793030145187,5.0557562571944805,15.97855163820803,9.964131698611467,41.51899999997113
312797.8637,19.198505731041664,6.435635827168889,18.808482835565464,11.623958846069266,41.51999999996042
312797.8647,25.426021012498943,7.744736961984277,21.412256310840778,13.162219692505722,41.52099999994971
312797.8657,31.356561708975537,8.923883368343748,23.66354516722425,14.499467401639404,41.521999999997206
312797.8667,36.80155159582658,9.916625708853694,25.444897529529317,15.562091894449612,41.522999999986496
312797.8677,41.58936019160401,10.673885986158544,26.656079081517635,16.288001321549388,41.523999999975786
312797.8687,45.57395863916647,11.157970679276936,27.22127769672889,16.63137654135335,41.524999999965075
312797.8697,48.641903733220545,11.345591765119519,27.094607261120416,16.566089800707417,41.525999999954365
312797.8707,50.71720924657788,11.229634885625797,26.263496091448744,16.08750669142412,41.52700000000186
312797.8717,51.76383922853138,10.819537618523498,24.74972696397003,15.212543104880014,41.52799999999115
312797.8727,51.785750745178426,10.140275700402226,22.608093876216007,13.978011448506514,41.52899999998044
312797.8737,50.824606162985134,9.230087791760353,19.922837236952994,12.437447123962434,41.52999999996973
312797.8747,48.95545046160404,8.137186970863642,16.80219664488808,10.656742203783187,41.53099999995902
312797.8757,46.280792062019614,6.915798224133058,13.371563288886655,8.709015541843018,41.53199999994831
312797.8767,42.923624463245275,5.621917122310828,9.76581028619057,6.669207759943434,41.53299999999581
312797.8777,39.01997317380573,4.30920055607346,6.121421527913381,4.608900500709488,41.5339999999851
312797.8787,34.71154559966812,3.025374821967384,2.569025554072988,2.5918216230507576,41.53499999997439
312797.8797,30.13900346838797,1.809482598600063,-0.7731263358383152,0.6704160161548895,41.53599999996368
312797.8807,25.436275602799405,0.6901953341703736,-3.8043111630249933,-1.1162558793857977,41.53699999995297
312797.8817,20.72619497917545,-0.3146987247653706,-6.444833878503202,-2.7431707839256316,41.538000000000466
312797.8827,16.1175923927249,-1.1976461205350688,-8.637759130209513,-4.198575561229509,41.538999999989755
312797.8837,11.703825434064917,-1.9596563934380116,-10.348925200629552,-5.481973500983333,41.539999999979045
312797.8847,7.5625813515432,-2.607849444840586,-11.565442526639803,-6.601160370750828,41.540999999968335
312797.8857,3.7566794646075197,-3.15254312101486,-12.293003316956833,-7.568697300126382,41.541999999957625
312797.8867,0.3355237123524927,-3.6042456621317336,-12.552413412734206,-8.39825639751273,41.542999999946915
312797.8877,-2.663174866273544,-3.970921926425352,-12.375795694670648,-9.101277439446832,41.54399999999441
312797.8887,-5.2117706975798805,-4.255866946453566,-11.802903831167209,-9.68433009360947,41.5449999999837
312797.8897,-7.291458157918899,-4.456449171124515,-10.877928742453483,-10.147490722376187,41.54599999997299
312797.8907,-8.891661492496981,-4.56388614967919,-9.647085186928255,-10.483924857719694,41.54699999996228
312797.8917,-10.010136334887605,-4.564097803814001,-8.15714352909071,-10.680728231350116,41.54799999995157
312797.8927,-10.653751385510748,-4.4395590622828225,-6.454935835694184,-10.720935131898806,41.54899999999907
312797.8937,-10.839795687046761,-4.1719573746915986,-4.587731000141027,-10.586467798990762,41.54999999998836
312797.8947,-10.597552541721068,-3.745363674932376,-2.6042553309823586,-10.26168861377128,41.55099999997765
312797.8957,-9.969807704035064,-3.1495580140261654,-0.5560458612447845,-9.737139762867569,41.55199999996694
312797.8967,-9.01392604995262,-2.383120657282864,1.5012266835925696,-9.013021107233275,41.55299999995623
312797.8977,-7.802142264783416,-1.4559095721347493,3.506834130961458,-8.101970126923156,41.55399999994552
312797.8987,-6.420767275764425,-0.39059547376446474,5.394795554729606,-7.030767257549329,41.554999999993015
312797.8997,-4.968108472734337,0.7769885523654769,7.094658450903142,-5.8406902360256865,41.555999999982305
312797.9007,-3.55102915249055,1.9988124909109104,8.533389992980942,-4.586372637042928,41.556999999971595
312797.9017,-2.28021854699888,3.216929670603118,9.638376237116058,-3.333171794993658,41.557999999960884
312797.9027,-1.2643934484131067,4.366937978421268,10.341384494540938,-2.153204986796865,41.558999999950174
312797.9037,-0.6037902181819823,5.382363924095046,10.583209849463246,-1.1203547921774684,41.55999999999767
312797.9047,-0.3834170095227048,6.199609226945642,10.318615733144341,-0.30466061786272747,41.56099999998696
312797.9057,-0.6666077413077994,6.763029806478348,9.521103239748282,0.23340847367771805,41.56199999997625
312797.9067,-1.489442687217008,7.029687159978642,8.187013758244989,0.44827262349936947,41.56299999996554
312797.9077,-2.8565709564686457,6.973325752949402,6.338489383544402,0.31364309002204227,41.56399999995483
312797.9087,-4.738888171135696,6.587186694488318,4.024885398696592,-0.17443368739900889,41.56500000000233
312797.9097,-7.073393935224163,5.885362911495437,1.3223438016636524,-0.9962193783063363,41.56599999999162
312797.9107,-9.765388562885141,4.902525812059675,-1.6686133135206023,-2.108798800562529,41.56699999998091
312797.9117,-12.692981082945058,3.6919966104722097,-4.8274401569828616,-3.4484856208225163,41.5679999999702
312797.9127,-15.713687355898523,2.3222837542306114,-8.019665710371525,-4.934967194295118,41.56899999995949
312797.9137,-18.67271577541627,0.8723473045774596,-11.104360296024636,-6.476877701834812,41.56999999994878
312797.9147,-21.412385328120692,-0.5740315512874224,-13.942457366154155,-7.978355688321946,41.570999999996275
312797.9157,-23.782011289978634,-1.9343136715228866,-16.40532003370253,-9.346048099682264,41.571999999985565
312797.9167,-25.647538356283047,-3.1331930919484936,-18.382895929229473,-10.495977122604213,41.572999999974854
312797.9177,-26.900205543347006,-4.108014588003885,-19.790815322189093,-11.359693198983598,41.573999999964144
312797.9187,-27.46359233880295,-4.813164994938007,-20.575856396164113,-11.889197175102305,41.574999999953434
312797.9197,-27.298516336962134,-5.223075746972346,-20.71932298567532,-12.060221331197965,41.57600000000093
312797.9207,-26.405418858600132,-5.333597171992491,-20.238043816294304,-11.873603206699759,41.57699999999022
312797.9217,-24.824072469835638,-5.16164962400613,-19.18289407629858,-11.354654311454908,41.57799999997951
312797.9227,-22.630655617827877,-4.74320902811016,-17.634942926595237,-10.550602325979089,41.5789999999688
312797.9237,-19.93244622120432,-4.12983057888683,-15.699526068887778,-9.526353788978653,41.57999999995809
312797.9247,-16.860569854333903,-3.3840405257673676,-13.498713015544656,-8.358968887474036,41.58099999994738
312797.9257,-13.561383148652325,-2.5740204941918554,-11.162768736580782,-7.131347444335145,41.58199999999488
312797.9267,-10.187166840024297,-1.7680629977483997,-8.821287104875735,-5.925685764371958,41.58299999998417
312797.9277,-6.88683794111314,-1.02928596228463,-6.5946920643294105,-4.817272393769134,41.58399999997346
312797.9287,-3.797364700431608,-0.4110578216398751,-4.586760257189089,-3.8691468148529293,41.58499999996275
312797.9297,-1.0364848319795004,0.046492966788841156,-2.8787201589814866,-3.1280533911795034,41.58599999995204
312797.9307,1.3028043034546604,0.3186213675483616,-1.5253370103746107,-2.6219927674768706,41.586999999999534
312797.9317,3.155682237775791,0.39663320712298344,-0.5532137571588382,-2.359517279205167,41.587999999988824
312797.9327,4.48675411762812,0.28709056054270055,0.038657436467279385,-2.3307509252485468,41.588999999978114
312797.9337,5.289185717219004,0.009707296374153124,0.2762526099542802,-2.5099541276926973,41.589999999967404
312797.9347,5.581972009802868,-0.40579273762408996,0.206116582560664,-2.8593141428365865,41.59099999995669
312797.9357,5.405728783565279,-0.9234915619559859,-0.11031949904390084,-3.3335366904738635,41.59199999994598
312797.9367,4.8174959462746605,-1.5053506419922495,-0.6031375534022356,-3.8847527662369243,41.59299999999348
312797.9377,3.88508958736317,-2.115115414522358,-1.2004454136067064,-4.467241955949441,41.59399999998277
312797.9387,2.6815349799218593,-2.7216564167074684,-1.834419336097936,-5.041510295278813,41.59499999997206
312797.9397,1.2800571807966543,-3.3014241697358795,-2.4463658528991856,-5.577342378741341,41.59599999996135
312797.9407,-0.24999272104382889,-3.839797861045349,-2.9904115358404946,-6.055565212842554,41.59699999995064
312797.9417,-1.8460277534813347,-4.331231418490511,-3.435580914323066,-6.46840295045155,41.59799999999814
312797.9427,-3.4538308258918593,-4.77823206402,-3.7661916973474967,-6.8184526232786755,41.59899999998743
312797.9437,-5.027923839575871,-5.1893324489110215,-3.980665666563438,-7.116456005464463,41.59999999997672
312797.9447,-6.530882259716298,-5.576325206092876,-4.089006501817542,-7.378167224049078,41.60099999996601
312797.9457,-7.931883883910964,-5.951107298328243,-4.109317676675031,-7.620707281524775,41.6019999999553
312797.9467,-9.204848932235173,-6.3225229562826994,-4.063813072827679,-7.858846259317794,41.602999999944586
312797.9477,-10.326552477505672,-6.69359410600072,-3.974803188849213,-8.10165688210188,41.603999999992084
312797.9487,-11.275068148955016,-7.05948596793383,-3.8611188904147635,-8.349939313759958,41.60499999998137
312797.9497,-12.028837378906319,-7.406477126031099,-3.7353658650784434,-8.59473120410424,41.60599999997066
312797.9507,-12.566559110959318,-7.7120957310604785,-3.6022943801643468,-8.817098014629238,41.60699999995995
312797.9517,-12.867972383105661,-7.94645750972969,-3.4584325871397468,-8.989258755425023,41.60799999994924
312797.9527,-12.915472503531614,-8.074709692897969,-3.2929821348541175,-9.076955804980157,41.60899999999674
312797.9537,-12.696375588438341,-8.060361278918213,-3.089828094145923,-9.042839478672063,41.60999999998603
312797.9547,-12.20554039031991,-7.869176941406613,-2.8303865886699118,-8.850522661387595,41.61099999997532
312797.9557,-11.4479829023287,-7.473240140347056,-2.4969165406594285,-8.468880094290093,41.61199999996461
312797.9567,-10.441087116894135,-6.854758325963214,-2.0758667387145238,-7.876129348154634,41.6129999999539
312797.9577,-9.216029181706835,-6.009193436090973,-1.5608218607062672,-7.063240383615721,41.6140000000014
312797.9587,-7.818091854038945,-4.947353842708381,-0.9546520756298023,-6.036277425215239,41.61499999999069
312797.9597,-6.305646574652818,-3.6961749276189293,-0.2705563321289655,-4.817375492666371,41.61599999997998
312797.9607,-4.747712235560793,-2.298036163577717,0.46818927091833296,-3.4441849523206782,41.616999999969266
312797.9617,-3.2201498681266245,-0.8086015143987821,1.2298220035047742,-1.9677681676564367,41.617999999958556
312797.9627,-1.8007058459984238,0.7066862271994262,1.9769129078133132,-0.4490879413721748,41.618999999947846
312797.9637,-0.5632568406508327,2.1771918970379667,2.67016281209363,1.0456274953026572,41.61999999999534
312797.9647,0.4282774226578313,3.5323777659394753,3.2727976181340313,2.4502382612390257,41.62099999998463
312797.9657,1.1258153289503734,4.707340829332738,3.75510103075442,3.7042781650908934,41.62199999997392
312797.9667,1.5022275817508786,5.648105200939883,4.098583820671745,4.758248017299625,41.62299999996321
312797.9677,1.5551550034936317,6.316186801451755,4.299301335458812,5.578107382171493,41.6239999999525
312797.9687,1.3090850894670718,6.692002947992072,4.369895405642022,6.148519128731707,41.625
312797.9697,0.815374192092037,6.776796040099692,4.340047870964522,6.474509369630963,41.62599999998929
312797.9707,0.1500701599597058,6.59286961789473,4.255180671995012,6.581348054179362,41.62699999997858
312797.9717,-0.590420266122302,6.182084749534763,4.173407895901002,6.512619242120202,41.62799999996787
312797.9727,-1.295581181603732,5.602721025026328,4.160921830040912,6.326619375311844,41.62899999995716
312797.9737,-1.8485361711489612,4.92495469129513,4.286160486039754,6.091380442450426,41.62999999994645
312797.9747,-2.134728571437405,4.225332635355477,4.6132414856808985,5.878747445832509,41.630999999993946
312797.9757,-2.050862603442067,3.580713015971516,5.195242349697244,5.758033071105192,41.631999999983236
312797.9767,-1.5133876540028688,3.062192560651887,6.06794968037235,5.789817644093394,41.632999999972526
312797.9777,-0.4658231491397263,2.729542136358415,7.244684018181653,6.0204546427067145,41.633999999961816
312797.9787,1.115701223175501,2.626625939796782,8.712733384325672,6.477781603962515,41.634999999951106
312797.9797,3.2191814805823045,2.7781898577805393,10.43180242031519,7.16842867898885,41.6359999999986
312797.9807,5.796064032318964,3.188279682335904,12.334716456271131,8.07697235283266,41.63699999998789
312797.9817,8.763262703457572,3.8404017209277197,14.330425760610883,9.167013573473332,41.63799999997718
312797.9827,12.00775125516965,4.699380904638123,16.309152337427193,10.384083628790696,41.63899999996647
312797.9837,15.393402115981129,5.7147195941276365,18.14932866435885,11.660114225888957,41.63999999995576
312797.9847,18.76955658562161,6.825128152757929,19.725812661603452,12.919066154587606,41.64099999994505
312797.9857,21.98066988872379,7.96379827374893,20.91874143050172,14.083207051126,41.64199999999255
312797.9867,24.87628876196438,9.063931149217746,21.62231941862243,15.07947282405615,41.64299999998184
312797.9877,27.320597228347957,10.064019983743284,21.752831126249507,15.845344346781475,41.64399999997113
312797.9887,29.20080947495036,10.91242073988698,21.255225076197352,16.33372105147441,41.64499999996042
312797.9897,30.433792957747176,11.570822511112178,20.10772960963168,16.516371001716944,41.64599999994971
312797.9907,30.970460127439452,12.016341609634882,18.32412198141654,16.385673254961322,41.646999999997206
312797.9917,30.797659058208456,12.242100106438306,15.95346576545259,15.954529642921852,41.647999999986496
312797.9927,29.93750415658649,12.256296770569389,13.077340381909767,15.254494002268308,41.648999999975786
312797.9937,28.444298939246195,12.079921871738478,9.804791970467301,14.332331103014345,41.649999999965075
312797.9947,26.399394829269422,11.743393409249563,6.265418644397451,13.245359559004331,41.650999999954365
312797.9957,23.90448633395533,11.282489132787893,2.601149277506148,12.056039639530024,41.65200000000186
312797.9967,21.073950731213735,10.734007319944078,-1.0426291047234397,10.826328417916988,41.65299999999115
312797.9977,18.026891155760726,10.13160456394484,-4.52590233256985,9.612335781427053,41.65399999998044
312797.9987,14.879532831122212,9.502229946589363,-7.722147983420539,8.459775047583875,41.65499999996973
312797.9997,11.738555833392725,8.863505359101936,-10.525151404082504,7.400615713202109,41.65599999995902
312798.0007,8.695832129047083,8.222298735258429,-12.85405683512145,6.451222032005933,41.65699999994831
312798.0017,5.824882016398522,7.574611090789686,-14.656356628846869,5.612112019331668,41.65799999999581
312798.0027,3.1791909659224147,6.906762154723974,-15.908707093497789,4.869311767337211,41.6589999999851
312798.0037,0.792349255517987,6.197726543790988,-16.615648188861936,4.197125152084484,41.65999999997439
312798.0047,-1.3201892498270562,5.42235594175451,-16.806478833516586,3.5620040379466023,41.66099999996368
312798.0057,-3.158070958992274,4.555133965190617,-16.530684338487468,2.927101798698262,41.66199999995297
312798.0067,-4.73216879675465,3.5740578858573118,-15.852414969444226,2.257032964221581,41.663000000000466
312798.0077,-6.060360286961389,2.4642300751625474,-14.844566641316483,1.522349467649503,41.663999999989755
312798.0087,-7.1634452707135665,1.2207727905869918,-13.583013026869793,0.7032800264002901,41.664999999979045
312798.0097,-8.061639970764402,-0.14925055909806217,-12.1414848798936,-0.20764036836536356,41.665999999968335
312798.0107,-8.771990415344273,-1.6261233558386967,-10.587494024578849,-1.2043073750081656,41.666999999957625
312798.0117,-9.306922799055396,-3.1780659650146794,-8.979567309423587,-2.267266382416708,41.667999999946915
312798.0127,-9.674004994924,-4.763089386913402,-7.365903958834964,-3.3653785368663716,41.66899999999441
312798.0137,-9.876847462889122,-6.331945681856493,-5.7844138740996875,-4.4587523628055115,41.6699999999837
312798.0147,-9.91693851088214,-7.831897234734351,-4.26395027328251,-5.502632730913658,41.67099999997299
312798.0157,-9.796101972826888,-9.210943337924322,-2.8264318442176077,-6.451843722518137,41.67199999996228
312798.0167,-9.519195666018675,-10.422094900704543,-1.4894686520141271,-7.265327673726722,41.67299999995157
312798.0177,-9.096643292968745,-11.427281020003717,-0.269069753062868,-7.9103145109754704,41.67399999999907
312798.0187,-8.546412949703537,-12.20050532755922,0.8179784740051737,-8.365693985011388,41.67499999998836
312798.0197,-7.8951194800336015,-12.729942036120306,1.7524180285269602,-8.624244525203581,41.67599999997765
312798.0207,-7.178028460992028,-13.018764280658534,2.511769104982765,-8.69348792031767,41.67699999996694
312798.0217,-6.437865762585808,-13.084620508138297,3.0706616599166794,-8.595077263627852,41.67799999995623
312798.0227,-5.722474924763998,-12.95780612332292,3.4022495043697636,-8.36277274800221,41.67899999994552
312798.0237,-5.081500338970652,-12.678304364844987,3.4805711979447116,-8.039201296967311,41.679999999993015
312798.0247,-4.562392993258208,-12.291979973916833,3.2836005014543095,-7.671717631656214,41.680999999982305
312798.0257,-4.206124672716229,-11.846290864149342,2.796635600126643,-7.307774176125153,41.681999999971595
312798.0267,-4.0430463755197055,-11.385928730529828,2.0156207836466105,-6.990256369511012,41.682999999960884
312798.0277,-4.089331700519985,-10.948804944031622,0.9499828446434082,-6.753243720546554,41.683999999950174
312798.0287,-4.344405058887105,-10.562762754663426,-0.3754013574366004,-6.618615065354071,41.68499999999767
312798.0297,-4.789671416899444,-10.24332437930086,-1.919413133383485,-6.59383325661956,41.68599999998696
312798.0307,-5.388746857306145,-9.992679239191247,-3.625271574636782,-6.671128288466748,41.68699999997625
312798.0317,-6.089249025975668,-9.799997610828303,-5.422545115700357,-6.82816025268596,41.68799999996554
312798.0327,-6.826057332816213,-9.643024339119584,-7.230510719170069,-7.030098211176978,41.68899999995483
312798.0337,-7.525809389690355,-9.490782810382962,-8.9626363140618,-7.232912453105695,41.69000000000233
312798.0347,-8.112276868136513,-9.30711230819741,-10.53184133435839,-7.387559365906254,41.69099999999162
312798.0357,-8.512173085793092,-9.054682624389212,-11.856101218907575,-7.444651904154933,41.69199999998091
312798.0367,-8.660895362845814,-8.699086027579629,-12.863913972870854,-7.359162800165118,41.6929999999702
312798.0377,-8.507702643507955,-8.212602527320989,-13.499145707198243,-7.094706609585126,41.69399999995949
312798.0387,-8.019873601242008,-7.577270014549691,-13.72481818908696,-6.6269903650660815,41.69499999994878
312798.0397,-7.185478373659037,-6.786962586173825,-13.525490852205065,-5.946106540642957,41.695999999996275
312798.0407,-6.014519925974747,-5.848280911081471,-12.908014081709787,-5.05745776538529,41.696999999985565
312798.0417,-4.538347145165302,-4.780177796310937,-11.900578018416258,-3.981238707212347,41.697999999974854
312798.0427,-2.8073971889737446,-3.612368289359192,-10.550137357112499,-2.7505432492135387,41.698999999964144
312798.0437,-0.8874745233094656,-2.382694197995442,-8.91844241397116,-1.4083003443004782,41.699999999953434
312798.0447,1.1450958132649682,-1.1337159143180242,-7.077035411444065,-0.0033563677420175393,41.70100000000093
312798.0457,3.209005246287854,0.09112024598351415,-5.101665776540516,1.4138959188222575,41.70199999999022
312798.0467,5.223697019507909,1.2513507177557617,-3.066629836510051,2.7958996413327144,41.70299999997951
312798.0477,7.1147980275161355,2.313009610255138,-1.0395434089297957,4.1018875225042155,41.7039999999688
312798.0487,8.818782810766253,3.2514378406757074,0.9229900393835471,5.301013687824445,41.70499999995809
312798.0497,10.286486434825823,4.053107366186462,2.778443386042758,6.374356170240976,41.70599999994738
312798.0507,11.485199461286797,4.716282245574335,4.499915916714553,7.315599571764524,41.70699999999488
312798.0517,12.399218663469753,5.250456960276044,6.076073040508596,8.130343470094171,41.70799999998417
312798.0527,13.028877756699291,5.674637146134836,7.509537690492627,8.834123977786453,41.70899999997346
312798.0537,13.388228453098373,6.014646184530561,8.813947096316818,9.449369179095893,41.70999999996275
312798.0547,13.501669348475017,6.299741139477006,10.010018522381097,10.001620584597063,41.71099999995204
312798.0557,13.39991611578781,6.558893251223962,11.121062890868728,10.515430971185385,41.711999999999534
312798.0567,13.115761923129707,6.8171243298249795,12.168436510230634,11.010385969164039,41.712999999988824
312798.0577,12.68008663532066,7.092287161981243,13.167423292100576,11.497688521763637,41.713999999978114
312798.0587,12.118536459614997,7.392635569182364,14.123992593268264,11.977692343002861,41.714999999967404
312798.0597,11.449216143887208,7.715452046121897,15.032785776723323,12.43867764819207,41.71599999995669
312798.0607,10.681621765978244,8.046895490532771,15.8765567998241,12.857038624502222,41.71699999994598
312798.0617,9.816905156256176,8.363108720297184,16.62714122317271,13.198909378515898,41.71799999999348
312798.0627,8.849414976675675,8.632497354356232,17.247868937940737,13.423107446484842,41.71899999998277
312798.0637,7.769319283113714,8.81897090238909,17.69718445013138,13.485135991903219,41.71999999997206
312798.0647,6.565994333102156,8.885835607131428,17.933109874415916,13.34187133134121,41.72099999996135
312798.0657,5.231776813942103,8.799956917092535,17.91809284195959,12.956483027966442,41.72199999995064
312798.0667,3.7656306962787376,8.535774789396076,17.62373382239285,12.303097741082746,41.72299999999814
312798.0677,2.1762805688048106,8.078761097052853,17.03488999608397,11.370729417376836,41.72399999998743
312798.0687,0.4844109234769902,7.427955030967648,16.152705951468242,10.166056753004364,41.72499999997672
312798.0697,-1.2763789433692754,6.597295359437378,14.996220309691159,8.71472906012731,41.72599999996601
312798.0707,-3.060050666787159,5.6155799702426465,13.602332551520858,7.061014535327595,41.7269999999553
312798.0717,-4.810073642326315,4.525012668998155,12.024072857803805,5.265758002360463,41.727999999944586
312798.0727,-6.4627303483995275,3.3784323258174362,10.327284307395606,3.4027739840910614,41.728999999992084
312798.0737,-7.951522556514107,2.235447125501662,8.585985043005492,1.553950283907219,41.72999999998137
312798.0747,-9.21229852050394,1.1578045164861426,6.876812441721584,-0.19653723489755417,41.73099999997066
312798.0757,-10.18863416515211,0.20440496362263005,5.2730485500524775,-1.7684084580550972,41.73199999995995
312798.0767,-10.836958613671682,-0.573592832912636,3.8387762238084653,-3.091326451278944,41.73299999994924
312798.0777,-11.130920961825,-1.1371299797406018,2.623713210524874,-4.110278123302819,41.73399999999674
312798.0787,-11.064551084051732,-1.462667730748081,1.6592165265332721,-4.789811509288552,41.73499999998603
312798.0797,-10.65386767470308,-1.544351346700966,0.9558467082742222,-5.116751233816437,41.73599999997532
312798.0807,-9.936722531580166,-1.394711070871156,0.5027403121965668,-5.101147237005065,41.73699999996461
312798.0817,-8.970828615545377,-1.0438258115601102,0.26887262203255546,-4.775368314926905,41.7379999999539
312798.0827,-7.830085712957248,-0.5370142841540793,0.20611662963816568,-4.191416838970596,41.7390000000014
312798.0837,-6.5994757808748234,0.06874843271251319,0.25383572505880936,-3.4166987871546763,41.73999999999069
312798.0847,-5.36893513753388,0.7093762732802297,0.3446022996274076,-2.52861922865472,41.74099999997998
312798.0857,-4.226709578002746,1.318781398760118,0.4105266098913343,-1.6084750159508623,41.741999999969266
312798.0867,-3.2527516444034257,1.8341009118875065,0.3896202329630215,-0.7351743050146442,41.742999999958556
312798.0877,-2.5127213796394146,2.2005880568624097,0.231612193735168,0.020678539705287755,41.743999999947846
312798.0887,-2.053102495794676,2.37575016579717,-0.09731583113802189,0.6018346201421604,41.74499999999534
312798.0897,-1.897849430350514,2.33238922624234,-0.611310334538515,0.9681765392823414,41.74599999998463
312798.0907,-2.0468461487445047,2.060305635172334,-1.3034384748896473,1.0989292421377757,41.74699999997392
312798.0917,-2.476297305618855,1.5665512809986266,-2.146220620841085,0.9931637286679662,41.74799999996321
312798.0927,-3.1410014546709237,0.8742524251093176,-3.094052028805531,0.6686100753603843,41.7489999999525
312798.0937,-3.9782903602225934,0.020153044723622116,-4.087288398198882,0.1589501955676079,41.75
312798.0947,-4.9132735600184505,-0.9488570555763779,-5.0576171526012805,-0.49010421278276006,41.75099999998929
312798.0957,-5.8649166176107315,-1.979878670278191,-5.934219275123361,-1.2255396960619904,41.75199999997858
312798.0967,-6.752415168411978,-3.018402324746099,-6.650156369584326,-1.9921039533473222,41.75299999996787
312798.0977,-7.5013108402337725,-4.012556875215302,-7.148400806544945,-2.73721681502559,41.75399999995716
312798.0987,-8.048830531987257,-4.916823229234599,-7.386964696528923,-3.4152741541265184,41.75499999994645
312798.0997,-8.348013554992596,-5.69489461078352,-7.34267210842038,-3.990964834620829,41.755999999993946
312798.1007,-8.3703134221415,-6.32146041681688,-7.013249645904128,-4.441331544976491,41.756999999983236
312798.1017,-8.106510521464255,-6.782806243348379,-6.417570427332958,-4.756441109614029,41.757999999972526
312798.1027,-7.565933895700594,-7.076246249005883,-5.59406014773315,-4.938674838678317,41.758999999961816
312798.1037,-6.774149119359203,-7.208523105288952,-4.5974444658182145,-5.000790001059527,41.759999999951106
312798.1047,-5.769409502693809,-7.193413335292313,-3.494168091500086,-4.963025500968113,41.7609999999986
312798.1057,-4.59827617341027,-7.048851600415281,-2.356933292953974,-4.849616207454604,41.76199999998789
312798.1067,-3.3108788456912555,-6.79392897554933,-1.2588781400997704,-4.685132224016919,41.76299999997718
312798.1077,-1.9563073572980851,-6.4461235074812935,-0.26793615443373703,-4.491066856933664,41.76399999996647
312798.1087,-0.5785931962120507,-6.019086351697176,0.5581122837967024,-4.2830598467288254,41.76499999995576
312798.1097,0.7863360275904105,-5.521237419436639,1.1754666554584006,-4.069064810553179,41.76599999994505
312798.1107,2.1124596897370975,-4.955328145335943,1.556701648680095,-3.8486601410352668,41.76699999999255
312798.1117,3.384094235669315,-4.319015871266036,1.6915701794757931,-3.613572390611127,41.76799999998184
312798.1127,4.594969646944278,-3.606376324146859,1.5862145206983393,-3.3493440649429993,41.76899999997113
312798.1137,5.746117573776605,-2.810170152399565,1.2609439602504846,-3.0379480522011852,41.76999999996042
312798.1147,6.842863412252658,-1.9245881437093542,0.7468762453706574,-2.661042151012011,41.77099999994971
312798.1157,7.8913099290336906,-0.9481373167695636,0.0818460505249573,-2.2034807162191097,41.771999999997206
312798.1167,8.894754131471773,0.11369661399657689,-0.6939534676261627,-1.656664421740711,41.772999999986496
312798.1177,9.850486547089401,1.2463626503688756,-1.5421161773292285,-1.0213175458683275,41.773999999975786
312798.1187,10.747382193977355,2.4250355971232733,-2.4295118419062,-0.3093345096868888,41.774999999965075
312798.1197,11.564609313907015,3.6145026130216804,-3.3307565952012963,0.4555713295799281,41.775999999954365
312798.1207,12.271663759602106,4.770253544962186,-4.229422232354948,1.2385623654158824,41.77700000000186
312798.1217,12.829795641044,5.840759193356068,-5.117885042655879,1.995721441063468,41.77799999999115
312798.1227,13.194744645313271,6.770795157051606,-5.995868050503003,2.67730990932205,41.77899999998044
312798.1237,13.320556494264475,7.50555284316529,-6.867877424703223,3.2319697243617354,41.77999999996973
312798.1247,13.164129892118961,7.995185500529439,-7.739859252828405,3.611491643864531,41.78099999995902
312798.1257,12.690053657404869,8.19937559780858,-8.61549382525404,3.7756984314547997,41.78199999994831
312798.1267,11.875246921369982,8.091487337745125,-9.492591489674709,3.6969620962555254,41.78299999999581
312798.1277,10.712916538733678,7.661887665782469,-10.360051923481608,3.363891425137915,41.7839999999851
312798.1287,9.215395732969533,6.920079812603389,-11.195797191606259,2.783789498029105,41.78499999997439
312798.1297,7.4155222483245415,5.895390206309663,-11.96599305980203,1.9835851262137458,41.78599999996368
312798.1307,5.366344271503357,4.636073925226987,-12.625742082259048,1.0090777604457346,41.78699999995297
312798.1317,3.139095900270366,3.2068443752454305,-13.121278940952111,-0.07751024726795021,41.788000000000466
312798.1327,0.8195463361864307,1.684976485429134,-13.393538668319213,-1.2015216739313712,41.788999999989755
312798.1337,-1.4970173880071451,0.155265863226655,-13.382817835293267,-2.281092957124812,41.789999999979045
312798.1347,-3.7117806208655044,-1.2957637042269952,-13.034122855148391,-3.2332013088594813,41.790999999968335
312798.1357,-5.728872096519652,-2.5859359662826056,-12.302711262931496,-3.980023667531582,41.791999999957625
312798.1367,-7.46176995445331,-3.6432781559813376,-11.15929060740809,-4.45506176326138,41.792999999946915
312798.1377,-8.839094009233007,-4.411164897193373,-9.594350322438611,-4.608498677550465,41.79399999999441
312798.1387,-9.809283964294865,-4.852313319303993,-7.621164467200324,-4.411312975217524,41.7949999999837
312798.1397,-10.343759035795184,-4.951288273540135,-5.277112321142369,-3.857781561552203,41.79599999997299
312798.1407,-10.43828882085848,-4.715303845688805,-2.623109689999977,-2.966142409551736,41.79699999996228
312798.1417,-10.112465726915312,-4.173254821933026,0.25888703917529643,-1.7773503824503831,41.79799999995157
312798.1427,-9.407340806987749,-3.373065943886673,3.2701654171131813,-0.3520285547724768,41.79899999999907
312798.1437,-8.381451201229606,-2.3775935470731557,6.301023994299276,1.2341220265204678,41.79999999998836
312798.1447,-7.105612751206027,-1.2594400064458129,9.237573861232239,2.8960542935842937,41.80099999997765
312798.1457,-5.656961835406777,-0.09513470573465187,11.96902368822878,4.5457485262739175,41.80199999996694
312798.1467,-4.112795440258529,1.0408126094886951,14.394843721602438,6.098672284713637,41.80299999995623
312798.1477,-2.54477159523293,2.081474048488799,16.431205641149603,7.479768526612978,41.80399999994552
312798.1487,-1.013992153004929,2.97220962542416,18.016152164242968,8.628461382511036,41.804999999993015
312798.1497,0.43259983891574777,3.674128428054365,19.113058076465347,9.502263802018838,41.805999999982305
312798.1507,1.7642068119615617,4.166034157496727,19.712093420461688,10.07870399368716,41.806999999971595
312798.1517,2.9664056411480644,4.444726176166905,19.829576345594152,10.35544574854725,41.807999999960884
312798.1527,4.039650232777478,4.523679739934662,19.50529133438759,10.348646433013371,41.808999999950174
312798.1537,4.99624900061493,4.430278024394249,18.798030675622353,10.089759723510863,41.80999999999767
312798.1547,5.856168842024321,4.201899967699808,17.77977606645402,9.621132600420745,41.81099999998696
312798.1557,6.642133327089898,3.8812695830382795,16.529058059817746,8.99085426636046,41.81199999997625
312798.1567,7.374553213155739,3.511534800710877,15.124102184697914,8.247378313425635,41.81299999996554
312798.1577,8.066844968099685,3.131561362094785,13.63638503797783,7.434452696288789,41.81399999995483
312798.1587,8.72165565966249,2.771898358297255,12.12517988980282,6.586853765152176,41.81500000000233
312798.1597,9.328423581615057,2.451799659014563,10.633573301904503,5.727334617150724,41.81599999999162
312798.1607,9.862571617532879,2.1775768312086727,9.186291071779628,4.865072771496285,41.81699999998091
312798.1617,10.286467151435408,1.9424247916235895,7.789496989472875,3.995749884456588,41.8179999999702
312798.1627,10.552103988084221,1.727714417460944,6.43253802743758,3.1032317296124514,41.81899999995949
312798.1637,10.60528552068554,1.5056009037546583,5.091422791501645,2.1626559906652254,41.81999999994878
312798.1647,10.39093149990141,1.2426668796739873,3.733654229152065,1.144594189510104,41.820999999996275
312798.1657,9.859008702275638,0.9042177197252045,2.3239086464456085,0.01984604927571239,41.821999999985565
312798.1667,8.97051080075723,0.4587828981689222,0.8299734383043896,-1.2356397143247813,41.822999999974854
312798.1677,7.702892567579788,-0.11764227951711656,-0.7716667348374537,-2.636238514114891,41.823999999964144
312798.1687,6.054400697164054,-0.8380538874129887,-2.4911691095319344,-4.183000243714004,41.824999999953434
312798.1697,4.04683499917373,-1.701965324450293,-4.32207901740275,-5.861275424623649,41.82600000000093
312798.1707,1.726411188052649,-2.694265965622099,-6.239826053793673,-7.6398915001938725,41.82699999999022
312798.1717,-0.8374327901648874,-3.78554479004453,-8.202141176823764,-9.472002078619767,41.82799999997951
312798.1727,-3.5552570359501536,-4.933866596323274,-10.151377179084186,-11.297567812865793,41.8289999999688
312798.1737,-6.322649352781226,-6.0878449524968135,-12.018528171198968,-13.047266910980134,41.82999999995809
312798.1747,-9.026677987944678,-7.190727770531566,-13.728576691089124,-14.647491629194585,41.83099999994738
312798.1757,-11.553246439061681,-8.18511083557755,-15.206665917516874,-16.0259782730611,41.83199999999488
312798.1767,-13.794741714667541,-9.01783151767857,-16.384511823588415,-17.117552771832084,41.83299999998417
312798.1777,-15.657335286629044,-9.644575333304626,-17.20644383679371,-17.869458127772354,41.83399999997346
312798.1787,-17.067322312550967,-10.033753836411968,-17.63449509237645,-18.245765480034606,41.83499999996275
312798.1797,-17.975967048453427,-10.169280917755943,-17.65205141564104,-18.230453713514414,41.83599999995204
312798.1807,-18.36245294850627,-10.05197924319396,-17.265703150114735,-17.828865436579203,41.836999999999534
312798.1817,-18.234702478121637,-9.699479055859229,-16.505112785551084,-17.067397891917615,41.837999999988824
312798.1827,-17.62801854599615,-9.144615220106873,-15.420897757437958,-15.991451450376339,41.838999999978114
312798.1837,-16.601689267335075,-8.432471281268805,-14.08071389752952,-14.66182003104979,41.839999999967404
312798.1847,-15.233872930283237,-7.616347660217946,-12.56389303700309,-13.14985164146611,41.84099999995669
312798.1857,-13.615224496142492,-6.753032559541486,-10.955122247954863,-11.531819564341774,41.84199999994598
312798.1867,-11.84182570222679,-5.897819041510475,-9.337739551299364,-9.883014943610796,41.84299999999348
312798.1877,-10.008029085126605,-5.09973393775151,-7.787253558525078,-8.272093148612292,41.84399999998277
312798.1887,-8.199818280697981,-4.397421813721087,-6.365669682581133,-6.756177531109255,41.84499999997206
312798.1897,-6.489224418488057,-3.816062513254531,-5.117126008443705,-5.377148099299065,41.84599999996135
312798.1907,-4.930228087177782,-3.365600302908296,-4.065215642356585,-4.159426814689932,41.84699999995064
312798.1917,-3.5564294117819895,-3.040436205983391,-3.212211767164095,-3.1094270457876885,41.84799999999814
312798.1927,-2.380599762944072,-2.820595095509648,-2.5402323177540582,-2.216676214186119,41.84899999998743
312798.1937,-1.3960538869151273,-2.674239072779673,-2.01420041352207,-1.4564631489886486,41.84999999997672
312798.1947,-0.57961743459576,-2.5612720684517942,-1.5862916805303042,-0.7937202154326037,41.85099999996601
312798.1957,0.10417273639917132,-2.437679537917308,-1.2014259141148833,-0.18773831797493284,41.8519999999553
312798.1967,0.6980970310007323,-2.2601810853985143,-0.8032705487315962,0.40275915276970126,41.852999999944586
312798.1977,1.2470236194675721,-1.9907488763223782,-0.34018515349340833,1.0146829601499103,41.853999999992084
312798.1987,1.7929349646447115,-1.600562794090336,0.22944737258351572,1.6762620050097579,41.85499999998137
312798.1997,2.370675331409689,-1.073032291796428,0.9329884055961524,2.4037530161971308,41.85599999997066
312798.2007,3.0047914833128346,-0.40560867571408027,1.78078165691712,3.199477449602042,41.85699999995995
312798.2017,3.7077124938801695,0.3897692735694539,2.7650860817475222,4.051352575229896,41.85799999994924
312798.2027,4.4793680886161455,1.287620654062821,3.860762034329947,4.93393493819164,41.85899999999674
312798.2037,5.308193234131306,2.2511496537110838,5.027600646829824,5.810845960011555,41.85999999998603
312798.2047,6.1733251079330245,3.2355243340698108,6.214031892545551,6.638315870710077,41.86099999997532
312798.2057,7.047681175265324,4.191879373449164,7.361820951533148,7.369476316672747,41.86199999996461
312798.2067,7.901525310541176,5.071650834899081,8.411277114491202,7.958963935536192,41.8629999999539
312798.2077,8.706090451109063,5.830825574934271,9.306462225717624,8.367373200928471,41.8640000000014
312798.2087,9.436834424102571,6.433703360615204,9.999899456185961,8.565118814660883,41.86499999999069
312798.2097,10.075958854841888,6.855824135981408,10.456345847166498,8.535333223742771,41.86599999997998
312798.2107,10.613913381028285,7.085800404936746,10.655296620637847,8.275526573100109,41.866999999969266
312798.2117,11.04972874023643,7.125906403888483,10.592024698177987,7.797864124819479,41.867999999958556
312798.2127,11.390159710273108,6.991400342754729,10.277111239022613,7.12805692116223,41.868999999947846
312798.2137,11.647757774701082,6.708681026420368,9.734576783251141,6.303001057212393,41.86999999999534
312798.2147,11.838119016201334,6.31249320294008,8.998862244586261,5.367425359419003,41.87099999998463
312798.2157,11.976651706764683,5.842485865055861,8.111020553523016,4.369904112867077,41.87199999997392
312798.2167,12.075269675484245,5.339485680445722,7.114552148070277,3.3586511291766072,41.87299999996321
312798.2177,12.139434918641225,4.841868213618601,6.051343718220469,2.37752805686674,41.8739999999525
312798.2187,12.16594374502874,4.382390894034514,4.95814733328866,1.4626719230475491,41.875
312798.2197,12.141777512976928,3.985796010117947,3.863968977699852,0.6400774834809688,41.87599999998929
312798.2207,12.044228809616133,3.667405329588468,2.788628934525069,-0.07563372445329443,41.87699999997858
312798.2217,11.842377762178481,3.4328193497317874,1.7426226671447798,-0.681152981567222,41.87799999996787
312798.2227,11.499844899585622,3.27871495267647,0.7282639234046336,-1.1831657177065387,41.87899999995716
312798.2237,10.978601886524869,3.1946177164570435,-0.25805286242414266,-1.5959416854276802,41.87999999994645
312798.2247,10.243494715450202,3.1654214438442736,-1.2227609808175794,-1.938117640924655,41.880999999993946
312798.2257,9.267039099015841,3.17434831052672,-2.1715871029519094,-2.2290432447213613,41.881999999983236
312798.2267,8.0339953501442,3.205996570275831,-3.106015822257162,-2.4851094031849956,41.882999999972526
312798.2277,6.545226327598232,3.2491138006972764,-4.020202782629988,-2.716483112539085,41.883999999961816
312798.2287,4.820388599036182,3.2987631989304216,-4.898745799844209,-2.9246333416206256,41.884999999951106
312798.2297,2.899100342819118,3.3576154692543865,-5.715638490625334,-3.100952406545619,41.8859999999986
312798.2307,0.8403614591400689,3.436192768608674,-6.434609782339427,-3.2266645865334675,41.88699999998789
312798.2317,-1.2798402773482,3.552004402951886,-7.010907388068254,-3.2740796766945257,41.88799999997718
312798.2327,-3.372633363968778,3.7276349052528377,-7.39442854058804,-3.2091072474988733,41.88899999996647
312798.2337,-5.34180833319772,3.9879613513497776,-7.5339527013832175,-2.9948119149926544,41.88999999995576
312798.2347,-7.090392233193828,4.356776282972209,-7.382103814988934,-2.5956746761684415,41.89099999994505
312798.2357,-8.527729678559208,4.8531650425701445,-6.900577162499221,-1.9821421340699066,41.89199999999255
312798.2367,-9.576484980583322,5.488023997529376,-6.065117840423713,-1.135002901232884,41.89299999998184
312798.2377,-10.178969057291805,6.261104814680051,-4.86973988468552,-0.04913330579310747,41.89399999997113
312798.2387,-10.302238220033804,7.158929301798786,-3.3297277155296685,1.2637970571297183,41.89499999996042
312798.2397,-9.941506071760895,8.153842957738862,-1.483060559269772,2.7739796727267647,41.89599999994971
312798.2407,-9.121546357380698,9.204370454109776,0.60996311500448,4.433678463843132,41.896999999997206
312798.2417,-7.895931376367586,10.256912888081464,2.868962987255441,6.179051373172918,41.897999999986496
312798.2427,-6.344132342874206,11.248696784124743,5.197467299694611,7.933484028630922,41.898999999975786
312798.2437,-4.566688283889503,12.111761201375533,7.488383585855272,9.612193145124623,41.899999999965075
312798.2447,-2.678812284320836,12.777664125031984,9.630535658487478,11.12773425745845,41.900999999954365
312798.2457,-0.8029334141177681,13.182513067040684,11.515747764542613,12.395958479531167,41.90200000000186
312798.2467,0.9392421004769694,13.271885197051173,13.045898494727158,13.341915096472766,41.90299999999115
312798.2477,2.434533396142637,13.005203562602926,14.13936142105371,13.905195738577975,41.90399999998044
312798.2487,3.5853548979147556,12.359178272367457,14.736297506664027,14.044261964821482,41.90499999996973
312798.2497,4.315529916762581,11.330001142222933,14.802361924167386,13.739387049841351,41.90599999995902
312798.2507,4.574441186415201,9.934091825651993,14.330526098018032,12.993966219437501,41.90699999994831
312798.2517,4.339261670231674,8.20732251298934,13.340881687382728,11.834095770915038,41.90799999999581
312798.2527,3.6151777541703822,6.2027845966958814,11.878471276598878,10.306476496754614,41.9089999999851
312798.2537,2.433688550272035,3.9872912290676634,10.009363958064394,8.47484580622855,41.90999999997439
312798.2547,0.8492235465433454,1.6369219434337066,7.815346404554954,6.415271707563506,41.91099999996368
312798.2557,-1.0655481600148586,-0.7680012741046514,5.387717059336854,4.2107381522076945,41.91199999995297
312798.2567,-3.2252518568095256,-3.1480708188859805,2.8207417436382305,1.94550610703602,41.913000000000466
312798.2577,-5.537673917252939,-5.429642603457754,0.20534677922598715,-0.3002568774433599,41.913999999989755
312798.2587,-7.909454925548642,-7.548973537397739,-2.376410760616228,-2.4551243393664195,41.914999999979045
312798.2597,-10.251154800477394,-9.455317904112517,-4.855642993236815,-4.459962831045787,41.915999999968335
312798.2607,-12.481328435546077,-11.112758128470183,-7.179377368203124,-6.27013085775534,41.916999999957625
312798.2617,-14.529373942139186,-12.500670410656696,-9.311582730647256,-7.856206165642555,41.917999999946915
312798.2627,-16.337056506540385,-13.612858400840205,-11.23248028134305,-9.203270288287598,41.91899999999441
312798.2637,-17.85875441369969,-14.455515464532587,-12.93631244051415,-10.308921180837725,41.9199999999837
312798.2647,-19.06060523719045,-15.044285664776387,-14.427891049449435,-11.180307009831939,41.92099999997299
312798.2657,-19.9188363297405,-15.400774684470047,-15.718360752978542,-11.830564709998884,41.92199999996228
312798.2667,-20.417634164875302,-15.548906697114866,-16.82068275983511,-12.275096945955548,41.92299999995157
312798.2677,-20.546935201257043,-15.511527451719816,-17.745361891487615,-12.528125871145273,41.92399999999907
312798.2687,-20.300504653448737,-15.307617384614904,-18.496904410175457,-12.599921335988881,41.92499999998836
312798.2697,-19.674611385285502,-14.950405274008443,-19.07140930758326,-12.495019293680661,41.92599999997765
312798.2707,-18.667513979866456,-14.446570345706458,-19.45557015140375,-12.211631542199138,41.92699999996694
312798.2717,-17.279855399445488,-13.796599275942043,-19.627210871447957,-11.742312370014934,41.92799999995623
312798.2727,-15.51593458686607,-12.996236562816357,-19.55731245618972,-11.07580501070006,41.92899999994552
312798.2737,-13.38569713244269,-12.038845259832616,-19.213325142533783,-10.199855677658709,41.929999999993015
312798.2747,-10.90717772329767,-10.91839246721707,-18.5634186756035,-9.104669260817024,41.930999999982305
312798.2757,-8.109046786396005,-9.632700787963206,-17.581215982381977,-7.786600348505265,41.931999999971595
312798.2767,-5.03287183658684,-8.186570799992731,-16.25049414192835,-6.251634641179501,41.932999999960884
312798.2777,-1.7347059038871602,-6.594384427748824,-14.569327354383862,-4.51822345949399,41.933999999950174
312798.2787,1.7143381286394197,-4.881844794577697,-12.553191065874005,-2.6190877258840652,41.93499999999767
312798.2797,5.228781213848412,-3.0865904984520243,-10.236640534786664,-0.6017027119554652,41.93599999998696
312798.2807,8.710873919745548,-1.2575333878446717,-7.673312005531495,1.472697980780967,41.93699999997625
312798.2817,12.054087513673053,0.5471019984481421,-4.934157254422925,3.5316135923880005,41.93799999996554
312798.2827,15.147845813218494,2.26292482822367,-2.1039966971548747,5.495124217648219,41.93899999995483
312798.2837,17.883203696090405,3.823471479366025,0.7233547049410467,7.280814258812286,41.94000000000233
312798.2847,20.15906137729276,5.1649019911190885,3.450987661459027,8.809370831459006,41.94099999999162
312798.2857,21.888422207110523,6.230881471466799,5.985313973343102,10.010373789640274,41.94199999998091
312798.2867,23.00416520304535,6.977194049979918,8.24242468377758,10.82775626222855,41.9429999999702
312798.2877,23.463816934404488,7.375646013253701,10.153811855693299,11.224426431720252,41.94399999995949
312798.2887,23.25287101716041,7.416867131589226,11.670924465331883,11.185602493653677,41.94499999994878
312798.2897,22.38631267139574,7.111710515157074,12.768130509261189,10.720518247735127,41.945999999996275
312798.2907,20.90815126898377,6.4910734195136,13.443801696296036,9.862297154171456,41.946999999985565
312798.2917,18.888932509751857,5.6041029661483925,13.71941042531595,8.665955000887728,41.947999999974854
312798.2927,16.421378207957954,4.514898448605748,13.63671456513515,7.204660349057923,41.948999999964144
312798.2937,13.614468974235246,3.2979617066609026,13.253285927382557,5.564541612192338,41.949999999953434
312798.2947,10.586427212898434,2.03276552563593,12.636795722760553,3.8384646621341822,41.95100000000093
312798.2957,7.457160824867297,0.7978956253493981,11.858589290349371,2.1193021487785573,41.95199999999022
312798.2967,4.340781350583126,-0.33473394064766865,10.987151195988336,0.49326568280235616,41.95299999997951
312798.2977,1.3388081509000243,-1.305093844682348,10.082073421038194,-0.9661304611408418,41.9539999999688
312798.2987,-1.4653880040210396,-2.069230742070797,9.189092330599339,-2.2029605443039633,41.95499999995809
312798.2997,-4.010458125278933,-2.602076335121796,8.336658626319291,-3.182222663908759,41.95599999994738
312798.3007,-6.258972308751929,-2.898637510382262,7.534358057004892,-3.891348334260192,41.95699999999488
312798.3017,-8.197227384261591,-2.9734767756822897,6.773323179493054,-4.339782548501846,41.95799999998417
312798.3027,-9.83304115893113,-2.8585468243965986,6.028584893510702,-4.556705960761107,41.95899999997346
312798.3037,-11.191792777396309,-2.599591757682185,5.26312520475029,-4.587139134244444,41.95999999996275
312798.3047,-12.311127887265284,-2.2514562819408863,4.433227735112812,-4.486814066982046,41.96099999995204
312798.3057,-13.234867162807133,-1.8727409179079058,3.4945958322673443,-4.31630671371782,41.961999999999534
312798.3067,-14.006725770048948,-1.5202968024828352,2.4086320173762217,-4.1349857639872845,41.962999999988824
312798.3077,-14.664462820765774,-1.2440628551334096,1.1482543887306518,-3.9953418115030237,41.963999999978114
312798.3087,-15.235032514866312,-1.0827101717929433,-0.2973326660739682,-3.9382166179142892,41.964999999967404
312798.3097,-15.731206902525624,-1.0604772665060587,-1.919398405237705,-3.9893589196959707,41.96599999995669
312798.3107,-16.149993643555668,-1.1854631211525595,-3.6883169138722067,-4.157600326813202,41.96699999994598
312798.3117,-16.472994768063284,-1.4495042276644354,-5.554232895055963,-4.434785292003889,41.96799999999348
312798.3127,-16.668661208794735,-1.829610503860536,-7.449732274251971,-4.79741840193381,41.96899999998277
312798.3137,-16.69621109842392,-2.2907876869745576,-9.294297210973303,-5.2098268912141075,41.96999999997206
312798.3147,-16.510815405926543,-2.7899446590909744,-11.000155267011417,-5.628492252408009,41.97099999996135
312798.3157,-16.06952817737021,-3.2804854111650896,-12.478999592038893,-6.007095909690784,41.97199999995064
312798.3167,-15.337362527133298,-3.717126264022386,-13.648973661758252,-6.301760452533014,41.97299999999814
312798.3177,-14.292894838934057,-4.060464881545195,-14.441288153431136,-6.475955714229264,41.97399999998743
312798.3187,-12.932820101544221,-4.280859463384788,-14.805871245817718,-6.504578814051375,41.97499999997672
312798.3197,-11.274976970799095,-4.361250740049698,-14.715543526962584,-6.376804852487115,41.97599999996601
312798.3207,-9.3595028020911,-4.298668354406745,-14.168345947758102,-6.097431301412207,41.9769999999553
312798.3217,-7.247952969923504,-4.104295916280736,-13.187820536092179,-5.6865915685046735,41.977999999944586
312798.3227,-5.020408694523156,-3.802112252035717,-11.8212323605632,-5.177876568110188,41.978999999992084
312798.3237,-2.770785326736847,-3.4262660176792314,-10.135909402175722,-4.6150612611361,41.97999999998137
312798.3247,-0.6007209139768486,-3.0174632609197825,-8.214046634828769,-4.047770518724737,41.98099999997066
312798.3257,1.387442805489322,-2.6187408774773795,-6.14645571875016,-3.526521944674261,41.98199999995995
312798.3267,3.0979902641508366,-2.271054342676451,-4.025829710884592,-3.0976425280382625,41.98299999994924
312798.3277,4.448846852221364,-2.009120551635843,-1.9401251722725286,-2.7985656549517985,41.98399999999674
312798.3287,5.377681140396636,-1.8579252873557006,0.033360530365204526,-2.653974467423467,41.98499999998603
312798.3297,5.846579978221181,-1.8302332955042866,1.832718007490194,-2.6731711453296683,41.98599999997532
312798.3307,5.84491103740299,-1.9253346618860616,3.414587224894416,-2.848928232259984,41.98699999996461
312798.3317,5.390150124286154,-2.129134828119454,4.755536611306702,-3.1579300594524913,41.9879999999539
312798.3327,4.526631342457345,-2.415559915491452,5.851621123165634,-3.562754445038958,41.9890000000014
312798.3337,3.322359793785524,-2.7491176616008763,6.716256559790037,-4.015192857751195,41.98999999999069
312798.3347,1.864191941318125,-3.088340296134423,7.376706114212227,-4.460576183307987,41.99099999997998
312798.3357,0.2518227582213894,-3.389750365200446,7.869600982521016,-4.8426760328595,41.991999999969266
312798.3367,-1.4088906980466886,-3.611942209677378,8.235997746415443,-5.108697699630298,41.992999999958556
312798.3377,-3.0127003296670067,-3.7193651235991725,8.516503676196582,-5.21387558341868,41.993999999947846
312798.3387,-4.461278256240742,-3.685429590069065,8.746974871619418,-5.125225508519034,41.99499999999534
312798.3397,-5.668579732693743,-3.49463162566002,8.95521457783774,-4.8240963426236085,41.99599999998463
312798.3407,-6.564878814216884,-3.143494543063957,9.158978564167017,-4.307286756903651,41.99699999997392
312798.3417,-7.099239629850804,-2.6402516882839033,9.365443921477793,-3.5866394043202616,41.99799999996321
312798.3427,-7.2403454200967445,-2.0033252549794103,9.572132816195884,-2.687179503535852,41.9989999999525
312798.3437,-6.9757682045476646,-1.2587817352228796,9.769120840057278,-1.644012248812218,42.0
312798.3447,-6.309908091590458,-0.4370511634363674,9.942217481974522,-0.498318798895552,42.00099999998929
312798.3457,-5.2609485484615774,0.43072581992526066,10.076698734489597,0.7071187871595778,42.00199999997858
312798.3467,-3.85725125284069,1.3163197915030909,10.161110178493836,1.9323865518204397,42.00299999996787
312798.3477,-2.1336444820663774,2.1976023849283597,10.190649591196099,3.1444263468897176,42.00399999995716
312798.3487,-0.1280402583233404,3.0609472744247412,10.169682320257074,4.3201174251386165,42.00499999994645
312798.3497,2.1212494162876423,3.9025666837519757,10.113035960767851,5.448121056839284,42.005999999993946
312798.3507,4.577230311402246,4.728618225642922,10.04585376809734,6.529285479727787,42.006999999983236
312798.3517,7.204841211599927,5.554045412822215,10.001945108982095,7.575558063282517,42.007999999972526
312798.3527,9.970473400954697,6.400248909888341,10.020739710040125,8.607507570006302,42.008999999961816
312798.3537,12.840541767994207,7.2918110226455966,10.143113029119391,9.650706167543829,42.009999999951106
312798.3547,15.779377838478057,8.252600329160884,10.406485955831933,10.731343600345093,42.0109999999986
312798.3557,18.746807069100317,9.301656069094669,10.839698838271365,11.87153222739292,42.01199999998789
312798.3567,21.695823880231355,10.44928535498065,11.458206981685318,13.084802612163365,42.01299999997718
312798.3577,24.57078242698563,11.693796740742602,12.260136648310077,14.372280609251,42.01399999996647
312798.3587,27.306478080425578,13.019241699022084,13.223677090981518,15.719978920368186,42.01499999995576
312798.3597,29.828408008066837,14.394445825741963,14.306170702935342,17.097534232025687,42.01599999994505
312798.3607,32.054377624917315,15.773492545338803,15.445110414143073,18.4585849701897,42.01699999999255
312798.3617,33.89747523505094,17.097685085308218,16.561075476987885,19.74282747556553,42.01799999998184
312798.3627,35.27028456985002,18.298870690347943,17.562450836894694,20.879625198918294,42.01899999997113
312798.3637,36.090059828684936,19.303878158297117,18.351599399896738,21.792892165991304,42.01999999996042
312798.3647,36.284465353879106,20.039708714214914,18.832007902761543,22.406843400775053,42.02099999994971
312798.3657,35.79739525523637,20.439041861351537,18.915820485842634,22.652113815885304,42.021999999997206
312798.3667,34.59434677086636,20.445579921166356,18.53112025700424,22.471702305065026,42.022999999986496
312798.3677,32.66683015452025,20.018761399841747,17.628323917479815,21.826203986222318,42.023999999975786
312798.3687,30.03535771581752,19.137423748657312,16.18511812704869,20.697850431755207,42.024999999965075
312798.3697,26.75066059471043,17.802085947951472,14.209483333633509,19.09298010475439,42.025999999954365
312798.3707,22.8929246187917,16.035642273129554,11.740510785330821,17.04269953781552,42.02700000000186
312798.3717,18.569003147351513,13.882399234187575,8.846906763224812,14.601657028065173,42.02799999999115
312798.3727,13.907739650782084,11.405534748113086,5.6232773694767495,11.845019548990175,42.02899999998044
312798.3737,9.0536994264122,8.683198204904121,2.184479042528044,8.863904220307507,42.02999999996973
312798.3747,4.159752442297278,5.8035890286362,-1.3415134125755548,5.759652843522254,42.03099999995902
312798.3757,-0.6209458864112389,2.8594384016772514,-4.821643495035793,2.6374387650778797,42.03199999994831
312798.3767,-5.142972368573518,-0.057634135367149696,-8.126062793563138,-0.4002497715753124,42.03299999999581
312798.3777,-9.276045436763143,-2.862414766997599,-11.136007337127486,-3.259701618095425,42.0339999999851
312798.3787,-12.911270816017819,-5.480607339404666,-13.7506389410726,-5.861148930935553,42.03499999997439
312798.3797,-15.965769099016194,-7.852212020959555,-15.89233035752381,-8.142599812183782,42.03599999996368
312798.3807,-18.38537252909359,-9.933533238829803,-17.510019084670688,-10.062060054401517,42.03699999995297
312798.3817,-20.14524737647919,-11.697713927688794,-18.580432419513258,-11.598021517733756,42.038000000000466
312798.3827,-21.248479023559874,-13.133835254103477,-19.10717887190801,-12.74825889075862,42.038999999989755
312798.3837,-21.722832360132625,-14.244756898199089,-19.117890238784888,-13.527134304269966,42.039999999979045
312798.3847,-21.616053940136958,-15.043989487962424,-18.659766778634737,-13.961745304341237,42.040999999968335
312798.3857,-20.990200256594296,-15.551976645999376,-17.794009499241813,-14.087353045561924,42.041999999957625
312798.3867,-19.91554759820086,-15.792211128932072,-16.589706683123314,-13.942584671055249,42.042999999946915
312798.3877,-18.46465690972169,-15.787613373285408,-15.117769286794012,-13.564911499146943,42.04399999999441
312798.3887,-16.707130653940695,-15.557561341608219,-13.445480032097684,-12.986862495892884,42.0449999999837
312798.3897,-14.705511859024957,-15.115882099580098,-11.632137666812197,-12.233345121765034,42.04599999997299
312798.3907,-12.512647159377766,-14.470006118166502,-9.726149940249984,-11.320321972234542,42.04699999996228
312798.3917,-10.17067849617817,-13.621356011217745,-7.763769472074854,-10.254944196479096,42.04799999995157
312798.3927,-7.711657747116437,-12.566905369366886,-5.769491956080255,-9.037086287017333,42.04899999999907
312798.3937,-5.159611613549854,-11.30171427481275,-3.7579634306942675,-7.662077134496282,42.04999999998836
312798.3947,-2.533736885629974,-9.822139014773704,-1.73708968488089,-6.124294179704363,42.05099999997765
312798.3957,0.14770700627603783,-8.129335496795756,0.2880787590931433,-4.421193836941337,42.05199999996694
312798.3967,2.863309598589057,-6.232636863889201,2.311186726380484,-2.5573014480652003,42.05299999995623
312798.3977,5.584743676645504,-4.152389897477247,4.32066178116889,-0.5476828524560432,42.05399999994552
312798.3987,8.273805164504301,-1.9218817929925511,6.296538608011473,1.5795326020980645,42.054999999993015
312798.3997,10.880657095890166,0.4119256475592105,8.20842698166893,3.78191578874948,42.055999999982305
312798.4007,13.34355134941579,2.7890217038323493,10.014904976556148,6.0029992323227,42.056999999971595
312798.4017,15.590149160860722,5.1383650230399285,11.664465007208255,8.174097262404056,42.057999999960884
312798.4027,17.54039600274359,7.381186902140503,13.097972722968764,10.217588006920147,42.058999999950174
312798.4037,19.110744566502365,9.435339719722501,14.252434616551874,12.051410045114793,42.05999999999767
312798.4047,20.219377213359863,11.220339589198208,15.065726007242567,13.594398699921875,42.06099999998696
312798.4057,20.79197034518499,12.662673482607996,15.481821404943927,14.771994270998375,42.06199999997625
312798.4067,20.767478354311873,13.700902531882965,15.456005316816489,15.521806297658355,42.06299999996554
312798.4077,20.103400483260057,14.2900991115903,14.959529975125795,15.798519201875065,42.06399999995483
312798.4087,18.78003147690657,14.405205529770303,13.983228719793592,15.57767561100209,42.06500000000233
312798.4097,16.80328271029006,14.042992310879082,12.539686009543987,14.857969696042842,42.06599999999162
312798.4107,14.205786220028166,13.222415889034506,10.663698446550693,13.66181500380206,42.06699999998091
312798.4117,11.046147601686858,11.983317696500052,8.410922857073363,12.034107013473395,42.0679999999702
312798.4127,7.406380250263172,10.383555780341407,5.85478159898503,10.039265199645742,42.06899999995949
312798.4137,3.3877169010142865,8.49480212501403,3.0818647787844218,7.7567970363989405,42.06999999994878
312798.4147,-0.8948607886114428,6.397360329541756,0.18621722883947545,5.275762058694517,42.070999999996275
312798.4157,-5.3189215779530565,4.17444761857567,-2.736989803743567,2.688614814265012,42.071999999985565
312798.4167,-9.76119064151386,1.906433805622591,-5.5978375422278095,0.08496163094588417,42.072999999974854
312798.4177,-14.103920187096168,-0.3344669386200462,-8.317513698495691,-2.454227804521803,42.073999999964144
312798.4187,-18.240513877753113,-2.4885982464568603,-10.833110947716234,-4.8614576182885045,42.074999999953434
312798.4197,-22.079973079101464,-4.511988857844352,-13.10093548316027,-7.086186182725639,42.07600000000093
312798.4207,-25.549851423885897,-6.37795476471806,-15.098030113554294,-9.096672983642561,42.07699999999022
312798.4217,-28.59755051155634,-8.077067244267921,-16.821784557392146,-10.880069184796836,42.07799999997951
312798.4227,-31.189949330888997,-9.615528772253812,-18.28768703025846,-12.440793968430159,42.0789999999688
312798.4237,-33.31151757846123,-11.012145151680452,-19.52544844552734,-13.797398557841532,42.07999999995809
312798.4247,-34.96120312601886,-12.294210207539354,-20.573886418734823,-14.97825945989077,42.08099999994738
312798.4257,-36.14849295257869,-13.492717116381133,-21.475075640336403,-16.01654866190527,42.08199999999488
312798.4267,-36.88911451151877,-14.637368793365649,-22.26834239215704,-16.944991278104727,42.08299999998417
312798.4277,-37.2008644878496,-15.751873443628448,-22.984696978037675,-17.790934662417175,42.08399999997346
312798.4287,-37.100022687088135,-16.849979352922375,-23.642256882773424,-18.57221623471541,42.08499999996275
312798.4297,-36.59873372414952,-17.93262854558402,-24.243119328782054,-19.294233996797082,42.08599999995204
312798.4307,-35.70362611464869,-18.98649939481538,-24.772003479955487,-19.948502201789474,42.086999999999534
312798.4317,-34.415798917108525,-19.984074252342154,-25.19681305719707,-20.51282680536415,42.087999999988824
312798.4327,-32.73215442022681,-20.88522256347055,-25.471085814984527,-20.95307558641161,42.088999999978114
312798.4337,-30.64790687265324,-21.640146663512343,-25.538114870943993,-21.226361689487273,42.089999999967404
312798.4347,-28.15996691555117,-22.193410106081558,-25.33636570590402,-21.28532190643688,42.09099999995669
312798.4357,-25.270802355767024,-22.48866891928863,-24.805687228866514,-21.08306549235529,42.09199999994598
312798.4367,-21.992318212413483,-22.473663818170024,-23.893737637940692,-20.578305749802958,42.09299999999348
312798.4377,-18.349288440901702,-22.10501167658635,-22.562023285459514,-19.7401709299351,42.09399999998277
312798.4387,-14.381909521766818,-21.352358883031854,-20.79098341236863,-18.552224407805223,42.09499999997206
312798.4397,-10.147128499543712,-20.20152471716272,-18.58364195853694,-17.015303009403613,42.09599999996135
312798.4407,-5.718516906614481,-18.65636277981079,-15.967481000909192,-15.1488987842076,42.09699999995064
312798.4417,-1.1846054886174828,-16.739192716626455,-12.994355707261121,-12.990951779013617,42.09799999999814
312798.4427,3.354251546533011,-14.48979065803764,-9.738451949620986,-10.596075345108702,42.09899999998743
312798.4437,7.79026528804395,-11.963061570761703,-6.292467342894253,-8.032385982437164,42.09999999997672
312798.4447,12.01350767387995,-9.225636956242717,-2.76235713568864,-5.377241883469843,42.10099999996601
312798.4457,15.917671881583805,-6.351735460591751,0.738887321042455,-2.7122952466093246,42.1019999999553
312798.4467,19.405802673707473,-3.4186830711235006,4.097879841824513,-0.11832328710348446,42.102999999944586
312798.4477,22.39549727717757,-0.502508292872002,7.20732648167645,2.329684006701269,42.103999999992084
312798.4487,24.823122044549976,2.3259952987345316,9.971814021237863,4.566735962280908,42.10499999998137
312798.4497,26.64667993658469,5.004408600791734,12.312437314019942,6.540988393489587,42.10599999997066
312798.4507,27.847090176994026,7.480792112187113,14.169928481128725,8.215575592734782,42.10699999995995
312798.4517,28.42779195647531,9.714636392192478,15.50610720682451,9.569015505167911,42.10799999994924
312798.4527,28.412743988128152,11.67666395575513,16.303642411798442,10.594225019469034,42.10899999999674
312798.4537,27.843045162835015,13.347612081407954,16.56428394388558,11.296325665471658,42.10999999998603
312798.4547,26.772533150604918,14.716233602689208,16.305871516318103,11.689543483263597,42.11099999997532
312798.4557,25.26281421032212,15.77683341563689,15.558541852178545,11.793597741581435,42.11199999996461
312798.4567,23.378228756801832,16.5267037512138,14.36062231723216,11.630022119286185,42.1129999999539
312798.4577,21.181257846638495,16.96382642654189,12.754713421925466,11.21886373118244,42.1140000000014
312798.4587,18.72882514052641,17.085174604035984,10.784422062166273,10.576159555712872,42.11499999999069
312798.4597,16.069851645917957,16.885873554248175,8.492116470050986,9.712500824189393,42.11599999997998
312798.4607,13.244285918671858,16.359376910507326,5.917942001535434,8.632872605278337,42.116999999969266
312798.4617,10.283673529810446,15.498692451583924,3.100177843418911,7.337810584910108,42.117999999958556
312798.4627,7.213162197200277,14.298562202505533,0.07684516966266576,5.825764679256101,42.118999999947846
312798.4637,4.054679819904805,12.758379116868593,-3.1116848088886195,4.0964153041405655,42.11999999999534
312798.4647,0.8308879315126393,10.885519822210743,-6.419471633769503,2.154567874295464,42.12099999998463
312798.4657,-2.430583183432101,8.698701097099454,-9.791661093012172,0.014167268745899561,42.12199999997392
312798.4667,-5.693158875666327,6.230935180732303,-13.161547118851802,-2.2980640485661565,42.12299999996321
312798.4677,-8.908137986088276,3.5316701578027696,-16.448560132878512,-4.739847886996878,42.1239999999525
312798.4687,-12.01277586859402,0.6677566718547215,-19.55763232342348,-7.251852450266719,42.125
312798.4697,-14.929991894441708,-2.2770231228652102,-22.38026836176891,-9.757786072726184,42.12599999998929
312798.4707,-17.56990818946455,-5.204002406121468,-24.79748659662077,-12.16624910452581,42.12699999997858
312798.4717,-19.83324765471456,-8.003244436599331,-26.684606181833967,-14.374343179215389,42.12799999996787
312798.4727,-21.616431310339685,-10.558565208427337,-27.917658247476727,-16.27286316962198,42.12899999995716
312798.4737,-22.818035712673197,-12.753660383885954,-28.38101369142126,-17.752733373197156,42.12999999994645
312798.4747,-23.3461181389858,-14.478911758315823,-27.97566532354752,-18.71221197599983,42.130999999993946
