TimeStamp,ECR,FCR,ECU,FCU
313372.7917,-8473.44,711.73,1056.58,-2518.37
313372.7927,-8354.33,829.12,1174.07,-2443.55
313372.7937,-8385.37,806.95,1144.22,-2494.91
313372.7947,-8592.7,605.25,934.03,-2700.95
313372.7957,-8993.39,216.96,535.87,-3070.59
313372.7967,-9509.9,-283.96,25.89,-3532.12
313372.7977,-10086.87,-840.85,-540.92,-4038.81
313372.7987,-10660.03,-1395.13,-1106.6,-4532.53
313372.7997,-11176.83,-1906.68,-1621.06,-4969.79
313372.8007,-11639.69,-2364.73,-2077.53,-5346.01
313372.8017,-11955.79,-2676.39,-2381.13,-5596.69
313372.8027,-12078.29,-2793.65,-2490.85,-5679.13
313372.8037,-12058.21,-2772.86,-2467.54,-5641.13
313372.8047,-11862.8,-2582.41,-2274.75,-5451.87
313372.8057,-11482.53,-2217.82,-1898.48,-5101.97
313372.8067,-10986.14,-1738.5,-1400.09,-4659.18
313372.8077,-10430.05,-1197.34,-847.86,-4171.04
313372.8087,-9866.19,-646.07,-296.07,-3678.42
313372.8097,-9336.09,-129.27,224.26,-3218.79
313372.8107,-8842.99,350.19,706.96,-2796.7
313372.8117,-8502.44,680.97,1035.12,-2524.71
313372.8127,-8377.51,811.48,1149.13,-2443.65
313372.8137,-8398.1,796.94,1125.96,-2488.71
313372.8147,-8603.24,595.62,923.54,-2690.22
313372.8157,-9001.97,206.76,527.62,-3060.53
313372.8167,-9509.52,-291.06,20.93,-3520.87
313372.8177,-10084.44,-850.63,-544.83,-4028.94
313372.8187,-10660.27,-1407.86,-1113.13,-4529.33
313372.8197,-11167.67,-1907.3,-1615.1,-4966.59
313372.8207,-11621.67,-2353.14,-2060.51,-5350.45
313372.8217,-11938.19,-2664.38,-2370.83,-5605.89
313372.8227,-12067.61,-2791.26,-2490.81,-5690.86
313372.8237,-12053.92,-2779.58,-2472.11,-5655.38
313372.8247,-11858.56,-2590.23,-2269.98,-5463.79
313372.8257,-11470.13,-2214.58,-1881.08,-5105.11
313372.8267,-10972.93,-1732.06,-1391.08,-4656.08
313372.8277,-10420.51,-1193.48,-844.24,-4165.17
313372.8287,-9853.89,-644.35,-278.57,-3672.08
313372.8297,-9319.5,-123.21,244.9,-3218.75
313372.8307,-8822.87,362.59,726.56,-2803.99
313372.8317,-8483.94,696.56,1053.24,-2530.0
313372.8327,-8363.58,819.06,1176.07,-2446.32
313372.8337,-8384.13,801.8,1156.9,-2483.99
313372.8347,-8587.65,608.16,937.99,-2683.45
313372.8357,-8989.96,221.01,521.47,-3054.0
313372.8367,-9508.94,-288.06,7.63,-3520.2
313372.8377,-10088.3,-854.54,-554.18,-4027.41
313372.8387,-10671.76,-1418.5,-1122.14,-4529.48
313372.8397,-11199.33,-1930.28,-1638.56,-4978.28
313372.8407,-11669.35,-2385.76,-2094.13,-5373.67
313372.8417,-11991.17,-2700.04,-2403.21,-5632.97
313372.8427,-12108.85,-2809.48,-2514.6,-5716.99
313372.8437,-12073.8,-2773.48,-2479.27,-5667.54
313372.8447,-11863.9,-2578.21,-2269.84,-5466.51
313372.8457,-11472.32,-2212.62,-1881.7,-5111.93
313372.8467,-10970.31,-1726.01,-1386.69,-4661.32
313372.8477,-10420.85,-1179.89,-848.77,-4168.84
313372.8487,-9850.12,-632.19,-290.92,-3665.88
313372.8497,-9309.96,-112.92,239.8,-3200.34
313372.8507,-8805.66,378.08,738.05,-2774.76
313372.8517,-8462.86,713.06,1070.69,-2500.96
313372.8527,-8353.04,828.27,1176.45,-2432.54
313372.8537,-8394.77,793.65,1130.25,-2489.85
313372.8547,-8614.83,584.17,907.28,-2698.99
313372.8557,-9014.18,198.32,517.8,-3066.4
313372.8567,-9523.35,-293.59,29.13,-3521.63
313372.8577,-10095.36,-848.72,-530.72,-4023.03
313372.8587,-10669.66,-1408.48,-1102.45,-4520.94
313372.8597,-11189.27,-1918.17,-1617.24,-4965.88
313372.8607,-11650.09,-2367.64,-2071.48,-5355.02
313372.8617,-11963.7,-2674.15,-2381.85,-5608.7
313372.8627,-12082.58,-2794.89,-2497.24,-5689.72
313372.8637,-12049.39,-2766.42,-2468.87,-5641.89
313372.8647,-11845.64,-2568.82,-2263.59,-5444.72
313372.8657,-11466.84,-2199.51,-1884.08,-5094.96
313372.8667,-10977.56,-1719.47,-1398.37,-4654.03
313372.8677,-10422.42,-1185.94,-847.2,-4163.5
313372.8687,-9855.75,-642.35,-288.44,-3676.37
313372.8697,-9328.6,-132.42,231.36,-3228.28
313372.8707,-8837.32,346.37,711.92,-2814.34
313372.8717,-8503.25,669.29,1035.17,-2543.59
313372.8727,-8385.61,786.21,1149.94,-2466.63
313372.8737,-8409.6,771.9,1122.57,-2513.74
313372.8747,-8618.31,581.41,908.99,-2718.07
313372.8757,-9023.33,195.65,507.4,-3086.14
313372.8767,-9530.97,-295.02,4.91,-3536.89
313372.8777,-10092.83,-838.85,-549.51,-4025.46
313372.8787,-10663.65,-1397.85,-1108.22,-4514.93
313372.8797,-11177.83,-1903.2,-1610.52,-4949.24
313372.8807,-11647.8,-2360.44,-2072.14,-5333.57
313372.8817,-11970.47,-2679.21,-2386.52,-5592.92
313372.8827,-12092.21,-2805.66,-2502.97,-5682.56
313372.8837,-12074.04,-2788.35,-2481.32,-5652.86
313372.8847,-11871.53,-2598.95,-2286.82,-5459.4
313372.8857,-11482.57,-2226.07,-1911.07,-5103.16
313372.8867,-10976.17,-1729.58,-1406.91,-4653.6
313372.8877,-10405.35,-1171.3,-831.56,-4157.16
313372.8887,-9826.47,-613.16,-264.36,-3660.58
313372.8897,-9296.47,-95.32,248.96,-3204.73
313372.8907,-8812.09,379.13,721.03,-2793.98
313372.8917,-8474.02,704.48,1061.63,-2520.7
313372.8927,-8347.56,823.64,1191.81,-2431.35
313372.8937,-8385.75,792.88,1150.75,-2481.03
313372.8947,-8612.16,575.21,922.25,-2699.71
313372.8957,-9016.9,181.87,520.75,-3070.5
313372.8967,-9526.06,-305.46,18.31,-3523.87
313372.8977,-10101.99,-856.59,-553.32,-4035.04
313372.8987,-10669.95,-1412.2,-1119.47,-4538.01
313372.8997,-11184.5,-1918.41,-1626.21,-4983.28
313372.9007,-11650.47,-2372.74,-2080.63,-5368.61
313372.9017,-11962.8,-2674.91,-2380.23,-5616.52
313372.9027,-12076.09,-2787.11,-2483.65,-5688.81
313372.9037,-12058.35,-2779.91,-2462.77,-5648.66
313372.9047,-11853.51,-2594.81,-2254.34,-5449.49
313372.9057,-11460.93,-2222.87,-1865.01,-5090.14
313372.9067,-10971.6,-1741.31,-1381.4,-4647.11
313372.9077,-10403.35,-1186.66,-822.88,-4148.01
313372.9087,-9833.38,-620.79,-267.93,-3652.05
313372.9097,-9300.76,-96.23,246.19,-3198.72
313372.9107,-8805.04,388.67,728.18,-2780.2
313372.9117,-8464.67,721.65,1056.19,-2507.5
313372.9127,-8343.84,844.0,1178.69,-2425.77
313372.9137,-8377.17,816.39,1145.27,-2477.36
313372.9147,-8599.57,601.67,923.2,-2693.7
313372.9157,-9012.13,201.32,517.94,-3069.54
313372.9167,-9537.55,-303.32,1.76,-3537.75
313372.9177,-10121.2,-866.37,-570.3,-4044.96
313372.9187,-10691.41,-1419.54,-1124.62,-4538.06
313372.9197,-11196.04,-1921.84,-1611.23,-4973.84
313372.9207,-11657.0,-2376.51,-2063.47,-5360.65
313372.9217,-11973.91,-2683.93,-2373.36,-5615.43
313372.9227,-12091.35,-2796.27,-2493.24,-5696.15
313372.9237,-12062.26,-2771.66,-2467.54,-5644.13
313372.9247,-11844.4,-2569.72,-2253.48,-5431.8
313372.9257,-11441.28,-2187.78,-1855.95,-5071.93
313372.9267,-10938.36,-1704.88,-1356.74,-4627.8
313372.9277,-10382.27,-1164.77,-810.81,-4137.18
313372.9287,-9816.22,-613.55,-259.92,-3644.18
313372.9297,-9284.26,-102.57,256.68,-3191.71
313372.9307,-8800.6,373.51,734.42,-2785.25
313372.9317,-8478.59,695.75,1052.09,-2525.62
313372.9327,-8362.25,811.62,1172.3,-2450.85
313372.9337,-8379.65,795.84,1149.99,-2493.72
313372.9347,-8577.78,606.11,945.23,-2690.51
313372.9357,-8982.71,216.25,539.21,-3058.1
313372.9367,-9515.29,-293.92,11.59,-3527.36
313372.9377,-10100.18,-861.02,-564.77,-4034.85
313372.9387,-10677.29,-1420.02,-1130.2,-4533.53
313372.9397,-11196.04,-1926.52,-1641.8,-4976.32
313372.9407,-11654.9,-2374.98,-2094.08,-5359.75
313372.9417,-11963.56,-2677.77,-2399.02,-5607.22
313372.9427,-12083.2,-2791.45,-2510.4,-5685.76
313372.9437,-12061.69,-2771.71,-2479.17,-5644.37
313372.9447,-11854.46,-2574.01,-2258.16,-5442.81
313372.9457,-11455.87,-2193.07,-1851.27,-5079.94
313372.9467,-10954.0,-1704.69,-1357.89,-4630.28
313372.9477,-10402.59,-1164.53,-819.83,-4143.62
313372.9487,-9838.63,-615.45,-266.5,-3654.86
313372.9497,-9312.54,-100.33,257.87,-3201.68
313372.9507,-8821.92,376.18,737.57,-2788.21
313372.9517,-8488.18,699.66,1062.73,-2519.75
313372.9527,-8367.59,817.97,1167.97,-2442.22
313372.9537,-8390.76,796.7,1137.07,-2488.95
313372.9547,-8596.95,594.0,929.31,-2695.18
313372.9557,-9002.83,198.75,528.91,-3065.2
313372.9567,-9528.69,-309.09,12.35,-3535.7
313372.9577,-10112.86,-870.99,-558.42,-4049.68
313372.9587,-10690.02,-1426.03,-1125.86,-4550.51
313372.9597,-11211.35,-1934.1,-1636.36,-4997.35
313372.9607,-11670.07,-2388.62,-2087.74,-5384.4
313372.9617,-11978.1,-2696.75,-2386.86,-5636.6
313372.9627,-12095.41,-2812.82,-2501.68,-5712.94
313372.9637,-12067.94,-2791.74,-2479.41,-5665.83
313372.9647,-11860.56,-2597.14,-2269.13,-5463.46
313372.9657,-11472.04,-2222.59,-1879.07,-5107.31
313372.9667,-10970.98,-1739.55,-1380.4,-4658.75
313372.9677,-10408.97,-1198.48,-825.26,-4160.74
313372.9687,-9845.21,-645.02,-266.84,-3668.4
313372.9697,-9314.87,-125.93,255.39,-3216.41
313372.9707,-8825.02,355.1,729.37,-2800.23
313372.9717,-8496.24,684.31,1037.41,-2527.86
313372.9727,-8369.97,813.87,1158.14,-2439.21
313372.9737,-8379.7,802.66,1147.46,-2467.11
313372.9747,-8597.61,591.66,934.31,-2674.15
313372.9757,-9012.08,194.03,521.47,-3055.53
313372.9767,-9537.03,-310.09,0.95,-3530.31
313372.9777,-10124.49,-882.58,-573.73,-4046.92
313372.9787,-10700.75,-1447.06,-1136.02,-4547.36
313372.9797,-11220.69,-1950.55,-1645.18,-4997.78
313372.9807,-11676.65,-2394.2,-2095.75,-5389.02
313372.9817,-11981.2,-2688.93,-2391.53,-5636.41
313372.9827,-12096.55,-2805.23,-2503.97,-5711.37
313372.9837,-12066.51,-2778.48,-2473.64,-5663.54
313372.9847,-11857.13,-2572.63,-2267.07,-5458.12
313372.9857,-11459.16,-2190.02,-1870.73,-5086.14
313372.9867,-10942.27,-1697.68,-1360.89,-4617.5
313372.9877,-10371.54,-1139.26,-806.19,-4112.05
313372.9887,-9797.91,-581.55,-244.47,-3612.33
313372.9897,-9272.05,-68.28,274.09,-3165.44
313372.9907,-8792.45,405.74,750.83,-2762.08
313372.9917,-8470.25,725.94,1065.78,-2503.92
313372.9927,-8363.2,840.62,1170.21,-2430.3
313372.9937,-8394.43,807.33,1136.92,-2479.17
313372.9947,-8603.38,603.49,925.73,-2682.07
313372.9957,-9014.27,212.48,518.04,-3057.0
313372.9967,-9540.65,-300.36,-3.05,-3521.97
313372.9977,-10119.44,-867.84,-576.11,-4028.03
313372.9987,-10695.7,-1427.84,-1140.93,-4527.86
313372.9997,-11221.36,-1935.34,-1649.67,-4977.61
313373.0007,-11684.75,-2389.48,-2104.19,-5372.62
313373.0017,-11994.08,-2699.76,-2406.79,-5632.35
313373.0027,-12106.99,-2819.59,-2506.49,-5719.33
313373.0037,-12073.23,-2795.27,-2470.06,-5674.7
313373.0047,-11858.04,-2595.71,-2261.97,-5469.9
313373.0057,-11461.35,-2217.05,-1867.87,-5110.07
313373.0067,-10953.14,-1727.58,-1373.48,-4658.7
313373.0077,-10387.85,-1179.46,-824.02,-4162.03
313373.0087,-9817.94,-626.56,-266.41,-3668.31
313373.0097,-9291.32,-103.38,257.4,-3211.5
313373.0107,-8794.88,381.37,747.11,-2782.87
313373.0117,-8450.18,712.01,1080.47,-2497.29
313373.0127,-8334.69,832.22,1193.43,-2418.38
313373.0137,-8380.03,806.95,1147.75,-2476.17
313373.0147,-8603.91,597.29,920.87,-2693.56
313373.0157,-9011.22,203.37,513.74,-3067.83
313373.0167,-9531.36,-295.73,-1.53,-3529.22
313373.0177,-10108.76,-851.58,-569.06,-4031.52
313373.0187,-10684.78,-1410.2,-1132.68,-4524.57
313373.0197,-11200.33,-1924.71,-1637.32,-4966.74
313373.0207,-11665.39,-2381.33,-2089.45,-5359.36
313373.0217,-11978.72,-2693.51,-2395.25,-5614.33
313373.0227,-12088.82,-2814.96,-2502.49,-5693.67
313373.0237,-12058.83,-2789.88,-2472.64,-5650.23
313373.0247,-11854.13,-2588.46,-2270.41,-5452.01
313373.0257,-11462.5,-2207.09,-1885.27,-5092.72
313373.0267,-10959.63,-1715.99,-1386.26,-4638.67
313373.0277,-10393.72,-1167.11,-822.5,-4142.14
313373.0287,-9818.36,-608.3,-254.58,-3644.47
313373.0297,-9283.35,-83.26,272.89,-3185.46
313373.0307,-8791.5,401.45,755.45,-2766.23
313373.0317,-8457.85,724.27,1075.79,-2498.1
313373.0327,-8339.6,843.33,1185.47,-2420.81
313373.0337,-8369.54,820.02,1153.99,-2467.06
313373.0347,-8582.07,614.45,939.89,-2675.68
313373.0357,-8997.11,213.1,531.82,-3055.67
313373.0367,-9523.68,-301.22,16.16,-3525.45
313373.0377,-10108.66,-869.61,-557.42,-4038.24
313373.0387,-10690.21,-1434.61,-1131.11,-4546.26
313373.0397,-11219.65,-1952.36,-1650.0,-4996.01
313373.0407,-11691.62,-2412.41,-2114.63,-5388.69
313373.0417,-12012.2,-2724.55,-2421.24,-5642.46
313373.0427,-12127.83,-2841.76,-2525.47,-5718.18
313373.0437,-12091.83,-2811.43,-2484.99,-5668.59
313373.0447,-11874.92,-2603.96,-2267.22,-5460.5
313373.0457,-11484.1,-2222.11,-1884.75,-5097.34
313373.0467,-10985.85,-1737.45,-1402.43,-4647.88
313373.0477,-10412.5,-1184.99,-844.43,-4146.86
313373.0487,-9822.61,-616.84,-256.3,-3639.51
313373.0497,-9289.08,-98.04,272.08,-3183.6
313373.0507,-8801.46,385.57,750.21,-2773.52
313373.0517,-8470.15,717.97,1071.02,-2511.07
313373.0527,-8348.23,842.38,1189.18,-2430.63
313373.0537,-8367.3,826.98,1166.3,-2472.21
313373.0547,-8571.1,626.85,961.49,-2671.19
313373.0557,-8983.18,225.26,551.41,-3050.14
313373.0567,-9527.3,-301.55,10.49,-3537.89
313373.0577,-10132.36,-885.3,-590.28,-4069.09
313373.0587,-10720.68,-1458.88,-1170.83,-4573.35
313373.0597,-11237.67,-1966.43,-1678.51,-5008.03
313373.0607,-11685.04,-2403.69,-2112.15,-5377.25
313373.0617,-11994.22,-2708.05,-2409.84,-5627.25
313373.0627,-12120.73,-2833.13,-2523.18,-5713.18
313373.0637,-12100.51,-2814.91,-2499.53,-5676.99
313373.0647,-11891.8,-2615.26,-2291.3,-5472.23
313373.0657,-11498.17,-2233.7,-1898.58,-5108.45
313373.0667,-10984.99,-1736.93,-1389.6,-4650.64
313373.0677,-10400.87,-1174.97,-814.77,-4140.66
313373.0687,-9820.75,-611.97,-251.82,-3641.99
313373.0697,-9282.88,-88.26,268.46,-3184.75
313373.0707,-8786.77,397.92,758.46,-2766.99
313373.0717,-8456.99,725.79,1085.47,-2500.01
313373.0727,-8339.93,851.58,1200.01,-2413.37
313373.0737,-8364.63,836.8,1174.5,-2455.71
313373.0747,-8568.53,638.63,969.98,-2661.32
313373.0757,-8982.23,233.6,557.95,-3044.75
313373.0767,-9530.5,-302.17,19.5,-3532.08
313373.0777,-10129.74,-886.77,-575.88,-4059.84
313373.0787,-10724.83,-1460.41,-1169.35,-4577.97
313373.0797,-11256.79,-1976.92,-1694.63,-5032.83
313373.0807,-11719.42,-2435.06,-2158.79,-5421.88
313373.0817,-12035.23,-2752.45,-2474.5,-5676.41
313373.0827,-12158.25,-2886.87,-2579.69,-5768.4
313373.0837,-12127.07,-2858.83,-2530.72,-5724.24
313373.0847,-11906.91,-2650.4,-2312.04,-5519.01
313373.0857,-11505.89,-2257.92,-1910.78,-5148.89
313373.0867,-10983.04,-1741.6,-1397.47,-4676.77
313373.0877,-10399.72,-1170.92,-818.82,-4156.83
313373.0887,-9808.35,-597.76,-232.84,-3639.46
313373.0897,-9262.18,-62.56,290.54,-3165.53
313373.0907,-8756.45,433.45,785.78,-2734.76
313373.0917,-8407.07,772.52,1123.33,-2449.99
313373.0927,-8273.46,900.51,1249.69,-2352.67
313373.0937,-8297.3,881.39,1225.04,-2394.01
313373.0947,-8526.14,674.87,997.5,-2616.5
313373.0957,-8956.24,259.59,572.25,-3017.04
313373.0967,-9506.56,-276.85,27.56,-3510.52
313373.0977,-10118.49,-871.99,-577.64,-4046.97
313373.0987,-10721.16,-1453.88,-1169.92,-4567.48
313373.0997,-11266.38,-1981.59,-1702.88,-5029.11
313373.1007,-11749.27,-2455.0,-2172.33,-5430.08
313373.1017,-12072.33,-2775.34,-2482.61,-5690.72
313373.1027,-12195.49,-2896.64,-2600.96,-5773.21
313373.1037,-12170.98,-2876.28,-2575.02,-5725.67
313373.1047,-11955.45,-2674.06,-2359.49,-5514.72
313373.1057,-11544.23,-2283.53,-1951.17,-5141.12
313373.1067,-11010.27,-1765.44,-1424.27,-4666.85
313373.1077,-10407.21,-1173.11,-830.51,-4135.66
313373.1087,-9797.19,-580.22,-232.32,-3610.99
313373.1097,-9235.1,-35.72,321.44,-3130.53
313373.1107,-8721.16,462.91,825.83,-2702.62
313373.1117,-8377.6,798.42,1162.96,-2431.44
313373.1127,-8248.76,923.78,1293.56,-2349.47
313373.1137,-8276.46,899.93,1263.52,-2397.82
313373.1147,-8513.74,679.21,1027.97,-2625.51
313373.1157,-8960.53,254.39,575.21,-3030.35
313373.1167,-9528.35,-293.35,8.82,-3534.56
313373.1177,-10151.34,-903.56,-602.48,-4082.49
313373.1187,-10761.6,-1503.18,-1201.11,-4612.83
313373.1197,-11322.31,-2042.58,-1753.85,-5084.13
313373.1207,-11827.23,-2524.23,-2249.29,-5503.61
313373.1217,-12148.86,-2842.09,-2560.38,-5765.34
313373.1227,-12260.06,-2959.68,-2667.95,-5842.5
313373.1237,-12229.44,-2937.27,-2634.38,-5793.62
313373.1247,-12013.44,-2734.04,-2416.37,-5582.19
313373.1257,-11596.59,-2332.35,-2004.0,-5200.24
313373.1267,-11048.8,-1806.07,-1460.89,-4712.49
313373.1277,-10425.76,-1200.63,-845.29,-4160.93
313373.1287,-9799.05,-586.18,-228.36,-3612.71
313373.1297,-9213.88,-22.46,351.24,-3111.79
313373.1307,-8681.97,490.67,873.95,-2664.61
313373.1317,-8337.69,832.32,1209.07,-2387.24
313373.1327,-8224.11,950.91,1320.65,-2312.28
313373.1337,-8262.68,918.53,1281.07,-2372.12
313373.1347,-8491.95,703.95,1049.61,-2598.67
313373.1357,-8917.09,297.74,623.37,-2989.01
313373.1367,-9486.87,-257.64,59.46,-3494.41
313373.1377,-10151.24,-903.08,-596.0,-4074.81
313373.1387,-10811.38,-1541.61,-1244.64,-4642.39
313373.1397,-11396.5,-2109.91,-1823.0,-5138.68
313373.1407,-11906.82,-2605.53,-2329.45,-5567.27
313373.1417,-12234.93,-2927.35,-2659.27,-5836.11
313373.1427,-12342.45,-3042.32,-2762.65,-5907.73
313373.1437,-12303.69,-3012.23,-2715.68,-5849.93
313373.1447,-12079.14,-2795.94,-2485.56,-5633.5
313373.1457,-11659.24,-2389.72,-2066.71,-5251.36
313373.1467,-11108.3,-1855.9,-1521.59,-4758.17
313373.1477,-10475.73,-1243.78,-894.5,-4200.36
313373.1487,-9831.29,-617.08,-256.68,-3636.74
313373.1497,-9232.71,-37.38,340.41,-3124.05
313373.1507,-8687.59,496.48,885.25,-2671.81
313373.1517,-8329.06,848.82,1227.38,-2387.33
313373.1527,-8208.47,974.7,1328.37,-2309.94
313373.1537,-8247.09,942.18,1287.37,-2369.45
313373.1547,-8487.56,708.77,1053.14,-2600.86
313373.1557,-8936.26,278.14,606.73,-3008.89
313373.1567,-9516.24,-280.24,25.08,-3520.92
313373.1577,-10162.78,-905.66,-617.79,-4084.16
313373.1587,-10809.47,-1541.66,-1247.93,-4641.77
313373.1597,-11412.53,-2136.71,-1837.06,-5161.57
313373.1607,-11948.11,-2653.55,-2366.69,-5614.85
313373.1617,-12302.5,-3000.69,-2711.82,-5902.72
313373.1627,-12429.57,-3128.62,-2832.41,-5983.21
313373.1637,-12398.58,-3097.87,-2798.18,-5927.42
313373.1647,-12177.28,-2884.82,-2570.63,-5706.17
313373.1657,-11752.7,-2478.17,-2150.58,-5311.97
313373.1667,-11187.03,-1945.83,-1600.36,-4809.86
313373.1677,-10544.4,-1326.28,-971.08,-4251.05
313373.1687,-9896.23,-686.22,-323.82,-3690.53
313373.1697,-9292.94,-93.46,276.37,-3173.54
313373.1707,-8736.09,453.95,823.64,-2703.76
313373.1717,-8360.67,818.82,1183.08,-2402.35
313373.1727,-8226.49,950.81,1309.78,-2312.8
313373.1737,-8258.2,927.73,1279.64,-2361.73
313373.1747,-8483.7,713.01,1054.95,-2580.64
313373.1757,-8922.05,292.44,619.27,-2979.66
313373.1767,-9509.09,-273.32,38.43,-3503.75
313373.1777,-10176.04,-919.25,-621.51,-4089.93
313373.1787,-10845.23,-1570.08,-1283.36,-4668.71
313373.1797,-11447.62,-2167.75,-1880.88,-5189.47
313373.1807,-11984.16,-2697.99,-2404.12,-5644.51
313373.1817,-12346.65,-3056.38,-2757.07,-5935.62
313373.1827,-12481.45,-3196.43,-2888.82,-6026.36
313373.1837,-12451.22,-3173.54,-2853.68,-5969.33
313373.1847,-12228.73,-2954.39,-2626.37,-5744.65
313373.1857,-11808.73,-2543.55,-2204.51,-5355.84
313373.1867,-11241.01,-1996.04,-1648.62,-4846.62
313373.1877,-10573.48,-1348.07,-991.15,-4264.69
313373.1887,-9913.64,-696.42,-333.36,-3695.54
313373.1897,-9310.96,-104.76,263.36,-3178.93
313373.1907,-8741.33,443.7,821.4,-2701.0
313373.1917,-8358.34,816.44,1195.67,-2395.44
313373.1927,-8224.49,956.68,1322.41,-2308.42
313373.1937,-8255.53,934.93,1288.13,-2358.29
313373.1947,-8482.98,721.65,1055.15,-2579.93
313373.1957,-8919.1,299.45,614.4,-2979.95
313373.1967,-9511.33,-269.7,21.98,-3508.19
313373.1977,-10181.33,-923.01,-641.92,-4097.22
313373.1987,-10844.09,-1579.33,-1288.84,-4666.52
313373.1997,-11442.14,-2167.42,-1875.97,-5174.92
313373.2007,-11970.57,-2684.45,-2391.1,-5616.09
313373.2017,-12326.53,-3033.73,-2734.76,-5903.63
313373.2027,-12454.32,-3164.01,-2859.55,-5994.51
313373.2037,-12432.39,-3146.12,-2832.65,-5955.08
313373.2047,-12215.04,-2934.03,-2612.07,-5738.64
313373.2057,-11785.13,-2509.69,-2185.68,-5343.72
313373.2067,-11210.01,-1941.16,-1618.1,-4827.31
313373.2077,-10554.51,-1303.39,-966.84,-4245.57
313373.2087,-9886.31,-661.47,-305.75,-3663.4
313373.2097,-9264.66,-51.21,303.46,-3129.43
313373.2107,-8696.32,505.5,859.4,-2648.78
313373.2117,-8321.33,868.75,1223.42,-2338.46
313373.2127,-8185.96,1006.75,1352.93,-2247.62
313373.2137,-8213.47,982.24,1319.22,-2300.64
313373.2147,-8453.37,751.78,1074.98,-2537.2
313373.2157,-8904.74,316.1,626.04,-2954.53
313373.2167,-9493.88,-251.87,44.58,-3479.58
313373.2177,-10160.07,-899.17,-609.02,-4062.7
313373.2187,-10819.15,-1545.86,-1255.61,-4637.19
313373.2197,-11417.44,-2134.7,-1840.31,-5155.23
313373.2207,-11947.63,-2657.37,-2362.54,-5604.94
313373.2217,-12308.65,-3009.75,-2717.16,-5893.99
313373.2227,-12450.08,-3145.55,-2853.87,-5987.5
313373.2237,-12417.99,-3124.81,-2820.87,-5936.58
313373.2247,-12176.8,-2897.45,-2581.41,-5702.35
313373.2257,-11724.14,-2465.01,-2132.37,-5293.08
313373.2267,-11148.36,-1908.4,-1558.69,-4782.3
313373.2277,-10496.47,-1272.92,-914.48,-4210.04
313373.2287,-9832.29,-626.28,-261.69,-3635.69
313373.2297,-9203.39,-16.64,362.59,-3103.54
313373.2307,-8620.93,548.55,938.51,-2614.4
313373.2317,-8245.9,920.25,1304.25,-2309.61
313373.2327,-8126.59,1050.04,1408.86,-2231.17
313373.2337,-8164.79,1014.8,1363.75,-2292.68
313373.2347,-8403.83,781.77,1126.86,-2522.52
313373.2357,-8856.63,348.04,677.16,-2928.69
313373.2367,-9446.81,-222.49,91.98,-3455.35
313373.2377,-10115.72,-869.18,-571.25,-4039.67
313373.2387,-10784.39,-1512.43,-1231.29,-4617.74
313373.2397,-11387.4,-2101.18,-1823.57,-5131.44
313373.2407,-11920.64,-2628.04,-2342.22,-5576.56
313373.2417,-12271.83,-2975.75,-2681.54,-5859.8
313373.2427,-12406.3,-3108.45,-2811.15,-5950.64
313373.2437,-12381.65,-3088.05,-2782.77,-5905.49
313373.2447,-12151.72,-2866.94,-2549.84,-5678.89
313373.2457,-11712.46,-2443.6,-2112.06,-5275.3
313373.2467,-11137.39,-1885.7,-1542.76,-4760.12
313373.2477,-10484.08,-1246.69,-897.84,-4185.3
313373.2487,-9817.17,-590.75,-239.94,-3607.94
313373.2497,-9192.37,18.98,375.46,-3071.5
313373.2507,-8619.45,573.68,939.18,-2583.69
313373.2517,-8239.37,943.18,1306.01,-2277.47
313373.2527,-8104.61,1076.84,1431.27,-2192.31
313373.2537,-8141.71,1049.42,1390.89,-2256.44
313373.2547,-8391.43,817.2,1141.64,-2498.72
313373.2557,-8852.34,374.56,688.17,-2924.73
313373.2567,-9445.29,-206.28,106.53,-3461.22
313373.2577,-10109.85,-857.31,-547.6,-4051.3
313373.2587,-10779.81,-1509.0,-1207.16,-4631.14
313373.2597,-11396.79,-2111.53,-1811.31,-5155.85
313373.2607,-11925.84,-2637.2,-2326.68,-5601.36
313373.2617,-12285.04,-2979.28,-2676.06,-5884.46
313373.2627,-12421.18,-3124.33,-2811.29,-5967.19
313373.2637,-12364.72,-3102.26,-2757.45,-5889.7
313373.2647,-12112.09,-2860.4,-2512.69,-5649.66
313373.2657,-11669.78,-2413.56,-2076.34,-5245.78
313373.2667,-11094.67,-1849.13,-1505.9,-4734.61
313373.2677,-10448.08,-1217.79,-866.37,-4164.93
313373.2687,-9781.31,-560.33,-216.44,-3584.62
313373.2697,-9150.55,63.28,391.91,-3043.03
313373.2707,-8572.39,626.71,955.53,-2552.6
313373.2717,-8196.07,990.49,1324.32,-2249.81
313373.2727,-8069.71,1110.74,1457.26,-2166.13
313373.2737,-8108.9,1075.41,1427.51,-2220.25
313373.2747,-8362.2,836.42,1176.79,-2459.48
313373.2757,-8823.59,393.3,717.21,-2878.24
313373.2767,-9419.54,-187.35,125.84,-3414.2
313373.2777,-10100.89,-849.63,-547.22,-4015.78
313373.2787,-10784.48,-1512.15,-1219.8,-4611.3
313373.2797,-11400.18,-2113.15,-1824.38,-5134.54
313373.2807,-11937.19,-2644.11,-2350.38,-5582.76
313373.2817,-12291.24,-2995.59,-2695.51,-5870.96
313373.2827,-12425.81,-3128.34,-2822.83,-5965.38
313373.2837,-12389.23,-3101.68,-2783.87,-5916.17
313373.2847,-12140.23,-2864.65,-2534.1,-5682.23
313373.2857,-11686.37,-2422.09,-2083.68,-5271.96
313373.2867,-11099.05,-1849.99,-1506.38,-4750.25
313373.2877,-10439.16,-1209.4,-861.69,-4170.7
313373.2887,-9762.15,-547.5,-197.12,-3584.24
313373.2897,-9135.68,62.18,424.43,-3044.56
313373.2907,-8571.63,610.92,985.34,-2561.09
313373.2917,-8196.4,975.51,1346.78,-2255.77
313373.2927,-8070.76,1112.99,1458.69,-2169.94
313373.2937,-8100.8,1094.96,1414.68,-2220.01
313373.2947,-8332.97,869.94,1177.02,-2446.17
313373.2957,-8784.87,437.31,734.04,-2857.64
313373.2967,-9382.11,-142.43,146.82,-3391.93
313373.2977,-10070.9,-814.96,-530.96,-3995.75
313373.2987,-10751.11,-1479.44,-1198.48,-4587.51
313373.2997,-11366.03,-2079.01,-1798.34,-5113.65
313373.3007,-11906.43,-2606.68,-2327.54,-5567.65
313373.3017,-12264.59,-2959.06,-2676.44,-5854.8
313373.3027,-12400.49,-3096.91,-2806.23,-5945.06
313373.3037,-12376.26,-3079.22,-2776.19,-5896.86
313373.3047,-12142.71,-2854.3,-2535.39,-5666.02
313373.3057,-11698.1,-2427.29,-2092.93,-5261.33
313373.3067,-11122.04,-1867.49,-1521.73,-4748.68
313373.3077,-10466.96,-1225.61,-875.81,-4171.61
313373.3087,-9801.58,-567.63,-218.63,-3599.93
313373.3097,-9175.68,42.1,401.69,-3067.92
313373.3107,-8589.36,607.16,974.94,-2573.4
313373.3117,-8189.3,1000.12,1360.37,-2251.05
313373.3127,-8052.4,1141.26,1490.64,-2162.65
313373.3137,-8089.78,1107.74,1452.16,-2222.4
313373.3147,-8330.92,873.38,1205.73,-2453.52
313373.3157,-8775.0,437.31,754.88,-2864.36
313373.3167,-9372.24,-144.1,149.15,-3401.71
313373.3177,-10065.37,-811.53,-538.3,-4005.05
313373.3187,-10752.77,-1477.19,-1203.49,-4590.61
313373.3197,-11365.08,-2084.59,-1799.35,-5111.46
313373.3207,-11905.77,-2615.64,-2327.73,-5568.6
313373.3217,-12265.78,-2967.64,-2680.3,-5857.04
313373.3227,-12398.29,-3102.83,-2809.86,-5943.63
313373.3237,-12367.68,-3072.93,-2774.43,-5889.56
313373.3247,-12130.45,-2838.95,-2533.44,-5657.34
313373.3257,-11678.55,-2409.36,-2088.17,-5244.35
313373.3267,-11090.04,-1845.41,-1502.56,-4716.02
313373.3277,-10424.71,-1193.05,-845.29,-4129.27
313373.3287,-9756.85,-538.68,-187.92,-3556.49
313373.3297,-9136.53,69.57,426.82,-3029.11
313373.3307,-8559.04,630.66,991.77,-2549.03
313373.3317,-8180.09,997.35,1355.65,-2248.19
313373.3327,-8057.55,1124.43,1473.95,-2162.08
313373.3337,-8097.46,1087.86,1430.8,-2224.49
313373.3347,-8356.91,839.0,1176.64,-2477.5
313373.3357,-8827.54,384.09,718.12,-2907.32
313373.3367,-9431.6,-203.42,115.39,-3447.25
313373.3377,-10113.53,-864.65,-561.0,-4041.62
313373.3387,-10791.06,-1524.31,-1226.81,-4623.65
313373.3397,-11410.33,-2118.21,-1833.92,-5150.18
313373.3407,-11955.45,-2645.59,-2364.02,-5607.18
313373.3417,-12304.16,-2988.34,-2705.72,-5886.89
313373.3427,-12407.26,-3102.26,-2807.52,-5948.16
313373.3437,-12360.43,-3057.43,-2757.12,-5877.59
313373.3447,-12118.77,-2821.26,-2508.64,-5640.79
313373.3457,-11671.88,-2387.95,-2062.61,-5232.33
313373.3467,-11089.66,-1825.19,-1485.73,-4713.77
313373.3477,-10426.95,-1181.94,-830.6,-4132.61
313373.3487,-9753.99,-529.34,-170.76,-3552.1
313373.3497,-9128.95,79.63,439.83,-3017.52
313373.3507,-8552.46,642.11,1009.13,-2534.01
313373.3517,-8172.47,1002.31,1371.57,-2231.93
313373.3527,-8041.43,1128.82,1481.2,-2147.96
313373.3537,-8082.68,1095.72,1434.09,-2217.96
313373.3547,-8340.17,849.15,1185.23,-2474.83
313373.3557,-8802.84,399.16,728.27,-2901.27
313373.3567,-9394.93,-177.0,145.58,-3432.13
313373.3577,-10077.86,-838.14,-527.43,-4034.09
313373.3587,-10778.52,-1513.1,-1208.59,-4636.53
313373.3597,-11402.47,-2122.59,-1820.37,-5167.63
313373.3607,-11944.25,-2650.31,-2349.57,-5618.05
313373.3617,-12295.63,-2979.61,-2698.66,-5889.51
313373.3627,-12415.51,-3092.1,-2815.68,-5959.8
313373.3637,-12372.21,-3058.53,-2766.42,-5890.8
313373.3647,-12124.4,-2828.12,-2517.56,-5652.86
313373.3657,-11670.45,-2397.11,-2068.71,-5234.15
313373.3667,-11083.51,-1835.11,-1491.26,-4707.34
313373.3677,-10416.6,-1188.33,-835.42,-4124.17
313373.3687,-9743.93,-528.29,-169.23,-3545.67
313373.3697,-9118.8,84.45,447.03,-3015.66
313373.3707,-8550.36,635.43,1003.65,-2542.54
313373.3717,-8181.53,994.63,1362.13,-2243.81
313373.3727,-8055.16,1123.19,1476.24,-2159.79
313373.3737,-8096.6,1092.2,1425.41,-2225.21
313373.3747,-8352.23,848.01,1167.97,-2474.98
313373.3757,-8814.67,402.93,710.39,-2902.89
313373.3767,-9409.86,-179.72,121.5,-3432.66
313373.3777,-10094.98,-845.62,-554.8,-4026.56
313373.3787,-10778.24,-1504.66,-1223.76,-4614.31
313373.3797,-11394.98,-2105.57,-1826.24,-5140.4
313373.3807,-11939.34,-2635.91,-2356.62,-5595.21
313373.3817,-12295.58,-2982.09,-2696.23,-5879.69
313373.3827,-12419.42,-3112.32,-2813.34,-5961.37
313373.3837,-12373.02,-3072.79,-2765.13,-5900.62
313373.3847,-12121.3,-2827.79,-2509.07,-5660.25
313373.3857,-11678.32,-2395.25,-2063.99,-5249.79
313373.3867,-11100.06,-1836.01,-1489.26,-4733.09
313373.3877,-10436.77,-1191.71,-837.99,-4155.25
313373.3887,-9755.33,-541.02,-173.19,-3572.94
313373.3897,-9123.95,70.05,445.7,-3033.78
313373.3907,-8552.27,631.38,1003.89,-2545.5
313373.3917,-8180.0,995.45,1359.75,-2239.13
313373.3927,-8054.78,1133.3,1474.57,-2154.78
313373.3937,-8078.86,1113.08,1446.44,-2198.36
313373.3947,-8322.48,866.41,1204.92,-2434.02
313373.3957,-8799.41,403.88,734.04,-2876.0
313373.3967,-9418.58,-192.12,121.26,-3433.13
313373.3977,-10112.38,-860.31,-562.14,-4041.29
313373.3987,-10794.26,-1524.73,-1224.23,-4628.9
313373.3997,-11405.52,-2126.5,-1821.99,-5152.18
313373.4007,-11944.25,-2657.08,-2357.1,-5609.7
313373.4017,-12302.69,-3006.84,-2706.1,-5895.19
313373.4027,-12429.05,-3126.96,-2826.12,-5977.11
313373.4037,-12389.9,-3081.8,-2780.44,-5914.21
313373.4047,-12132.98,-2838.09,-2519.56,-5664.87
313373.4057,-11651.23,-2379.27,-2052.59,-5228.71
313373.4067,-11046.12,-1798.92,-1462.94,-4690.36
313373.4077,-10382.46,-1161.67,-804.71,-4105.66
313373.4087,-9718.61,-509.74,-148.3,-3525.78
313373.4097,-9106.92,95.8,451.37,-2998.5
313373.4107,-8542.63,643.49,1006.75,-2522.09
313373.4117,-8173.99,1008.84,1364.61,-2225.97
313373.4127,-8059.6,1133.16,1471.19,-2152.2
313373.4137,-8110.57,1092.2,1417.92,-2218.49
313373.4147,-8368.68,844.67,1159.38,-2467.68
313373.4157,-8831.45,392.2,693.7,-2893.93
313373.4167,-9436.66,-195.22,89.07,-3438.28
313373.4177,-10119.58,-861.55,-589.42,-4041.05
313373.4187,-10798.41,-1524.4,-1257.99,-4628.66
313373.4197,-11409.95,-2122.93,-1857.23,-5152.56
313373.4207,-11946.39,-2650.45,-2376.6,-5603.89
313373.4217,-12296.73,-2996.06,-2711.73,-5887.51
313373.4227,-12422.52,-3124.43,-2816.82,-5975.68
313373.4237,-12376.93,-3089.05,-2753.21,-5915.12
313373.4247,-12115.1,-2843.0,-2495.96,-5670.17
313373.4257,-11661.82,-2405.6,-2053.21,-5252.55
313373.4267,-11085.46,-1841.12,-1483.25,-4730.94
313373.4277,-10414.55,-1192.33,-819.87,-4141.24
313373.4287,-9722.28,-521.23,-137.9,-3542.23
313373.4297,-9092.76,102.0,480.89,-2999.97
313373.4307,-8543.44,649.26,1023.67,-2535.58
313373.4317,-8187.96,1004.74,1368.81,-2249.77
313373.4327,-8059.22,1135.16,1491.26,-2163.93
313373.4337,-8094.98,1104.16,1450.49,-2222.97
313373.4347,-8355.9,854.64,1181.94,-2475.36
313373.4357,-8828.45,399.64,710.39,-2908.04
313373.4367,-9433.32,-190.83,111.48,-3449.15
313373.4377,-10119.63,-864.41,-564.77,-4052.73
313373.4387,-10798.36,-1531.55,-1232.96,-4641.2
313373.4397,-11413.29,-2131.41,-1846.03,-5161.62
313373.4407,-11955.6,-2656.36,-2381.66,-5609.18
313373.4417,-12300.68,-3004.12,-2711.44,-5881.31
313373.4427,-12415.36,-3123.28,-2818.54,-5954.41
313373.4437,-12370.3,-3072.83,-2763.84,-5887.84
313373.4447,-12108.85,-2818.06,-2494.53,-5641.51
313373.4457,-11639.31,-2371.6,-2033.66,-5216.69
313373.4467,-11055.52,-1804.4,-1462.89,-4695.65
313373.4477,-10397.72,-1164.29,-818.78,-4116.11
313373.4487,-9723.66,-511.69,-149.15,-3532.51
313373.4497,-9098.44,95.42,468.21,-3002.02
313373.4507,-8540.54,645.88,1010.8,-2533.77
313373.4517,-8183.29,999.21,1356.7,-2249.81
313373.4527,-8063.46,1120.95,1469.09,-2174.33
313373.4537,-8108.66,1085.0,1425.36,-2237.94
313373.4547,-8361.39,830.46,1176.98,-2486.99
313373.4557,-8824.25,371.55,716.64,-2916.91
313373.4567,-9432.46,-216.01,112.34,-3460.93
313373.4577,-10120.54,-876.14,-566.34,-4062.84
313373.4587,-10798.69,-1535.37,-1231.15,-4648.45
313373.4597,-11399.84,-2128.27,-1825.05,-5157.95
313373.4607,-11937.91,-2646.26,-2356.43,-5599.36
313373.4617,-12297.35,-2984.43,-2704.24,-5875.4
313373.4627,-12418.75,-3107.26,-2819.82,-5947.73
313373.4637,-12366.96,-3064.3,-2762.46,-5878.64
313373.4647,-12107.33,-2815.72,-2502.39,-5631.02
313373.4657,-11651.57,-2373.41,-2050.5,-5213.83
313373.4667,-11066.25,-1805.69,-1474.14,-4691.51
313373.4677,-10397.15,-1159.38,-814.15,-4108.19
313373.4687,-9723.76,-506.59,-147.63,-3525.21
313373.4697,-9100.63,101.85,470.59,-2992.73
313373.4707,-8537.39,652.84,1020.05,-2519.61
313373.4717,-8178.76,1003.55,1368.52,-2234.46
313373.4727,-8068.18,1118.66,1484.82,-2167.89
313373.4737,-8117.96,1077.94,1437.33,-2237.75
313373.4747,-8377.89,824.83,1172.21,-2495.19
313373.4757,-8852.29,365.88,697.18,-2929.83
313373.4767,-9454.92,-218.73,96.51,-3471.8
313373.4777,-10130.41,-879.29,-576.69,-4073.19
313373.4787,-10802.79,-1540.76,-1246.98,-4660.46
313373.4797,-11419.11,-2144.1,-1854.23,-5181.17
313373.4807,-11963.23,-2665.47,-2383.57,-5629.35
313373.4817,-12302.07,-2998.69,-2708.15,-5897.09
313373.4827,-12409.74,-3106.88,-2805.09,-5962.75
313373.4837,-12369.68,-3061.01,-2756.5,-5892.33
313373.4847,-12125.3,-2821.87,-2511.6,-5647.95
313373.4857,-11674.74,-2387.67,-2064.85,-5233.81
313373.4867,-11085.08,-1817.66,-1481.29,-4698.37
313373.4877,-10399.49,-1162.96,-809.15,-4096.08
313373.4887,-9712.79,-506.02,-136.18,-3506.33
313373.4897,-9083.13,107.81,480.13,-2977.09
313373.4907,-8511.35,672.39,1037.79,-2501.77
313373.4917,-8146.67,1039.22,1388.65,-2214.96
313373.4927,-8027.27,1160.43,1503.75,-2142.14
313373.4937,-8081.82,1104.64,1452.16,-2219.25
313373.4947,-8359.58,830.22,1177.64,-2487.04
313373.4957,-8842.33,360.78,699.95,-2923.68
313373.4967,-9449.96,-233.94,93.79,-3467.04
313373.4977,-10138.7,-900.13,-592.99,-4072.95
313373.4987,-10820.82,-1559.21,-1265.86,-4664.04
313373.4997,-11428.36,-2148.49,-1860.0,-5179.26
313373.5007,-11945.87,-2649.78,-2367.45,-5604.7
313373.5017,-12267.16,-2953.63,-2683.45,-5859.57
313373.5027,-12372.54,-3058.96,-2780.15,-5927.61
313373.5037,-12336.3,-3030.83,-2735.09,-5868.86
313373.5047,-12095.41,-2802.9,-2488.85,-5635.83
313373.5057,-11647.75,-2379.27,-2038.67,-5225.9
313373.5067,-11066.91,-1817.23,-1464.94,-4706.43
313373.5077,-10413.27,-1171.68,-817.87,-4127.84
313373.5087,-9745.31,-522.18,-161.98,-3545.48
313373.5097,-9108.5,80.73,464.15,-2997.21
313373.5107,-8538.82,644.02,1023.34,-2515.41
313373.5117,-8187.01,1002.22,1370.48,-2238.94
313373.5127,-8073.14,1112.65,1482.39,-2171.71
313373.5137,-8100.56,1082.09,1441.29,-2227.02
313373.5147,-8350.75,840.57,1182.94,-2472.35
313373.5157,-8840.09,368.21,696.99,-2919.48
313373.5167,-9468.84,-235.41,74.58,-3480.63
313373.5177,-10165.79,-893.74,-612.35,-4089.88
313373.5187,-10840.7,-1536.04,-1286.79,-4668.76
313373.5197,-11429.26,-2127.31,-1869.49,-5165.1
313373.5207,-11933.23,-2638.01,-2361.87,-5582.29
313373.5217,-12258.25,-2960.4,-2674.48,-5842.78
313373.5227,-12379.08,-3074.98,-2780.68,-5928.71
313373.5237,-12343.07,-3037.93,-2736.04,-5873.54
313373.5247,-12091.11,-2796.7,-2480.32,-5632.07
313373.5257,-11633.49,-2355.39,-2021.98,-5219.41
313373.5267,-11043.12,-1787.52,-1438.24,-4695.75
313373.5277,-10373.69,-1139.12,-787.31,-4109.96
313373.5287,-9704.45,-489.09,-135.76,-3530.07
313373.5297,-9079.7,116.25,482.61,-2996.83
313373.5307,-8512.93,672.1,1045.32,-2517.27
313373.5317,-8148.77,1023.96,1396.75,-2222.63
313373.5327,-8031.66,1145.41,1507.85,-2142.76
313373.5337,-8082.01,1104.83,1452.78,-2214.53
313373.5347,-8349.47,849.34,1179.89,-2476.5
313373.5357,-8830.45,386.52,703.86,-2915.24
313373.5367,-9446.57,-203.66,94.94,-3460.88
313373.5377,-10136.41,-871.18,-585.89,-4062.94
313373.5387,-10815.1,-1534.8,-1249.55,-4643.97
313373.5397,-11428.64,-2130.46,-1849.84,-5162.57
313373.5407,-11966.23,-2652.6,-2374.46,-5611.28
313373.5417,-12304.98,-2986.96,-2705.48,-5882.03
313373.5427,-12414.55,-3101.59,-2810.29,-5948.26
313373.5437,-12363.01,-3059.29,-2754.26,-5876.21
313373.5447,-12105.28,-2813.39,-2491.76,-5624.25
313373.5457,-11656.62,-2377.32,-2046.68,-5212.69
313373.5467,-11071.16,-1809.22,-1470.76,-4692.27
313373.5477,-10397.86,-1158.67,-809.62,-4106.0
313373.5487,-9722.42,-500.2,-143.0,-3521.06
313373.5497,-9093.33,114.3,476.17,-2986.62
313373.5507,-8521.61,669.72,1038.79,-2509.31
313373.5517,-8156.59,1027.35,1394.37,-2219.06
313373.5527,-8036.66,1147.51,1500.65,-2141.43
313373.5537,-8088.78,1101.78,1440.95,-2211.76
313373.5547,-8357.14,847.24,1168.82,-2470.59
313373.5557,-8825.02,392.01,704.48,-2906.13
313373.5567,-9431.94,-201.03,108.62,-3453.45
313373.5577,-10123.11,-871.37,-562.0,-4062.84
313373.5587,-10806.99,-1534.84,-1229.14,-4653.36
313373.5597,-11424.88,-2131.65,-1834.92,-5176.5
313373.5607,-11956.74,-2652.36,-2361.15,-5622.96
313373.5617,-12291.48,-2987.34,-2682.4,-5893.04
313373.5627,-12408.54,-3106.93,-2797.65,-5965.76
313373.5637,-12365.49,-3071.12,-2758.88,-5904.63
313373.5647,-12114.24,-2827.17,-2507.4,-5656.2
313373.5657,-11651.14,-2381.94,-2049.49,-5232.53
313373.5667,-11062.72,-1810.6,-1470.52,-4706.24
313373.5677,-10396.0,-1159.53,-816.06,-4118.01
313373.5687,-9704.83,-488.47,-129.18,-3518.77
313373.5697,-9052.8,142.24,517.42,-2963.26
313373.5707,-8486.37,697.99,1072.79,-2482.51
313373.5717,-8138.23,1047.18,1408.96,-2200.79
313373.5727,-8028.41,1161.72,1515.77,-2133.27
313373.5737,-8075.05,1119.23,1464.22,-2201.51
313373.5747,-8341.69,861.26,1186.18,-2464.58
313373.5757,-8824.25,395.77,700.86,-2908.61
313373.5767,-9439.71,-201.37,97.23,-3456.35
313373.5777,-10125.26,-867.89,-578.12,-4058.17
313373.5787,-10805.18,-1527.26,-1244.5,-4641.49
313373.5797,-11418.15,-2124.31,-1847.89,-5161.52
313373.5807,-11956.17,-2646.54,-2372.55,-5608.94
313373.5817,-12300.4,-2984.05,-2708.63,-5884.89
313373.5827,-12415.7,-3103.16,-2818.2,-5961.85
313373.5837,-12368.3,-3065.44,-2768.61,-5904.87
313373.5847,-12111.81,-2822.07,-2507.31,-5669.64
313373.5857,-11651.14,-2381.9,-2049.26,-5252.08
313373.5867,-11063.34,-1810.65,-1462.46,-4726.93
313373.5877,-10397.44,-1163.1,-800.23,-4140.23
313373.5887,-9726.76,-509.12,-141.19,-3554.54
313373.5897,-9106.3,100.71,470.73,-3015.47
313373.5907,-8542.35,654.55,1025.58,-2526.86
313373.5917,-8175.33,1012.37,1381.92,-2224.02
313373.5927,-8056.02,1132.01,1488.35,-2143.57
313373.5937,-8103.23,1088.19,1425.17,-2212.38
313373.5947,-8366.97,829.84,1161.0,-2463.15
313373.5957,-8844.81,373.13,688.36,-2900.46
313373.5967,-9458.83,-218.44,76.63,-3455.31
313373.5977,-10145.67,-888.63,-602.44,-4061.03
313373.5987,-10817.72,-1548.15,-1264.29,-4646.44
313373.5997,-11430.07,-2141.09,-1868.53,-5169.96
313373.6007,-11972.0,-2660.23,-2399.73,-5622.67
313373.6017,-12314.13,-2991.15,-2733.85,-5896.04
313373.6027,-12411.6,-3098.73,-2833.94,-5963.56
313373.6037,-12341.45,-3045.56,-2767.13,-5883.27
313373.6047,-12073.47,-2800.04,-2494.14,-5631.4
313373.6057,-11628.1,-2373.36,-2031.37,-5220.84
313373.6067,-11051.85,-1810.17,-1439.38,-4698.8
313373.6077,-10387.95,-1162.82,-778.91,-4113.29
313373.6087,-9718.71,-511.84,-126.22,-3532.41
313373.6097,-9096.48,99.47,480.89,-3001.88
313373.6107,-8529.76,657.37,1030.64,-2524.09
313373.6117,-8163.79,1025.87,1381.4,-2233.46
313373.6127,-8034.8,1167.35,1498.94,-2151.06
313373.6137,-8079.24,1122.9,1452.26,-2214.38
313373.6147,-8352.71,851.06,1178.79,-2479.27
313373.6157,-8834.89,388.48,699.0,-2915.95
313373.6167,-9450.25,-204.75,90.98,-3460.84
313373.6177,-10140.28,-875.19,-589.94,-4062.8
313373.6187,-10822.58,-1539.76,-1258.09,-4650.21
313373.6197,-11435.03,-2139.85,-1856.99,-5171.73
313373.6207,-11971.28,-2659.7,-2379.04,-5623.63
313373.6217,-12316.18,-2996.06,-2710.1,-5898.48
313373.6227,-12430.76,-3115.7,-2817.35,-5972.15
313373.6237,-12384.7,-3076.12,-2761.89,-5908.11
313373.6247,-12125.45,-2832.51,-2498.2,-5660.73
313373.6257,-11660.05,-2387.62,-2046.59,-5238.96
313373.6267,-11067.34,-1812.03,-1479.15,-4709.44
313373.6277,-10401.06,-1163.53,-832.56,-4121.97
313373.6287,-9725.38,-505.73,-162.46,-3533.55
313373.6297,-9093.0,109.82,464.73,-2993.92
313373.6307,-8522.8,668.05,1025.96,-2515.03
313373.6317,-8163.69,1020.38,1374.72,-2231.65
313373.6327,-8049.68,1135.54,1481.82,-2163.12
313373.6337,-8103.71,1088.95,1424.46,-2236.18
313373.6347,-8377.55,827.26,1148.89,-2499.96
313373.6357,-8854.25,365.3,673.82,-2936.32
313373.6367,-9461.64,-227.69,74.1,-3479.72
313373.6377,-10147.67,-896.31,-601.1,-4081.58
313373.6387,-10831.17,-1560.31,-1269.29,-4669.29
313373.6397,-11440.56,-2156.26,-1861.14,-5184.84
313373.6407,-11966.09,-2669.67,-2374.65,-5627.25
313373.6417,-12306.55,-3002.21,-2704.53,-5901.62
313373.6427,-12422.8,-3118.28,-2812.34,-5978.2
313373.6437,-12372.5,-3078.41,-2759.03,-5912.26
313373.6447,-12114.57,-2830.12,-2502.16,-5662.3
313373.6457,-11660.34,-2388.14,-2059.89,-5242.92
313373.6467,-11063.0,-1808.02,-1477.43,-4707.72
313373.6477,-10390.19,-1145.79,-817.2,-4116.73
313373.6487,-9721.95,-486.56,-155.83,-3537.37
313373.6497,-9097.86,107.43,467.25,-3008.08
313373.6507,-8531.14,652.17,1024.63,-2534.96
313373.6517,-8179.05,994.25,1364.23,-2251.58
313373.6527,-8070.33,1098.87,1468.04,-2181.48
313373.6537,-8121.44,1054.24,1410.82,-2254.63
313373.6547,-8389.43,808.67,1136.02,-2512.31
313373.6557,-8864.02,361.35,660.32,-2941.8
313373.6567,-9458.4,-209.19,71.29,-3472.19
313373.6577,-10129.17,-860.88,-586.94,-4062.27
313373.6587,-10800.36,-1517.01,-1241.25,-4646.44
313373.6597,-11411.62,-2111.01,-1836.11,-5170.3
313373.6607,-11943.48,-2631.43,-2350.19,-5619.48
313373.6617,-12280.04,-2966.21,-2675.01,-5886.84
313373.6627,-12395.34,-3083.42,-2787.07,-5951.17
313373.6637,-12352.71,-3037.26,-2740.91,-5874.63
313373.6647,-12090.54,-2787.45,-2478.22,-5617.67
313373.6657,-11625.1,-2349.57,-2034.57,-5197.86
313373.6667,-11039.21,-1781.8,-1466.8,-4676.06
313373.6677,-10375.88,-1134.63,-805.9,-4095.75
313373.6687,-9718.75,-490.67,-150.39,-3526.12
313373.6697,-9123.09,93.79,443.36,-3019.57
313373.6707,-8584.6,611.21,976.75,-2572.3
313373.6717,-8238.32,931.88,1311.3,-2299.36
313373.6727,-8127.36,1035.17,1416.02,-2231.36
313373.6737,-8179.86,988.29,1357.51,-2306.08
313373.6747,-8454.85,728.37,1079.03,-2581.64
313373.6757,-8937.84,271.18,591.23,-3023.91
313373.6767,-9546.66,-311.9,-14.97,-3558.59
313373.6777,-10204.41,-951.96,-664.81,-4129.51
313373.6787,-10847.9,-1585.1,-1294.71,-4674.91
313373.6797,-11425.35,-2148.2,-1858.66,-5160.76
313373.6807,-11935.86,-2637.24,-2353.38,-5582.19
313373.6817,-12264.78,-2953.24,-2661.28,-5838.16
313373.6827,-12369.63,-3058.62,-2752.21,-5904.06
313373.6837,-12310.27,-2996.54,-2695.47,-5822.75
313373.6847,-12042.71,-2731.94,-2434.4,-5564.74
313373.6857,-11580.47,-2291.87,-1975.25,-5145.41
313373.6867,-10986.33,-1726.68,-1390.17,-4619.84
313373.6877,-10330.63,-1092.39,-743.68,-4051.5
313373.6887,-9691.33,-471.31,-116.11,-3503.75
313373.6897,-9113.36,91.51,456.24,-3012.23
313373.6907,-8592.46,595.67,965.4,-2580.21
313373.6917,-8270.41,913.19,1274.35,-2327.01
313373.6927,-8176.04,1010.13,1363.09,-2272.8
313373.6937,-8226.49,957.58,1303.29,-2346.37
313373.6947,-8483.27,703.05,1042.75,-2601.19
313373.6957,-8956.96,246.81,582.55,-3031.11
313373.6967,-9565.4,-339.6,-17.79,-3570.22
313373.6977,-10237.5,-990.82,-684.21,-4160.83
313373.6987,-10888.91,-1618.43,-1322.27,-4718.45
313373.6997,-11469.56,-2180.2,-1894.14,-5203.2
313373.7007,-11962.51,-2660.27,-2375.79,-5609.99
313373.7017,-12263.11,-2954.58,-2665.28,-5845.88
313373.7027,-12364.58,-3046.42,-2761.65,-5904.06
313373.7037,-12312.6,-2997.11,-2709.2,-5831.19
313373.7047,-12044.86,-2746.92,-2440.5,-5577.76
313373.7057,-11585.0,-2301.41,-1981.69,-5158.57
313373.7067,-11000.92,-1736.26,-1404.48,-4639.96
313373.7077,-10341.84,-1099.54,-752.83,-4065.42
313373.7087,-9683.32,-460.43,-102.9,-3495.41
313373.7097,-9075.74,125.74,496.2,-2976.75
313373.7107,-8530.57,656.32,1029.92,-2521.71
313373.7117,-8193.49,984.57,1354.65,-2255.25
313373.7127,-8098.22,1085.42,1444.86,-2196.79
313373.7137,-8160.16,1029.59,1378.15,-2274.23
313373.7147,-8434.39,774.05,1100.49,-2536.73
313373.7157,-8907.61,325.39,625.37,-2965.55
313373.7167,-9510.09,-262.12,28.9,-3498.84
313373.7177,-10193.02,-927.97,-642.87,-4099.04
313373.7187,-10873.99,-1581.05,-1305.15,-4681.44
313373.7197,-11475.18,-2168.32,-1891.95,-5195.14
313373.7207,-11990.6,-2678.06,-2396.25,-5628.63
313373.7217,-12314.03,-2995.87,-2704.86,-5887.89
313373.7227,-12411.83,-3097.34,-2797.17,-5949.78
313373.7237,-12350.61,-3040.65,-2736.62,-5869.58
313373.7247,-12079.72,-2782.44,-2466.82,-5611.61
313373.7257,-11614.28,-2336.55,-2006.39,-5187.85
313373.7267,-11024.09,-1768.45,-1428.08,-4664.04
313373.7277,-10356.95,-1121.95,-778.25,-4080.96
313373.7287,-9692.57,-478.94,-125.5,-3507.66
313373.7297,-9089.09,110.24,475.98,-2990.1
313373.7307,-8551.65,630.62,1005.84,-2543.74
313373.7317,-8223.06,949.05,1321.65,-2288.82
313373.7327,-8130.89,1044.46,1405.86,-2237.37
313373.7337,-8192.49,985.72,1342.44,-2316.52
313373.7347,-8465.58,728.65,1068.54,-2577.4
313373.7357,-8940.41,273.04,599.77,-3009.51
313373.7367,-9545.76,-309.37,3.05,-3550.1
313373.7377,-10221.53,-960.16,-666.81,-4140.09
313373.7387,-10871.84,-1590.01,-1312.64,-4694.8
313373.7397,-11437.47,-2147.25,-1872.4,-5174.11
313373.7407,-11923.74,-2624.37,-2341.84,-5580.52
313373.7417,-12224.39,-2925.11,-2628.52,-5821.75
313373.7427,-12316.32,-3021.57,-2712.35,-5876.49
313373.7437,-12259.68,-2968.65,-2653.89,-5801.44
313373.7447,-12006.62,-2722.69,-2397.11,-5555.68
313373.7457,-11557.77,-2286.63,-1954.6,-5144.45
313373.7467,-10973.17,-1720.86,-1379.3,-4626.85
313373.7477,-10329.63,-1095.72,-743.82,-4065.75
313373.7487,-9694.43,-480.13,-117.87,-3516.39
313373.7497,-9107.5,90.27,456.0,-3014.99
313373.7507,-8593.51,591.37,955.49,-2580.74
313373.7517,-8279.09,891.11,1262.09,-2330.83
313373.7527,-8181.67,990.68,1354.74,-2267.6
313373.7537,-8236.22,948.33,1296.9,-2335.17
313373.7547,-8502.87,696.95,1028.97,-2593.37
313373.7557,-8966.78,245.33,565.53,-3025.58
313373.7567,-9563.07,-335.74,-23.7,-3560.54
313373.7577,-10218.34,-976.66,-672.72,-4143.67
313373.7587,-10846.19,-1589.3,-1282.98,-4691.51
313373.7597,-11408.85,-2136.9,-1828.0,-5169.87
313373.7607,-11905.0,-2614.59,-2315.0,-5579.85
313373.7617,-12221.19,-2924.63,-2618.36,-5828.62
313373.7627,-12316.28,-3024.72,-2704.53,-5880.69
313373.7637,-12253.24,-2971.65,-2640.3,-5801.77
313373.7647,-12000.32,-2728.65,-2386.67,-5548.05
313373.7657,-11554.62,-2297.69,-1940.35,-5131.91
313373.7667,-10974.98,-1732.35,-1365.42,-4618.22
313373.7677,-10325.15,-1093.53,-727.13,-4051.07
313373.7687,-9678.7,-459.72,-93.75,-3494.69
313373.7697,-9098.63,108.43,480.79,-3000.98
313373.7707,-8583.98,614.21,982.33,-2575.4
313373.7717,-8255.58,939.04,1298.43,-2317.71
313373.7727,-8157.49,1031.49,1387.55,-2254.3
313373.7737,-8219.0,968.74,1321.75,-2320.15
313373.7747,-8473.21,714.97,1058.63,-2562.09
313373.7757,-8935.5,261.26,594.9,-2990.48
313373.7767,-9543.09,-325.2,-3.24,-3530.79
313373.7777,-10223.15,-968.65,-668.24,-4129.12
313373.7787,-10873.37,-1592.25,-1303.58,-4690.27
313373.7797,-11443.0,-2150.15,-1861.86,-5171.82
313373.7807,-11933.09,-2623.42,-2343.51,-5575.75
313373.7817,-12239.08,-2917.34,-2640.92,-5817.32
313373.7827,-12326.1,-3006.55,-2725.17,-5869.1
313373.7837,-12260.25,-2946.42,-2654.12,-5785.85
313373.7847,-11999.89,-2696.18,-2391.1,-5534.94
313373.7857,-11539.65,-2260.11,-1936.58,-5118.42
313373.7867,-10947.13,-1699.97,-1348.54,-4593.33
313373.7877,-10295.25,-1069.45,-697.76,-4025.84
313373.7887,-9663.01,-454.47,-76.25,-3482.91
313373.7897,-9090.42,106.86,483.66,-2994.73
313373.7907,-8570.91,611.97,987.72,-2562.14
313373.7917,-8251.57,926.11,1297.19,-2308.13
313373.7927,-8159.11,1017.52,1383.69,-2256.2
313373.7937,-8220.15,959.68,1320.74,-2334.74
313373.7947,-8492.42,695.42,1038.84,-2600.91
313373.7957,-8971.64,237.51,557.76,-3036.59
313373.7967,-9575.42,-347.52,-37.43,-3569.94
313373.7977,-10237.03,-987.48,-688.74,-4150.77
313373.7987,-10866.69,-1593.16,-1309.01,-4690.41
313373.7997,-11423.54,-2132.37,-1853.18,-5160.52
313373.8007,-11916.5,-2609.68,-2331.69,-5564.07
313373.8017,-12231.07,-2914.05,-2626.8,-5809.16
313373.8027,-12330.25,-3010.13,-2717.3,-5869.34
313373.8037,-12266.49,-2947.43,-2649.59,-5792.05
313373.8047,-11994.6,-2690.17,-2371.74,-5532.31
313373.8057,-11539.17,-2252.77,-1917.31,-5111.89
313373.8067,-10951.0,-1687.53,-1331.38,-4591.08
313373.8077,-10292.91,-1057.72,-689.98,-4024.74
313373.8087,-9663.77,-451.23,-95.08,-3488.59
313373.8097,-9096.19,104.19,454.0,-3006.98
313373.8107,-8579.11,606.11,964.31,-2575.4
313373.8117,-8257.72,917.86,1279.5,-2317.33
313373.8127,-8159.54,1017.52,1373.39,-2254.77
313373.8137,-8218.96,966.36,1302.86,-2330.3
313373.8147,-8497.53,702.67,1019.72,-2598.72
313373.8157,-8978.56,241.14,549.46,-3039.55
313373.8167,-9582.19,-343.99,-37.15,-3576.57
313373.8177,-10245.61,-985.91,-690.17,-4157.5
313373.8187,-10888.67,-1605.7,-1317.02,-4707.86
313373.8197,-11457.3,-2160.31,-1871.63,-5187.37
313373.8207,-11945.44,-2636.86,-2349.95,-5592.78
313373.8217,-12251.33,-2933.12,-2645.49,-5831.62
313373.8227,-12346.75,-3026.91,-2735.66,-5884.89
313373.8237,-12288.05,-2972.75,-2672.82,-5807.97
313373.8247,-12022.93,-2719.5,-2407.74,-5551.53
313373.8257,-11564.83,-2277.33,-1953.79,-5132.25
313373.8267,-10977.7,-1713.71,-1372.05,-4610.3
313373.8277,-10322.86,-1078.03,-725.56,-4033.42
313373.8287,-9682.51,-450.66,-94.94,-3475.86
313373.8297,-9100.39,117.64,477.41,-2982.9
313373.8307,-8580.97,622.56,985.1,-2547.12
313373.8317,-8252.24,934.98,1301.48,-2294.4
313373.8327,-8148.34,1035.64,1400.23,-2236.46
313373.8337,-8213.47,980.0,1326.94,-2318.72
313373.8347,-8491.56,713.25,1044.94,-2588.89
313373.8357,-8961.06,255.25,573.68,-3025.25
313373.8367,-9558.68,-329.11,-20.46,-3564.69
313373.8377,-10223.87,-974.75,-678.59,-4152.01
313373.8387,-10863.4,-1594.73,-1304.77,-4700.28
313373.8397,-11426.64,-2144.53,-1858.57,-5174.83
313373.8407,-11911.68,-2618.27,-2331.78,-5579.76
313373.8417,-12212.04,-2910.14,-2623.27,-5816.79
313373.8427,-12304.16,-3001.64,-2706.34,-5869.68
313373.8437,-12247.85,-2945.14,-2642.2,-5787.09
313373.8447,-11987.45,-2694.94,-2380.66,-5531.74
313373.8457,-11529.59,-2257.54,-1924.9,-5117.85
313373.8467,-10948.85,-1695.92,-1349.35,-4606.68
313373.8477,-10306.07,-1071.6,-714.83,-4050.3
313373.8487,-9678.32,-466.35,-92.36,-3518.53
313373.8497,-9115.41,79.58,465.44,-3041.41
313373.8507,-8611.06,565.82,961.45,-2622.65
313373.8517,-8303.98,862.5,1257.37,-2379.51
313373.8527,-8220.86,945.38,1329.47,-2332.74
313373.8537,-8283.28,885.92,1253.56,-2407.6
313373.8547,-8554.46,631.81,976.47,-2655.46
313373.8557,-9019.09,194.17,508.55,-3069.73
313373.8567,-9586.14,-348.9,-63.42,-3575.95
313373.8577,-10206.37,-951.86,-676.3,-4119.97
313373.8587,-10829.93,-1548.81,-1281.36,-4656.89
313373.8597,-11390.02,-2089.93,-1820.95,-5128.0
313373.8607,-11868.34,-2558.8,-2285.43,-5528.07
313373.8617,-12167.03,-2851.68,-2572.78,-5763.72
313373.8627,-12266.73,-2954.67,-2664.14,-5823.57
313373.8637,-12221.19,-2918.82,-2611.73,-5766.11
313373.8647,-11970.81,-2682.4,-2355.05,-5528.26
313373.8657,-11524.73,-2254.92,-1912.07,-5119.04
313373.8667,-10952.33,-1697.64,-1347.07,-4601.53
313373.8677,-10309.6,-1076.65,-712.63,-4035.66
313373.8687,-9675.79,-474.88,-90.65,-3488.78
313373.8697,-9091.66,80.11,479.03,-2991.01
313373.8707,-8573.15,589.47,982.81,-2557.61
313373.8717,-8255.44,912.71,1290.23,-2309.18
313373.8727,-8170.03,1013.71,1369.52,-2259.25
313373.8737,-8244.09,956.2,1294.33,-2350.28
313373.8747,-8517.41,702.67,1017.05,-2611.59
313373.8757,-8966.88,267.7,571.63,-3017.38
313373.8767,-9561.68,-308.32,-17.26,-3544.76
313373.8777,-10239.41,-958.97,-686.93,-4137.61
313373.8787,-10883.05,-1580.72,-1315.21,-4686.88
313373.8797,-11442.23,-2135.18,-1865.67,-5153.37
313373.8807,-11932.28,-2613.83,-2343.75,-5558.21
313373.8817,-12241.89,-2913.19,-2638.24,-5801.58
313373.8827,-12331.39,-3011.7,-2723.88,-5858.37
313373.8837,-12266.69,-2956.01,-2655.41,-5781.51
313373.8847,-11992.46,-2696.8,-2382.99,-5526.16
313373.8857,-11523.53,-2250.53,-1920.94,-5105.35
313373.8867,-10933.45,-1682.85,-1339.34,-4585.22
313373.8877,-10279.99,-1052.43,-702.95,-4018.35
313373.8887,-9647.85,-439.21,-83.26,-3473.76
313373.8897,-9074.07,122.98,482.94,-2984.0
313373.8907,-8559.75,621.7,986.1,-2553.27
313373.8917,-8249.95,926.54,1289.46,-2309.89
313373.8927,-8159.45,1018.0,1372.62,-2259.83
313373.8937,-8220.05,961.78,1308.49,-2338.6
313373.8947,-8490.47,702.14,1036.12,-2602.34
313373.8957,-8963.54,241.23,562.24,-3036.93
313373.8967,-9572.46,-345.18,-37.0,-3578.23
313373.8977,-10239.41,-989.25,-692.61,-4162.74
313373.8987,-10874.32,-1608.8,-1317.74,-4711.49
313373.8997,-11439.37,-2153.02,-1869.15,-5186.61
313373.9007,-11924.84,-2624.37,-2342.75,-5586.05
313373.9017,-12224.01,-2917.0,-2631.04,-5819.27
313373.9027,-12316.99,-3006.51,-2714.25,-5869.1
313373.9037,-12255.86,-2949.95,-2653.79,-5789.09
313373.9047,-11988.88,-2695.04,-2382.66,-5530.74
313373.9057,-11528.4,-2250.77,-1920.99,-5106.5
313373.9067,-10939.55,-1682.19,-1339.1,-4582.17
313373.9077,-10289.86,-1054.14,-698.57,-4016.35
313373.9087,-9664.49,-445.46,-83.54,-3475.52
313373.9097,-9095.24,111.25,473.93,-2991.3
313373.9107,-8583.88,607.4,975.32,-2565.29
313373.9117,-8270.84,912.57,1277.73,-2320.81
313373.9127,-8178.95,1007.99,1365.9,-2266.69
313373.9137,-8243.47,947.67,1303.1,-2348.14
313373.9147,-8513.45,681.07,1027.73,-2612.11
313373.9157,-8984.66,226.4,554.04,-3043.22
313373.9167,-9589.96,-356.53,-42.72,-3577.8
313373.9177,-10251.81,-997.97,-691.18,-4158.93
313373.9187,-10869.93,-1599.84,-1294.28,-4694.56
313373.9197,-11410.71,-2128.79,-1832.91,-5156.9
313373.9207,-11902.0,-2599.43,-2327.49,-5561.78
313373.9217,-12210.85,-2894.02,-2632.24,-5798.87
313373.9227,-12305.88,-2986.77,-2713.3,-5852.27
313373.9237,-12249.47,-2939.32,-2648.64,-5777.88
313373.9247,-11989.17,-2688.98,-2383.57,-5526.16
313373.9257,-11533.83,-2251.24,-1927.28,-5105.45
313373.9267,-10947.51,-1686.14,-1345.73,-4586.51
313373.9277,-10304.36,-1062.01,-704.05,-4027.7
313373.9287,-9675.84,-455.09,-83.21,-3489.92
313373.9297,-9091.24,113.73,482.89,-2995.49
313373.9307,-8565.47,622.32,989.48,-2559.09
313373.9317,-8256.87,923.54,1291.61,-2314.85
313373.9327,-8171.27,1012.71,1374.58,-2264.74
313373.9337,-8231.88,957.49,1307.39,-2347.28
313373.9347,-8493.9,696.13,1042.46,-2606.58
313373.9357,-8960.58,237.13,578.21,-3036.59
313373.9367,-9571.51,-348.47,-22.84,-3574.09
313373.9377,-10237.17,-987.39,-675.11,-4152.97
313373.9387,-10866.83,-1597.93,-1285.55,-4696.37
313373.9397,-11425.31,-2138.81,-1831.25,-5173.4
313373.9407,-11907.72,-2597.95,-2312.71,-5578.33
313373.9417,-12204.27,-2886.1,-2608.97,-5811.31
313373.9427,-12289.86,-2977.56,-2688.84,-5856.13
313373.9437,-12227.3,-2925.4,-2624.56,-5773.35
313373.9447,-11966.37,-2675.49,-2363.54,-5514.77
313373.9457,-11511.71,-2233.98,-1909.3,-5094.48
313373.9467,-10931.21,-1674.8,-1332.62,-4572.25
313373.9477,-10296.06,-1059.01,-707.2,-4011.87
313373.9487,-9679.27,-456.91,-99.52,-3480.58
313373.9497,-9103.06,107.1,465.35,-2994.25
313373.9507,-8575.3,621.13,979.38,-2553.56
313373.9517,-8265.21,919.63,1279.59,-2309.47
313373.9527,-8183.1,998.64,1357.6,-2264.83
313373.9537,-8249.43,935.36,1288.37,-2356.39
313373.9547,-8528.04,664.09,1008.51,-2630.38
313373.9557,-9012.41,202.13,526.38,-3074.22
313373.9567,-9620.76,-376.94,-73.48,-3616.86
313373.9577,-10274.75,-1007.8,-716.5,-4188.11
313373.9587,-10891.2,-1603.22,-1326.28,-4715.87
313373.9597,-11438.18,-2134.37,-1869.25,-5179.12
313373.9607,-11909.25,-2603.67,-2330.59,-5576.04
313373.9617,-12202.88,-2896.55,-2615.26,-5809.78
313373.9627,-12296.06,-2991.39,-2700.71,-5868.01
313373.9637,-12239.65,-2941.8,-2633.86,-5790.52
313373.9647,-11980.01,-2686.45,-2371.26,-5533.74
313373.9657,-11521.91,-2242.23,-1923.61,-5115.22
313373.9667,-10932.02,-1679.52,-1341.2,-4585.93
313373.9677,-10275.79,-1052.0,-693.51,-4006.2
313373.9687,-9651.47,-446.99,-77.68,-3466.8
313373.9697,-9092.43,103.38,472.59,-2996.11
313373.9707,-8583.64,598.24,972.7,-2574.01
313373.9717,-8268.69,905.51,1279.93,-2321.24
313373.9727,-8170.89,1001.88,1371.29,-2260.64
313373.9737,-8226.35,951.72,1308.97,-2336.31
313373.9747,-8509.49,692.51,1022.15,-2605.53
313373.9757,-8995.25,225.21,543.17,-3045.85
313373.9767,-9585.91,-346.33,-40.48,-3573.89
313373.9777,-10237.89,-973.42,-683.31,-4145.15
313373.9787,-10865.93,-1587.2,-1302.29,-4683.35
313373.9797,-11425.31,-2137.28,-1853.99,-5157.28
313373.9807,-11904.43,-2605.15,-2324.82,-5557.82
313373.9817,-12200.64,-2896.21,-2611.83,-5788.42
313373.9827,-12298.49,-2993.3,-2706.0,-5850.74
313373.9837,-12242.89,-2941.32,-2638.91,-5782.32
313373.9847,-11982.06,-2691.13,-2366.5,-5531.5
313373.9857,-11518.34,-2245.04,-1908.35,-5107.02
313373.9867,-10928.68,-1674.84,-1329.18,-4579.02
313373.9877,-10288.38,-1050.85,-698.95,-4013.82
313373.9887,-9661.2,-444.94,-82.11,-3473.0
313373.9897,-9085.85,109.05,481.13,-2985.62
313373.9907,-8579.54,607.2,974.46,-2563.91
313373.9917,-8275.22,909.71,1267.62,-2325.11
313373.9927,-8180.29,1004.84,1354.65,-2270.79
313373.9937,-8229.21,951.48,1301.19,-2341.03
313373.9947,-8506.35,686.12,1028.2,-2608.16
313373.9957,-8994.63,219.97,550.94,-3054.95
313373.9967,-9601.26,-363.68,-49.69,-3600.07
313373.9977,-10260.2,-997.5,-704.0,-4176.09
313373.9987,-10882.67,-1599.88,-1315.45,-4713.01
313373.9997,-11440.09,-2140.09,-1850.75,-5183.13
313374.0007,-11923.12,-2606.2,-2322.58,-5581.9
313374.0017,-12215.9,-2895.45,-2620.79,-5809.45
313374.0027,-12300.92,-2982.57,-2705.1,-5852.18
313374.0037,-12229.59,-2919.96,-2628.57,-5762.63
313374.0047,-11959.55,-2673.01,-2358.15,-5508.04
313374.0057,-11506.32,-2236.46,-1906.63,-5095.39
313374.0067,-10922.67,-1672.17,-1326.47,-4575.49
313374.0077,-10275.08,-1044.8,-689.79,-4010.25
313374.0087,-9644.22,-436.35,-73.34,-3467.42
313374.0097,-9069.73,119.92,488.47,-2980.33
313374.0107,-8560.23,614.98,992.01,-2554.7
313374.0117,-8252.53,921.39,1290.51,-2312.99
313374.0127,-8163.12,1019.72,1374.58,-2259.4
313374.0137,-8234.03,960.3,1304.05,-2339.94
313374.0147,-8526.42,683.69,1011.9,-2615.55
313374.0157,-9015.18,211.19,526.09,-3064.35
313374.0167,-9629.73,-378.75,-77.53,-3609.37
313374.0177,-10287.95,-1014.61,-718.88,-4185.58
313374.0187,-10902.74,-1610.95,-1322.08,-4718.02
313374.0197,-11452.49,-2143.48,-1863.58,-5180.31
313374.0207,-11932.61,-2604.91,-2336.31,-5570.13
313374.0217,-12222.39,-2891.16,-2615.88,-5794.14
313374.0227,-12303.16,-2983.05,-2687.03,-5840.35
313374.0237,-12229.87,-2924.92,-2606.49,-5752.75
313374.0247,-11957.22,-2667.71,-2334.93,-5489.68
313374.0257,-11497.07,-2227.74,-1882.65,-5068.35
313374.0267,-10920.14,-1671.7,-1316.88,-4558.23
313374.0277,-10288.1,-1055.96,-695.37,-4008.34
313374.0287,-9667.73,-447.85,-94.27,-3480.24
313374.0297,-9088.95,114.25,467.97,-2995.44
313374.0307,-8571.96,606.11,975.13,-2567.24
313374.0317,-8271.98,896.74,1264.91,-2329.64
313374.0327,-8191.21,984.95,1340.58,-2284.43
313374.0337,-8257.15,927.07,1267.86,-2367.59
313374.0347,-8535.62,658.89,981.95,-2636.34
313374.0357,-9006.22,201.75,514.7,-3064.25
313374.0367,-9590.58,-364.83,-67.09,-3583.96
313374.0377,-10233.83,-983.57,-694.7,-4145.15
313374.0387,-10855.53,-1589.35,-1294.8,-4680.16
313374.0397,-11417.91,-2135.13,-1842.55,-5158.42
313374.0407,-11906.96,-2609.73,-2319.15,-5566.93
313374.0417,-12202.74,-2901.51,-2606.2,-5800.1
313374.0427,-12290.19,-2991.3,-2691.94,-5851.36
313374.0437,-12220.0,-2920.15,-2622.46,-5766.96
313374.0447,-11942.91,-2650.31,-2345.56,-5503.27
313374.0457,-11475.99,-2200.75,-1883.36,-5080.75
313374.0467,-10892.58,-1636.22,-1311.87,-4556.85
313374.0477,-10247.52,-1016.09,-673.53,-3986.93
313374.0487,-9619.28,-413.7,-53.36,-3442.48
313374.0497,-9050.42,142.29,508.02,-2957.77
313374.0507,-8540.2,639.82,1002.84,-2537.58
313374.0517,-8241.23,935.75,1291.9,-2303.65
313374.0527,-8157.54,1021.24,1378.11,-2257.73
313374.0537,-8223.34,958.63,1314.12,-2346.71
313374.0547,-8507.87,688.12,1025.44,-2620.22
313374.0557,-8992.63,224.54,541.02,-3059.1
313374.0567,-9602.69,-364.59,-63.04,-3602.79
313374.0577,-10270.17,-1011.66,-720.79,-4190.54
313374.0587,-10913.75,-1632.17,-1349.4,-4739.38
313374.0597,-11484.1,-2186.35,-1908.35,-5217.17
313374.0607,-11973.19,-2663.18,-2387.0,-5618.86
313374.0617,-12270.83,-2955.25,-2670.0,-5847.74
313374.0627,-12355.57,-3042.03,-2749.49,-5895.33
313374.0637,-12288.14,-2977.42,-2680.35,-5807.97
313374.0647,-12013.15,-2711.39,-2404.98,-5545.24
313374.0657,-11537.65,-2260.88,-1931.91,-5111.55
313374.0667,-10935.93,-1685.48,-1336.53,-4575.11
313374.0677,-10273.51,-1044.46,-688.84,-4003.95
313374.0687,-9628.49,-421.48,-50.45,-3460.12
313374.0697,-9045.6,140.33,522.52,-2969.36
313374.0707,-8541.25,635.05,1017.43,-2543.16
313374.0717,-8242.99,933.84,1304.48,-2304.13
313374.0727,-8162.93,1022.77,1376.96,-2259.06
313374.0737,-8232.31,965.69,1301.19,-2344.56
313374.0747,-8514.55,695.75,1017.28,-2612.69
313374.0757,-8997.39,224.78,540.3,-3049.66
313374.0767,-9596.54,-355.1,-48.07,-3581.48
313374.0777,-10239.7,-980.81,-680.21,-4142.57
313374.0787,-10860.35,-1582.29,-1284.27,-4671.57
313374.0797,-11417.29,-2123.74,-1824.9,-5143.07
313374.0807,-11897.09,-2591.56,-2296.16,-5547.57
313374.0817,-12192.06,-2882.15,-2587.51,-5780.55
313374.0827,-12283.57,-2980.28,-2676.11,-5833.96
313374.0837,-12220.96,-2925.3,-2613.02,-5761.96
313374.0847,-11949.73,-2658.32,-2344.18,-5504.32
313374.0857,-11495.16,-2217.25,-1892.85,-5085.61
313374.0867,-10921.91,-1671.27,-1326.85,-4573.87
313374.0877,-10297.63,-1065.35,-705.81,-4029.42
313374.0887,-9697.53,-479.94,-114.54,-3515.34
313374.0897,-9139.63,58.03,430.97,-3043.08
313374.0907,-8628.23,557.23,929.83,-2616.74
313374.0917,-8315.04,866.79,1223.95,-2373.55
313374.0927,-8214.28,964.5,1317.6,-2314.23
313374.0937,-8259.87,918.34,1264.86,-2378.85
313374.0947,-8533.76,664.09,988.91,-2637.34
313374.0957,-9004.02,213.81,528.43,-3057.91
313374.0967,-9574.03,-347.85,-37.48,-3562.26
313374.0977,-10204.32,-961.97,-656.51,-4117.25
313374.0987,-10824.87,-1560.78,-1260.81,-4652.69
313374.0997,-11391.35,-2107.19,-1811.7,-5135.82
313374.1007,-11882.88,-2583.6,-2286.91,-5548.1
313374.1017,-12182.24,-2866.27,-2571.68,-5783.27
313374.1027,-12261.54,-2947.57,-2648.69,-5825.95
313374.1037,-12197.4,-2893.64,-2579.74,-5744.89
313374.1047,-11937.43,-2640.3,-2314.42,-5496.36
313374.1057,-11497.07,-2216.96,-1878.79,-5096.39
313374.1067,-10941.6,-1689.2,-1338.29,-4598.71
313374.1077,-10319.81,-1098.01,-731.13,-4051.54
313374.1087,-9708.83,-512.27,-130.99,-3528.4
313374.1097,-9140.83,42.96,428.39,-3049.56
313374.1107,-8628.85,550.08,926.45,-2630.33
313374.1117,-8323.91,862.07,1218.75,-2391.58
313374.1127,-8213.81,972.27,1322.65,-2318.57
313374.1137,-8250.19,939.89,1282.74,-2369.26
313374.1147,-8533.81,670.1,993.92,-2634.24
313374.1157,-9018.09,208.33,509.07,-3070.35
313374.1167,-9612.28,-358.2,-73.0,-3592.97
313374.1177,-10251.86,-975.61,-702.67,-4151.77
313374.1187,-10860.97,-1577.04,-1306.53,-4669.33
313374.1197,-11409.47,-2126.41,-1845.31,-5128.43
313374.1207,-11902.38,-2605.87,-2323.01,-5539.04
313374.1217,-12212.71,-2902.13,-2619.93,-5788.76
313374.1227,-12306.36,-2997.35,-2708.58,-5847.84
313374.1237,-12244.27,-2941.99,-2639.96,-5772.02
313374.1247,-11971.81,-2684.64,-2357.29,-5518.06
313374.1257,-11508.51,-2239.04,-1891.52,-5097.06
313374.1267,-10918.43,-1667.64,-1313.97,-4571.25
313374.1277,-10266.64,-1032.5,-675.77,-4001.19
313374.1287,-9632.21,-419.09,-48.4,-3456.74
313374.1297,-9054.76,144.96,518.47,-2966.21
313374.1307,-8539.96,645.54,1017.95,-2537.78
313374.1317,-8240.32,939.42,1309.16,-2298.26
313374.1327,-8158.68,1026.54,1381.59,-2252.87
313374.1337,-8217.67,973.99,1313.88,-2331.83
313374.1347,-8495.52,703.62,1034.69,-2596.9
313374.1357,-8977.27,236.08,554.37,-3034.26
313374.1367,-9592.39,-354.58,-53.02,-3582.38
313374.1377,-10262.06,-1003.31,-712.2,-4170.75
313374.1387,-10898.78,-1617.91,-1334.05,-4716.35
313374.1397,-11455.25,-2161.26,-1880.03,-5188.7
313374.1407,-11927.42,-2621.94,-2343.7,-5581.14
313374.1417,-12216.81,-2901.55,-2621.89,-5804.83
313374.1427,-12307.74,-2990.44,-2703.38,-5852.27
313374.1437,-12241.65,-2934.27,-2627.56,-5766.77
313374.1447,-11964.99,-2667.9,-2346.52,-5503.56
313374.1457,-11498.5,-2219.15,-1882.03,-5079.13
313374.1467,-10912.94,-1654.43,-1304.87,-4562.24
313374.1477,-10275.41,-1040.46,-676.2,-4006.34
313374.1487,-9660.2,-446.42,-69.57,-3477.19
313374.1497,-9091.43,105.14,486.66,-2996.97
313374.1507,-8578.02,600.0,989.25,-2570.44
313374.1517,-8272.55,897.55,1284.17,-2330.64
313374.1527,-8183.81,990.58,1356.98,-2280.76
313374.1537,-8250.43,932.03,1276.87,-2362.68
313374.1547,-8537.82,659.75,981.76,-2637.82
313374.1557,-9022.33,193.02,508.5,-3083.42
313374.1567,-9629.63,-394.73,-82.87,-3621.01
313374.1577,-10288.67,-1032.16,-731.33,-4194.26
313374.1587,-10913.09,-1634.65,-1346.4,-4729.8
313374.1597,-11470.32,-2174.0,-1896.33,-5202.15
313374.1607,-11952.02,-2640.53,-2364.25,-5599.45
313374.1617,-12236.17,-2921.92,-2631.14,-5819.56
313374.1627,-12312.08,-3002.6,-2701.14,-5857.33
313374.1637,-12242.13,-2936.41,-2637.58,-5771.97
313374.1647,-11967.14,-2672.29,-2367.12,-5507.28
313374.1657,-11504.13,-2225.02,-1901.63,-5083.18
313374.1667,-10911.18,-1652.1,-1313.07,-4558.9
313374.1677,-10257.34,-1021.62,-669.96,-3988.74
313374.1687,-9623.86,-410.84,-45.54,-3447.39
313374.1697,-9049.37,150.63,519.75,-2963.35
313374.1707,-8541.97,641.97,1013.76,-2541.78
313374.1717,-8242.8,933.12,1301.72,-2309.37
313374.1727,-8158.26,1016.66,1380.44,-2263.36
313374.1737,-8222.68,953.82,1313.5,-2342.7
313374.1747,-8511.02,684.17,1020.19,-2612.45
313374.1757,-9003.78,218.96,526.76,-3059.96
313374.1767,-9621.67,-371.46,-82.68,-3606.08
313374.1777,-10291.43,-1024.34,-740.24,-4191.4
313374.1787,-10926.77,-1645.42,-1361.18,-4737.04
313374.1797,-11487.06,-2197.79,-1906.68,-5209.45
313374.1807,-11963.94,-2668.67,-2372.93,-5608.08
313374.1817,-12253.76,-2950.67,-2648.45,-5836.2
313374.1827,-12338.97,-3034.21,-2725.08,-5882.03
313374.1837,-12271.69,-2970.46,-2650.79,-5795.05
313374.1847,-11989.07,-2698.61,-2364.25,-5526.45
313374.1857,-11514.62,-2239.42,-1891.37,-5094.86
313374.1867,-10925.29,-1657.63,-1314.02,-4567.43
313374.1877,-10271.93,-1018.1,-676.87,-3993.32
313374.1887,-9641.93,-413.61,-60.75,-3453.92
313374.1897,-9072.97,137.04,498.29,-2972.89
313374.1907,-8568.81,630.09,992.3,-2552.37
313374.1917,-8277.7,917.53,1271.77,-2324.39
313374.1927,-8199.74,994.11,1343.87,-2287.53
313374.1937,-8258.06,936.46,1282.84,-2374.94
313374.1947,-8529.71,670.77,1009.66,-2640.63
313374.1957,-9005.02,200.56,536.54,-3081.08
313374.1967,-9615.14,-390.2,-66.8,-3627.4
313374.1977,-10288.19,-1036.74,-728.51,-4212.19
313374.1987,-10935.02,-1659.68,-1363.13,-4757.21
313374.1997,-11508.7,-2220.34,-1926.28,-5235.39
313374.2007,-11985.45,-2698.71,-2391.2,-5635.07
313374.2017,-12256.72,-2974.75,-2651.83,-5848.98
313374.2027,-12328.82,-3049.47,-2716.78,-5883.89
313374.2037,-12251.24,-2957.77,-2635.34,-5780.75
313374.2047,-11950.45,-2657.7,-2340.08,-5484.15
313374.2057,-11461.07,-2179.0,-1862.19,-5045.13
313374.2067,-10856.82,-1594.07,-1262.9,-4514.31
313374.2077,-10198.93,-966.41,-616.26,-3945.78
313374.2087,-9571.36,-357.39,0.05,-3409.91
313374.2097,-9008.36,191.74,552.94,-2935.27
313374.2107,-8506.01,679.4,1043.27,-2517.89
313374.2117,-8216.91,964.98,1322.79,-2289.25
313374.2127,-8151.72,1035.02,1380.54,-2251.24
313374.2137,-8231.88,953.77,1297.86,-2339.17
313374.2147,-8519.41,668.43,1008.84,-2611.83
313374.2157,-9009.31,195.69,521.23,-3058.29
313374.2167,-9623.34,-395.73,-86.88,-3608.85
313374.2177,-10293.68,-1040.08,-746.3,-4191.97
313374.2187,-10926.39,-1650.91,-1362.66,-4735.23
313374.2197,-11486.77,-2191.64,-1908.83,-5211.78
313374.2207,-11955.55,-2643.3,-2362.44,-5601.69
313374.2217,-12231.02,-2908.61,-2627.42,-5813.17
313374.2227,-12313.03,-2994.11,-2704.81,-5857.33
313374.2237,-12248.09,-2936.84,-2632.76,-5776.98
313374.2247,-11966.52,-2669.91,-2349.47,-5508.61
313374.2257,-11497.12,-2220.15,-1884.08,-5080.03
313374.2267,-10910.37,-1653.48,-1305.25,-4557.28
313374.2277,-10262.78,-1030.92,-665.04,-3988.79
313374.2287,-9628.49,-423.29,-45.59,-3441.86
313374.2297,-9053.66,136.61,514.94,-2955.58
313374.2307,-8546.88,633.24,1006.36,-2534.44
313374.2317,-8243.85,928.16,1298.19,-2299.83
313374.2327,-8160.26,1017.33,1372.48,-2253.01
313374.2337,-8233.5,958.25,1293.23,-2339.65
313374.2347,-8517.22,689.32,1010.32,-2609.01
313374.2357,-8993.44,226.02,538.35,-3044.61
313374.2367,-9600.69,-360.01,-59.37,-3587.44
313374.2377,-10270.22,-1005.84,-714.97,-4175.85
313374.2387,-10911.56,-1624.58,-1340.68,-4724.93
313374.2397,-11480.9,-2176.38,-1898.0,-5202.39
313374.2407,-11966.37,-2649.45,-2374.6,-5602.79
313374.2417,-12254.38,-2930.26,-2650.12,-5826.04
313374.2427,-12332.82,-3013.23,-2720.5,-5869.82
313374.2437,-12258.58,-2948.86,-2645.45,-5781.08
313374.2447,-11977.48,-2680.68,-2363.54,-5512.29
313374.2457,-11507.27,-2227.35,-1894.47,-5084.85
313374.2467,-10908.56,-1653.77,-1304.01,-4556.23
313374.2477,-10248.04,-1019.33,-656.32,-3986.79
313374.2487,-9617.62,-411.27,-31.47,-3449.73
313374.2497,-9047.65,144.39,532.58,-2962.92
313374.2507,-8539.92,635.1,1025.34,-2539.59
313374.2517,-8245.09,924.06,1305.48,-2310.32
313374.2527,-8166.74,1003.69,1374.91,-2270.32
313374.2537,-8242.23,937.65,1297.76,-2356.62
313374.2547,-8530.33,665.04,1010.47,-2627.37
313374.2557,-9007.5,213.1,534.63,-3063.2
313374.2567,-9609.46,-366.64,-59.99,-3598.64
313374.2577,-10282.37,-1017.19,-724.6,-4187.3
313374.2587,-10921.86,-1636.7,-1348.11,-4734.56
313374.2597,-11485.67,-2185.2,-1893.33,-5213.45
313374.2607,-11965.85,-2653.79,-2364.92,-5613.71
313374.2617,-12256.39,-2934.98,-2642.01,-5835.34
313374.2627,-12336.78,-3012.85,-2712.77,-5875.68
313374.2637,-12257.53,-2945.52,-2630.66,-5783.32
313374.2647,-11963.75,-2672.29,-2344.85,-5509.71
313374.2657,-11483.77,-2209.28,-1873.97,-5075.98
313374.2667,-10894.4,-1641.08,-1295.42,-4548.03
313374.2677,-10250.28,-1018.76,-662.18,-3979.73
313374.2687,-9613.71,-404.88,-37.77,-3429.51
313374.2697,-9029.48,160.22,529.72,-2935.22
313374.2707,-8516.41,663.42,1019.81,-2511.02
313374.2717,-8218.72,958.73,1302.29,-2279.09
313374.2727,-8143.09,1038.17,1378.87,-2238.51
313374.2737,-8225.73,967.17,1298.95,-2337.98
313374.2747,-8516.46,686.31,1011.66,-2620.32
313374.2757,-9003.83,214.34,539.92,-3070.69
313374.2767,-9624.96,-381.66,-58.94,-3622.1
313374.2777,-10297.87,-1029.92,-720.26,-4205.47
313374.2787,-10931.97,-1645.66,-1351.55,-4746.34
313374.2797,-11491.11,-2194.5,-1912.78,-5219.94
313374.2807,-11975.58,-2667.48,-2384.76,-5618.29
313374.2817,-12266.92,-2952.77,-2665.71,-5838.92
313374.2827,-12351.18,-3031.73,-2740.43,-5879.21
313374.2837,-12280.04,-2959.11,-2661.9,-5788.99
313374.2847,-11998.99,-2687.55,-2379.75,-5524.21
313374.2857,-11525.82,-2235.37,-1910.83,-5098.49
313374.2867,-10924.34,-1666.02,-1318.5,-4566.96
313374.2877,-10268.21,-1036.41,-665.24,-3991.37
313374.2887,-9638.12,-419.09,-43.39,-3444.86
313374.2897,-9063.53,140.57,517.89,-2959.39
313374.2907,-8553.79,634.96,1011.99,-2534.58
313374.2917,-8255.05,933.22,1297.66,-2297.12
313374.2927,-8168.32,1023.58,1373.29,-2249.29
313374.2937,-8234.26,955.92,1300.62,-2338.22
313374.2947,-8516.41,682.5,1014.85,-2615.07
313374.2957,-8997.06,216.96,533.49,-3059.58
313374.2967,-9608.46,-376.13,-72.67,-3607.23
313374.2977,-10284.19,-1031.59,-730.94,-4198.03
313374.2987,-10927.39,-1648.86,-1354.69,-4745.29
313374.2997,-11497.45,-2198.93,-1908.35,-5223.56
313374.3007,-11976.43,-2658.56,-2377.89,-5620.48
313374.3017,-12251.9,-2928.21,-2649.02,-5835.82
313374.3027,-12328.82,-3012.94,-2716.49,-5875.06
313374.3037,-12263.25,-2958.16,-2649.98,-5791.71
313374.3047,-11989.07,-2694.13,-2371.65,-5523.06
313374.3057,-11522.58,-2238.08,-1904.68,-5091.81
313374.3067,-10930.16,-1654.48,-1318.88,-4559.23
313374.3077,-10268.45,-1008.61,-668.1,-3981.07
313374.3087,-9624.39,-389.91,-40.39,-3432.56
313374.3097,-9043.31,170.47,528.48,-2942.94
313374.3107,-8532.0,664.42,1026.44,-2518.08
313374.3117,-8232.98,950.77,1315.45,-2284.0
313374.3127,-8150.63,1031.97,1389.98,-2243.85
313374.3137,-8222.06,962.5,1310.16,-2336.45
313374.3147,-8509.83,676.78,1020.24,-2617.03
313374.3157,-8998.82,200.18,534.58,-3066.73
313374.3167,-9618.66,-398.68,-78.3,-3624.25
313374.3177,-10297.4,-1051.14,-747.49,-4218.77
313374.3187,-10937.98,-1670.74,-1380.44,-4772.38
313374.3197,-11495.69,-2215.67,-1921.89,-5241.59
313374.3207,-11963.94,-2674.29,-2374.7,-5628.54
313374.3217,-12248.47,-2945.66,-2642.3,-5846.26
313374.3227,-12326.72,-3026.1,-2713.97,-5884.98
313374.3237,-12260.49,-2962.73,-2644.63,-5800.96
313374.3247,-11982.44,-2688.98,-2366.59,-5533.89
313374.3257,-11510.99,-2220.63,-1900.77,-5103.87
313374.3267,-10916.43,-1647.38,-1314.35,-4574.01
313374.3277,-10264.49,-1022.63,-668.38,-3995.61
313374.3287,-9624.58,-406.6,-40.39,-3435.9
313374.3297,-9036.26,151.97,532.82,-2933.07
313374.3307,-8522.23,655.7,1032.4,-2501.77
313374.3317,-8219.29,953.72,1325.8,-2273.89
313374.3327,-8130.03,1043.8,1413.39,-2230.02
313374.3337,-8192.49,990.01,1344.73,-2315.04
313374.3347,-8494.66,708.29,1037.6,-2608.01
313374.3357,-9000.97,226.31,535.25,-3066.25
313374.3367,-9620.95,-364.02,-75.05,-3614.86
313374.3377,-10286.86,-1007.75,-731.28,-4199.7
313374.3387,-10917.9,-1627.73,-1354.41,-4747.2
313374.3397,-11479.14,-2181.86,-1903.34,-5220.32
313374.3407,-11960.08,-2654.55,-2373.08,-5619.53
313374.3417,-12249.95,-2941.66,-2655.08,-5842.16
313374.3427,-12332.58,-3027.73,-2725.94,-5883.17
313374.3437,-12267.64,-2968.07,-2654.27,-5792.33
313374.3447,-11987.31,-2695.85,-2373.7,-5518.96
313374.3457,-11514.62,-2239.75,-1902.58,-5079.79
313374.3467,-10918.09,-1657.01,-1316.02,-4542.16
313374.3477,-10250.43,-1011.66,-662.37,-3959.37
313374.3487,-9597.97,-388.53,-23.41,-3399.37
313374.3497,-9012.89,177.76,548.74,-2906.13
313374.3507,-8512.59,670.1,1037.55,-2493.43
313374.3517,-8224.35,949.24,1320.03,-2274.7
313374.3527,-8150.15,1022.72,1395.8,-2240.85
313374.3537,-8227.92,954.15,1315.88,-2337.22
313374.3547,-8511.88,680.64,1027.01,-2617.88
313374.3557,-8992.77,212.38,549.6,-3058.72
313374.3567,-9621.62,-384.28,-70.52,-3612.47
313374.3577,-10304.55,-1042.18,-751.26,-4208.42
313374.3587,-10936.93,-1659.39,-1373.15,-4756.88
313374.3597,-11494.35,-2208.61,-1915.93,-5231.57
313374.3607,-11978.72,-2677.63,-2384.66,-5630.11
313374.3617,-12269.59,-2956.49,-2667.76,-5849.22
313374.3627,-12345.55,-3035.12,-2737.9,-5882.07
313374.3637,-12263.78,-2959.16,-2650.93,-5779.17
313374.3647,-11970.19,-2673.67,-2354.91,-5497.31
313374.3657,-11489.35,-2211.38,-1880.74,-5067.06
313374.3667,-10894.59,-1639.7,-1289.89,-4539.68
313374.3677,-10241.32,-1007.03,-642.59,-3967.09
313374.3687,-9608.99,-396.59,-20.46,-3422.21
313374.3697,-9031.96,164.22,550.17,-2931.88
313374.3707,-8527.8,653.31,1047.42,-2510.83
313374.3717,-8235.69,936.89,1329.14,-2285.43
313374.3727,-8160.64,1013.76,1403.9,-2249.34
313374.3737,-8234.88,945.47,1326.37,-2338.51
313374.3747,-8526.85,667.14,1021.58,-2617.22
313374.3757,-9022.19,193.31,508.5,-3070.31
313374.3767,-9642.65,-399.35,-117.25,-3623.15
313374.3777,-10316.8,-1046.09,-771.0,-4210.38
313374.3787,-10948.23,-1661.68,-1379.73,-4753.59
313374.3797,-11499.69,-2203.7,-1913.74,-5223.37
313374.3807,-11960.46,-2662.61,-2364.11,-5612.71
313374.3817,-12235.5,-2933.79,-2631.62,-5829.38
313374.3827,-12319.76,-3016.9,-2722.12,-5875.92
313374.3837,-12256.81,-2952.81,-2656.56,-5792.76
313374.3847,-11975.1,-2678.92,-2368.07,-5522.44
313374.3857,-11499.45,-2215.91,-1891.61,-5088.04
313374.3867,-10897.83,-1639.51,-1297.04,-4549.84
313374.3877,-10239.94,-1006.79,-651.36,-3972.53
313374.3887,-9611.85,-394.25,-35.33,-3429.22
313374.3897,-9040.93,165.99,528.81,-2941.47
313374.3907,-8537.01,659.28,1023.2,-2515.84
313374.3917,-8240.75,946.66,1311.64,-2279.57
313374.3927,-8155.63,1031.35,1394.61,-2233.74
313374.3937,-8228.49,966.5,1321.27,-2324.92
313374.3947,-8515.22,692.8,1030.83,-2605.15
313374.3957,-9002.54,220.82,543.98,-3054.0
313374.3967,-9624.82,-377.13,-73.72,-3608.66
313374.3977,-10300.69,-1032.69,-743.58,-4200.98
313374.3987,-10942.98,-1657.77,-1372.15,-4751.97
313374.3997,-11508.94,-2210.0,-1926.23,-5229.28
313374.4007,-11985.68,-2676.82,-2392.91,-5626.73
313374.4017,-12263.16,-2950.95,-2664.42,-5844.93
313374.4027,-12332.77,-3026.44,-2730.32,-5880.07
313374.4037,-12251.0,-2950.86,-2644.11,-5784.89
313374.4047,-11959.13,-2673.48,-2354.57,-5512.38
313374.4057,-11483.86,-2216.91,-1883.65,-5081.03
313374.4067,-10892.82,-1647.66,-1296.47,-4549.46
313374.4077,-10241.37,-1016.24,-652.03,-3975.11
313374.4087,-9605.36,-397.92,-25.51,-3427.65
313374.4097,-9029.96,161.17,542.4,-2938.51
313374.4107,-8529.47,649.02,1031.45,-2519.94
313374.4117,-8237.65,932.17,1316.36,-2291.68
313374.4127,-8159.73,1014.04,1386.64,-2252.39
313374.4137,-8240.27,939.99,1300.05,-2346.23
313374.4147,-8537.63,657.46,1000.36,-2633.43
313374.4157,-9023.1,194.69,519.18,-3074.55
313374.4167,-9630.4,-394.49,-85.5,-3610.71
313374.4177,-10307.5,-1048.99,-753.12,-4196.22
313374.4187,-10942.98,-1663.69,-1372.91,-4742.53
313374.4197,-11504.51,-2207.37,-1921.7,-5217.98
313374.4207,-11979.1,-2664.95,-2384.47,-5614.38
313374.4217,-12251.76,-2928.59,-2647.11,-5828.81
313374.4227,-12328.39,-3008.51,-2716.59,-5866.39
313374.4237,-12253.95,-2945.28,-2640.63,-5777.55
313374.4247,-11970.38,-2673.72,-2358.77,-5505.75
313374.4257,-11499.55,-2224.4,-1890.14,-5073.88
313374.4267,-10901.83,-1656.96,-1300.67,-4545.69
313374.4277,-10240.17,-1024.68,-652.41,-3967.62
313374.4287,-9600.97,-410.41,-27.23,-3419.16
313374.4297,-9026.0,152.02,537.59,-2934.46
313374.4307,-8526.42,641.06,1027.49,-2525.38
313374.4317,-8242.66,921.58,1308.44,-2316.67
313374.4327,-8170.56,997.97,1383.11,-2288.39
313374.4337,-8243.04,936.17,1302.48,-2381.75
313374.4347,-8531.62,660.47,1007.84,-2658.56
313374.4357,-9013.75,194.84,528.48,-3098.15
313374.4367,-9620.67,-394.54,-73.86,-3638.22
313374.4377,-10297.54,-1047.23,-742.44,-4222.58
313374.4387,-10953.05,-1671.27,-1388.03,-4768.09
313374.4397,-11531.16,-2223.06,-1955.8,-5239.2
313374.4407,-11997.42,-2685.98,-2404.69,-5611.94
313374.4417,-12254.19,-2953.86,-2648.21,-5802.58
313374.4427,-12318.56,-3020.48,-2703.81,-5834.96
313374.4437,-12248.33,-2951.0,-2628.66,-5755.38
313374.4447,-11977.86,-2682.02,-2354.0,-5498.93
313374.4457,-11512.85,-2230.07,-1892.28,-5081.23
313374.4467,-10924.67,-1662.87,-1315.55,-4556.13
313374.4477,-10261.16,-1024.77,-670.72,-3972.24
313374.4487,-9606.36,-390.82,-28.56,-3409.0
313374.4497,-9018.37,182.58,549.84,-2915.24
313374.4507,-8511.02,671.77,1050.38,-2500.44
313374.4517,-8213.76,959.59,1336.43,-2276.28
313374.4527,-8137.66,1038.93,1400.04,-2235.6
313374.4537,-8217.91,956.3,1313.92,-2332.31
313374.4547,-8507.82,666.09,1026.87,-2611.26
313374.4557,-8995.53,203.18,546.26,-3057.0
313374.4567,-9620.1,-390.1,-72.05,-3607.99
313374.4577,-10299.78,-1046.61,-745.82,-4202.46
313374.4587,-10936.55,-1665.83,-1368.95,-4750.63
313374.4597,-11502.84,-2221.44,-1919.99,-5227.42
313374.4607,-11982.73,-2693.22,-2384.23,-5621.24
313374.4617,-12261.49,-2966.74,-2650.6,-5834.63
313374.4627,-12332.77,-3035.64,-2716.97,-5867.29
313374.4637,-12260.77,-2955.72,-2647.88,-5778.79
313374.4647,-11964.7,-2672.43,-2355.53,-5500.03
313374.4657,-11473.04,-2201.84,-1866.44,-5054.28
313374.4667,-10875.75,-1619.39,-1279.5,-4523.37
313374.4677,-10220.72,-981.04,-636.91,-3947.59
313374.4687,-9586.53,-365.07,-13.78,-3401.47
313374.4697,-9007.31,192.4,556.9,-2911.38
313374.4707,-8503.34,679.87,1054.19,-2493.43
313374.4717,-8219.05,957.68,1326.75,-2276.85
313374.4727,-8146.53,1030.4,1390.93,-2245.28
313374.4737,-8219.53,961.4,1313.07,-2335.36
313374.4747,-8510.21,679.92,1017.14,-2615.93
313374.4757,-9005.98,208.52,521.28,-3062.77
313374.4767,-9627.34,-384.33,-89.5,-3612.47
313374.4777,-10304.26,-1041.27,-754.4,-4199.03
313374.4787,-10945.37,-1662.25,-1381.11,-4745.72
313374.4797,-11512.33,-2216.77,-1935.43,-5223.08
313374.4807,-11995.51,-2686.45,-2405.21,-5623.68
313374.4817,-12274.36,-2960.01,-2676.06,-5845.07
313374.4827,-12349.32,-3036.4,-2744.48,-5886.08
313374.4837,-12270.07,-2964.54,-2659.94,-5792.14
313374.4847,-11979.77,-2688.5,-2366.97,-5515.62
313374.4857,-11501.12,-2227.4,-1895.38,-5084.23
313374.4867,-10903.93,-1648.0,-1307.2,-4547.6
313374.4877,-10241.61,-1009.56,-653.55,-3966.43
313374.4887,-9593.92,-385.57,-13.83,-3414.01
313374.4897,-8999.92,189.54,570.68,-2916.29
313374.4907,-8493.14,680.73,1065.87,-2492.52
313374.4917,-8216.19,955.63,1330.19,-2273.61
313374.4927,-8153.58,1028.68,1386.93,-2239.7
313374.4937,-8234.12,953.34,1301.48,-2337.27
313374.4947,-8530.19,667.0,1006.89,-2618.12
313374.4957,-9017.56,194.17,522.42,-3064.82
313374.4967,-9634.31,-397.25,-86.98,-3613.33
313374.4977,-10317.04,-1051.0,-754.93,-4205.51
313374.4987,-10963.16,-1673.17,-1384.69,-4753.54
313374.4997,-11530.11,-2222.63,-1935.53,-5231.91
313374.5007,-12010.77,-2695.51,-2404.26,-5631.02
313374.5017,-12294.01,-2976.61,-2681.59,-5851.65
313374.5027,-12372.11,-3053.71,-2753.59,-5889.99
313374.5037,-12285.33,-2974.56,-2665.33,-5790.04
313374.5047,-11982.54,-2689.55,-2362.54,-5509.23
313374.5057,-11498.17,-2226.5,-1882.51,-5073.02
313374.5067,-10887.72,-1638.08,-1285.17,-4535.53
313374.5077,-10217.29,-981.95,-627.57,-3950.64
313374.5087,-9579.8,-361.35,-0.1,-3401.85
313374.5097,-9008.31,191.83,558.04,-2918.15
313374.5107,-8503.15,678.83,1047.61,-2500.58
313374.5117,-8215.24,959.25,1324.46,-2276.75
313374.5127,-8136.23,1035.12,1398.95,-2237.13
313374.5137,-8214.19,962.4,1315.64,-2334.64
313374.5147,-8519.94,671.67,1010.94,-2624.85
313374.5157,-9020.04,190.64,510.6,-3077.98
313374.5167,-9643.32,-407.31,-102.0,-3627.49
313374.5177,-10318.71,-1057.34,-763.23,-4213.24
313374.5187,-10957.34,-1673.22,-1385.16,-4757.26
313374.5197,-11518.86,-2217.48,-1933.86,-5230.62
313374.5207,-11991.12,-2675.39,-2395.96,-5620.77
313374.5217,-12263.97,-2943.8,-2657.56,-5831.67
313374.5227,-12336.59,-3019.48,-2725.55,-5867.39
313374.5237,-12262.06,-2950.0,-2641.77,-5772.69
313374.5247,-11970.09,-2671.77,-2351.05,-5494.31
313374.5257,-11492.54,-2214.48,-1875.26,-5060.24
313374.5267,-10891.06,-1634.07,-1281.4,-4530.48
313374.5277,-10226.11,-995.06,-630.57,-3957.27
313374.5287,-9584.43,-379.85,-2.0,-3409.43
313374.5297,-9003.45,181.72,563.81,-2918.05
313374.5307,-8496.91,674.68,1052.09,-2499.53
313374.5317,-8210.28,960.78,1326.94,-2279.62
313374.5327,-8132.55,1041.94,1399.9,-2240.94
313374.5337,-8212.04,965.55,1313.97,-2337.98
313374.5347,-8517.65,673.68,1008.89,-2626.28
313374.5357,-9018.37,194.84,515.41,-3078.27
313374.5367,-9635.59,-401.83,-93.17,-3625.92
313374.5377,-10308.08,-1056.15,-754.02,-4212.67
313374.5387,-10949.18,-1675.27,-1378.82,-4758.55
313374.5397,-11517.72,-2226.64,-1932.24,-5236.29
313374.5407,-11998.85,-2694.18,-2394.25,-5631.54
313374.5417,-12275.41,-2965.5,-2651.79,-5845.45
313374.5427,-12345.08,-3035.78,-2717.02,-5879.93
313374.5437,-12261.2,-2963.78,-2645.73,-5784.7
313374.5447,-11967.23,-2683.88,-2364.54,-5505.23
313374.5457,-11489.63,-2222.82,-1893.33,-5069.54
313374.5467,-10890.01,-1645.57,-1294.71,-4536.49
313374.5477,-10226.44,-1003.17,-633.19,-3958.03
313374.5487,-9583.57,-383.33,-0.86,-3409.48
313374.5497,-9010.36,181.34,562.38,-2921.2
313374.5507,-8508.02,672.72,1048.28,-2502.01
313374.5517,-8217.0,957.87,1327.66,-2276.13
313374.5527,-8141.14,1034.64,1399.37,-2238.56
313374.5537,-8221.72,958.06,1314.07,-2337.07
313374.5547,-8522.65,669.38,1010.66,-2625.66
313374.5557,-9022.86,191.4,520.71,-3072.69
313374.5567,-9640.89,-408.89,-92.94,-3623.3
313374.5577,-10320.28,-1064.35,-763.75,-4215.57
313374.5587,-10964.35,-1685.1,-1395.94,-4767.47
313374.5597,-11528.83,-2238.94,-1950.93,-5245.07
313374.5607,-12005.33,-2702.67,-2413.18,-5638.65
313374.5617,-12281.47,-2967.64,-2675.06,-5848.41
313374.5627,-12359.48,-3041.41,-2740.29,-5889.08
313374.5637,-12277.65,-2968.07,-2650.36,-5795.86
313374.5647,-11977.96,-2680.4,-2345.94,-5510.04
313374.5657,-11493.49,-2217.34,-1872.44,-5071.12
313374.5667,-10893.63,-1636.46,-1284.55,-4535.48
313374.5677,-10235.17,-994.87,-631.28,-3955.46
313374.5687,-9598.3,-382.52,-0.81,-3405.33
313374.5697,-9017.56,176.72,572.4,-2915.95
313374.5707,-8505.73,666.76,1061.11,-2495.1
313374.5717,-8223.06,941.94,1318.17,-2279.28
313374.5727,-8159.45,1012.66,1374.72,-2250.05
313374.5737,-8240.18,934.55,1300.05,-2353.95
313374.5747,-8536.15,650.93,1004.65,-2640.01
313374.5757,-9023.62,181.96,509.79,-3087.52
313374.5767,-9631.4,-407.31,-97.8,-3630.45
313374.5777,-10304.93,-1056.0,-753.93,-4216.1
313374.5787,-10955.0,-1678.47,-1387.21,-4769.66
313374.5797,-11525.06,-2228.98,-1941.87,-5245.78
313374.5807,-12006.9,-2697.56,-2407.26,-5638.84
313374.5817,-12289.76,-2972.51,-2678.44,-5851.56
313374.5827,-12366.01,-3043.03,-2751.45,-5885.98
313374.5837,-12284.47,-2960.73,-2666.62,-5789.52
313374.5847,-11977.86,-2671.19,-2359.1,-5499.22
313374.5857,-11479.09,-2203.99,-1866.82,-5047.37
313374.5867,-10875.08,-1623.87,-1270.44,-4512.6
313374.5877,-10220.24,-988.77,-623.27,-3942.06
313374.5887,-9587.38,-375.56,0.91,-3402.85
313374.5897,-9007.31,185.82,570.01,-2916.81
313374.5907,-8501.39,671.1,1057.82,-2504.16
313374.5917,-8220.72,938.22,1323.89,-2287.53
313374.5927,-8151.15,1017.62,1388.12,-2251.24
313374.5937,-8230.07,954.77,1302.24,-2349.09
313374.5947,-8526.76,661.37,1006.6,-2630.09
313374.5957,-9021.38,179.43,515.99,-3073.03
313374.5967,-9646.75,-421.48,-100.71,-3628.4
313374.5977,-10337.45,-1076.41,-783.63,-4229.26
313374.5987,-10982.51,-1692.92,-1416.06,-4778.86
313374.5997,-11546.9,-2240.66,-1970.15,-5254.94
313374.6007,-12008.95,-2700.42,-2423.1,-5640.22
313374.6017,-12270.74,-2965.31,-2673.29,-5837.87
313374.6027,-12337.83,-3028.49,-2724.27,-5861.81
313374.6037,-12246.47,-2936.08,-2632.19,-5757.0
313374.6047,-11949.4,-2654.51,-2334.4,-5475.0
313374.6057,-11470.37,-2200.08,-1855.18,-5040.03
313374.6067,-10875.8,-1623.68,-1262.62,-4514.07
313374.6077,-10216.0,-980.9,-611.78,-3936.72
313374.6087,-9573.56,-353.38,23.56,-3381.06
313374.6097,-8992.29,212.96,590.23,-2887.68
313374.6107,-8482.36,700.52,1085.14,-2463.1
313374.6117,-8195.93,975.9,1356.08,-2245.0
313374.6127,-8128.98,1046.71,1412.63,-2217.72
313374.6137,-8212.71,971.22,1321.36,-2324.87
313374.6147,-8516.46,678.68,1013.09,-2618.74
313374.6157,-9016.51,198.03,518.04,-3075.17
313374.6167,-9638.88,-405.26,-96.27,-3630.73
313374.6177,-10319.9,-1064.11,-764.75,-4227.45
313374.6187,-10964.68,-1687.34,-1396.08,-4778.91
313374.6197,-11535.5,-2239.28,-1954.98,-5259.23
313374.6207,-12015.49,-2702.81,-2418.95,-5652.09
313374.6217,-12284.57,-2968.36,-2670.48,-5857.28
313374.6227,-12348.22,-3033.02,-2723.5,-5878.16
313374.6237,-12243.99,-2949.67,-2624.8,-5769.97
313374.6247,-11942.39,-2663.42,-2327.92,-5484.39
313374.6257,-11469.65,-2197.84,-1861.1,-5049.28
313374.6267,-10869.08,-1622.01,-1264.38,-4513.55
313374.6277,-10201.93,-982.86,-608.25,-3933.05
313374.6287,-9566.5,-363.92,20.31,-3390.07
313374.6297,-8992.48,193.74,584.55,-2905.18
313374.6307,-8495.76,678.49,1069.02,-2491.43
313374.6317,-8213.85,955.96,1343.54,-2272.46
313374.6327,-8135.03,1031.92,1416.59,-2228.31
313374.6337,-8215.81,953.96,1329.33,-2321.82
313374.6347,-8525.18,664.42,1016.28,-2616.36
313374.6357,-9022.24,190.4,522.23,-3071.98
313374.6367,-9639.65,-403.74,-90.89,-3624.77
313374.6377,-10319.66,-1061.92,-773.38,-4219.1
313374.6387,-10961.58,-1682.42,-1408.34,-4768.09
313374.6397,-11520.82,-2230.45,-1950.36,-5243.54
313374.6407,-11991.31,-2692.37,-2402.45,-5633.07
313374.6417,-12265.4,-2960.68,-2660.23,-5845.88
313374.6427,-12338.83,-3038.41,-2729.03,-5880.79
313374.6437,-12264.92,-2965.26,-2651.83,-5780.46
313374.6447,-11971.05,-2678.92,-2355.1,-5497.74
313374.6457,-11486.77,-2214.24,-1871.4,-5060.72
313374.6467,-10886.48,-1635.27,-1276.87,-4530.72
313374.6477,-10229.4,-998.31,-627.71,-3962.95
313374.6487,-9598.02,-389.19,-7.15,-3423.31
313374.6497,-9020.42,167.04,558.57,-2931.93
313374.6507,-8521.18,653.46,1043.46,-2507.26
313374.6517,-8237.84,939.42,1313.5,-2276.75
313374.6527,-8163.55,1023.48,1379.87,-2236.99
313374.6537,-8245.66,946.52,1291.51,-2329.64
313374.6547,-8554.08,660.71,980.42,-2617.69
313374.6557,-9052.04,184.82,486.99,-3069.35
313374.6567,-9664.16,-412.75,-119.88,-3619.0
313374.6577,-10322.67,-1057.1,-769.19,-4201.51
313374.6587,-10948.99,-1667.55,-1384.31,-4745.44
313374.6597,-11509.52,-2214.38,-1932.57,-5221.7
313374.6607,-11981.06,-2674.2,-2392.82,-5612.8
313374.6617,-12254.81,-2946.23,-2655.32,-5826.95
313374.6627,-12329.2,-3023.05,-2720.93,-5866.24
313374.6637,-12249.71,-2950.76,-2633.91,-5774.59
313374.6647,-11954.31,-2672.39,-2335.83,-5494.36
313374.6657,-11467.89,-2206.99,-1852.04,-5051.42
313374.6667,-10863.4,-1621.34,-1252.22,-4513.5
313374.6677,-10205.13,-983.0,-600.53,-3935.39
313374.6687,-9573.56,-370.31,20.79,-3392.32
313374.6697,-9004.88,187.68,582.12,-2908.8
313374.6707,-8504.92,676.68,1070.4,-2494.81
313374.6717,-8209.75,958.44,1345.06,-2268.84
313374.6727,-8138.94,1033.45,1397.32,-2234.6
313374.6737,-8238.36,941.66,1294.76,-2345.42
313374.6747,-8552.31,637.2,986.48,-2645.02
313374.6757,-9055.0,144.77,488.19,-3108.22
313374.6767,-9682.04,-469.78,-133.56,-3669.83
313374.6777,-10362.34,-1125.57,-798.99,-4263.78
313374.6787,-10992.62,-1738.31,-1416.16,-4805.57
313374.6797,-11541.46,-2275.32,-1957.04,-5268.34
313374.6807,-12017.11,-2728.46,-2418.85,-5654.67
313374.6817,-12292.72,-2982.9,-2686.98,-5865.48
313374.6827,-12354.28,-3037.31,-2747.82,-5889.42
313374.6837,-12250.14,-2938.51,-2643.92,-5763.25
313374.6847,-11937.72,-2639.63,-2330.73,-5459.93
313374.6857,-11460.35,-2178.53,-1852.7,-5026.2
313374.6867,-10864.26,-1598.6,-1259.04,-4498.15
313374.6877,-10198.88,-960.97,-604.82,-3918.93
313374.6887,-9564.45,-350.28,21.22,-3377.06
313374.6897,-8995.34,205.23,583.22,-2893.78
313374.6907,-8494.71,694.89,1072.93,-2475.36
313374.6917,-8208.99,974.32,1348.16,-2253.96
313374.6927,-8138.61,1050.28,1408.96,-2220.39
313374.6937,-8229.54,965.02,1314.12,-2324.68
313374.6947,-8544.02,660.8,1002.36,-2627.23
313374.6957,-9043.5,176.95,511.03,-3084.66
313374.6967,-9649.8,-413.23,-94.99,-3625.2
313374.6977,-10309.32,-1053.76,-745.34,-4204.8
313374.6987,-10945.75,-1668.69,-1369.67,-4748.92
313374.6997,-11515.52,-2225.92,-1925.47,-5230.24
313374.7007,-11991.36,-2690.98,-2391.29,-5627.39
313374.7017,-12265.06,-2957.34,-2656.94,-5839.06
313374.7027,-12334.35,-3028.25,-2718.59,-5871.58
313374.7037,-12245.42,-2948.09,-2624.18,-5767.39
313374.7047,-11946.25,-2658.51,-2319.05,-5480.39
313374.7057,-11462.36,-2195.07,-1842.07,-5043.7
313374.7067,-10861.02,-1613.57,-1256.32,-4509.12
313374.7077,-10203.32,-975.08,-608.4,-3931.05
313374.7087,-9572.98,-361.63,9.25,-3388.36
313374.7097,-8998.92,198.08,566.96,-2903.18
313374.7107,-8492.04,687.65,1059.15,-2484.7
313374.7117,-8209.61,962.88,1323.99,-2270.22
313374.7127,-8143.52,1029.21,1388.84,-2239.18
313374.7137,-8233.07,948.72,1297.66,-2339.32
313374.7147,-8538.2,656.56,996.64,-2625.32
313374.7157,-9038.88,176.48,508.17,-3077.32
313374.7167,-9660.48,-419.81,-98.94,-3629.06
313374.7177,-10331.11,-1068.16,-757.22,-4217.77
313374.7187,-10969.97,-1689.01,-1387.83,-4769.37
313374.7197,-11542.37,-2245.33,-1946.16,-5253.89
313374.7207,-12012.53,-2705.05,-2403.12,-5644.37
313374.7217,-12277.51,-2965.69,-2659.99,-5850.13
313374.7227,-12346.08,-3034.78,-2719.78,-5879.55
313374.7237,-12261.96,-2955.39,-2633.76,-5777.79
313374.7247,-11968.04,-2670.91,-2344.8,-5497.84
313374.7257,-11486.63,-2203.89,-1873.16,-5058.81
313374.7267,-10878.75,-1621.29,-1272.25,-4522.18
313374.7277,-10213.09,-974.04,-619.36,-3945.45
313374.7287,-9581.85,-354.91,1.48,-3405.62
313374.7297,-9009.51,206.18,574.87,-2922.73
313374.7307,-8509.4,686.45,1069.74,-2509.02
313374.7317,-8235.5,954.87,1330.04,-2291.39
313374.7327,-8166.7,1019.24,1386.31,-2255.15
313374.7337,-8248.28,929.16,1294.57,-2354.86
313374.7347,-8548.93,630.43,984.62,-2639.87
313374.7357,-9044.74,149.73,491.67,-3083.13
313374.7367,-9662.58,-446.8,-122.64,-3636.79
313374.7377,-10326.2,-1094.53,-776.72,-4234.74
313374.7387,-10946.42,-1694.01,-1383.73,-4779.29
313374.7397,-11500.74,-2219.96,-1924.04,-5241.11
313374.7407,-11977.15,-2671.29,-2384.76,-5623.44
313374.7417,-12253.1,-2941.7,-2642.97,-5833.58
313374.7427,-12326.77,-3016.81,-2709.06,-5866.0
313374.7437,-12248.8,-2941.27,-2624.56,-5765.96
313374.7447,-11952.35,-2656.08,-2327.97,-5479.34
313374.7457,-11463.12,-2196.84,-1842.64,-5036.78
313374.7467,-10860.02,-1617.53,-1242.69,-4501.01
313374.7477,-10199.45,-979.04,-594.52,-3922.99
313374.7487,-9564.93,-368.93,21.79,-3379.82
313374.7497,-8993.29,185.16,577.12,-2898.93
313374.7507,-8500.05,666.14,1062.35,-2483.08
313374.7517,-8221.87,937.13,1331.62,-2267.5
313374.7527,-8148.91,1010.47,1394.89,-2236.94
313374.7537,-8235.17,935.98,1302.05,-2342.75
313374.7547,-8549.02,647.69,992.01,-2639.87
313374.7557,-9042.45,176.57,505.97,-3086.71
313374.7567,-9654.62,-414.56,-106.05,-3631.54
313374.7577,-10328.01,-1067.73,-772.43,-4218.77
313374.7587,-10969.21,-1690.15,-1396.75,-4768.18
313374.7597,-11540.41,-2244.28,-1951.69,-5247.21
313374.7607,-12012.24,-2705.67,-2412.41,-5634.88
313374.7617,-12281.04,-2965.88,-2671.81,-5841.83
313374.7627,-12351.09,-3036.17,-2732.75,-5872.82
313374.7637,-12262.39,-2959.87,-2635.53,-5769.4
313374.7647,-11954.17,-2665.95,-2329.64,-5482.29
313374.7657,-11475.71,-2202.22,-1853.32,-5050.37
313374.7667,-10876.94,-1628.92,-1263.24,-4522.04
313374.7677,-10212.8,-989.1,-610.73,-3946.83
313374.7687,-9577.04,-372.03,12.06,-3402.19
313374.7697,-9004.16,188.02,573.64,-2916.29
313374.7707,-8506.97,673.48,1059.63,-2505.16
313374.7717,-8221.63,952.39,1335.91,-2284.24
313374.7727,-8138.61,1031.35,1414.16,-2240.66
313374.7737,-8222.06,948.95,1319.65,-2344.42
313374.7747,-8534.48,646.83,1004.31,-2643.49
313374.7757,-9040.07,162.17,506.12,-3100.49
313374.7767,-9668.83,-438.59,-109.96,-3650.62
313374.7777,-10339.4,-1096.49,-771.38,-4234.17
313374.7787,-10967.3,-1704.41,-1389.31,-4765.13
313374.7797,-11526.73,-2239.66,-1933.67,-5229.9
313374.7807,-11998.8,-2693.61,-2390.67,-5619.1
313374.7817,-12273.27,-2957.11,-2658.89,-5830.57
313374.7827,-12350.85,-3034.5,-2737.71,-5868.72
313374.7837,-12260.96,-2957.01,-2643.54,-5765.15
313374.7847,-11956.98,-2670.15,-2333.83,-5476.14
313374.7857,-11473.04,-2199.84,-1854.94,-5038.31
313374.7867,-10873.27,-1614.71,-1268.67,-4508.26
313374.7877,-10207.32,-972.13,-618.55,-3931.67
313374.7887,-9560.16,-346.52,16.74,-3379.15
313374.7897,-8975.75,220.97,590.37,-2883.72
313374.7907,-8481.79,699.57,1075.98,-2473.26
313374.7917,-8212.38,962.69,1336.15,-2264.88
313374.7927,-8154.06,1025.25,1392.32,-2241.56
313374.7937,-8248.43,934.36,1301.0,-2352.09
313374.7947,-8561.71,628.38,993.06,-2653.93
313374.7957,-9063.82,147.96,486.8,-3113.22
313374.7967,-9690.33,-445.7,-135.52,-3663.64
313374.7977,-10362.1,-1099.16,-799.37,-4248.91
313374.7987,-10982.99,-1708.51,-1406.38,-4777.96
313374.7997,-11531.93,-2246.67,-1939.87,-5237.06
313374.8007,-12001.47,-2703.71,-2395.68,-5620.43
313374.8017,-12272.69,-2961.83,-2654.12,-5830.96
313374.8027,-12343.93,-3032.49,-2721.12,-5874.73
313374.8037,-12259.77,-2950.1,-2634.95,-5779.89
313374.8047,-11952.97,-2656.79,-2324.77,-5484.2
313374.8057,-11456.68,-2189.35,-1830.82,-5028.82
313374.8067,-10848.29,-1600.07,-1229.48,-4486.66
313374.8077,-10186.96,-954.53,-583.98,-3905.68
313374.8087,-9553.2,-337.31,33.0,-3361.85
313374.8097,-8976.13,220.87,600.43,-2878.95
313374.8107,-8489.09,693.94,1077.22,-2477.36
313374.8117,-8224.97,954.87,1326.7,-2274.94
313374.8127,-8164.65,1022.24,1383.21,-2245.24
313374.8137,-8247.19,940.47,1300.0,-2349.62
313374.8147,-8549.88,645.21,996.54,-2646.92
313374.8157,-9050.37,157.79,496.29,-3103.16
313374.8167,-9672.5,-442.17,-121.16,-3654.24
313374.8177,-10350.47,-1095.96,-784.35,-4242.23
313374.8187,-10987.09,-1709.08,-1407.0,-4784.97
313374.8197,-11551.05,-2251.2,-1960.33,-5260.85
313374.8207,-12021.07,-2700.19,-2419.85,-5647.99
313374.8217,-12276.46,-2949.1,-2666.52,-5843.35
313374.8227,-12330.82,-3014.9,-2716.78,-5864.1
313374.8237,-12230.87,-2933.55,-2618.41,-5758.1
313374.8247,-11928.27,-2642.11,-2311.95,-5467.75
313374.8257,-11447.0,-2178.34,-1835.58,-5027.72
313374.8267,-10844.42,-1602.32,-1242.11,-4491.85
313374.8277,-10179.14,-961.26,-580.45,-3912.45
313374.8287,-9546.57,-349.09,45.25,-3372.48
313374.8297,-8977.6,204.99,598.91,-2896.69
313374.8307,-8488.75,687.27,1077.22,-2496.1
313374.8317,-8215.24,961.21,1346.64,-2283.19
313374.8327,-8142.71,1034.69,1412.3,-2243.71
313374.8337,-8227.54,954.77,1314.78,-2339.12
313374.8347,-8540.73,655.75,1000.36,-2635.53
313374.8357,-9041.64,171.95,507.74,-3088.67
313374.8367,-9662.92,-425.43,-103.43,-3635.98
313374.8377,-10334.68,-1075.6,-765.85,-4222.25
313374.8387,-10970.55,-1696.44,-1392.75,-4765.99
313374.8397,-11539.65,-2249.43,-1957.37,-5242.87
313374.8407,-12017.49,-2705.81,-2427.48,-5635.07
313374.8417,-12281.61,-2964.93,-2676.15,-5836.73
313374.8427,-12339.93,-3029.2,-2726.03,-5862.33
313374.8437,-12249.28,-2942.99,-2642.82,-5757.19
313374.8447,-11944.68,-2652.79,-2350.86,-5471.66
313374.8457,-11459.64,-2181.82,-1867.25,-5031.92
313374.8467,-10856.68,-1598.12,-1261.81,-4493.67
313374.8477,-10191.49,-958.59,-595.86,-3913.59
313374.8487,-9551.0,-340.27,47.87,-3365.33
313374.8497,-8970.31,220.73,624.13,-2877.0
313374.8507,-8476.69,705.39,1102.11,-2466.15
313374.8517,-8209.28,967.46,1350.55,-2261.16
313374.8527,-8147.96,1032.16,1408.0,-2234.41
313374.8537,-8237.32,946.95,1315.02,-2338.84
313374.8547,-8547.83,646.64,999.36,-2640.15
313374.8557,-9055.66,159.88,495.48,-3102.97
313374.8567,-9682.32,-445.22,-124.17,-3660.44
313374.8577,-10360.29,-1103.83,-790.93,-4253.96
313374.8587,-10997.11,-1721.72,-1415.16,-4799.22
313374.8597,-11555.15,-2263.12,-1962.76,-5268.62
313374.8607,-12017.11,-2711.11,-2415.32,-5647.76
313374.8617,-12284.8,-2965.26,-2675.44,-5850.27
313374.8627,-12353.99,-3033.02,-2739.19,-5883.5
313374.8637,-12269.69,-2953.43,-2651.07,-5781.17
313374.8647,-11962.7,-2662.75,-2346.99,-5489.78
313374.8657,-11465.46,-2192.26,-1853.04,-5039.64
313374.8667,-10848.38,-1604.56,-1243.4,-4498.53
313374.8677,-10180.33,-966.07,-582.55,-3922.89
313374.8687,-9547.57,-352.53,45.59,-3386.02
313374.8697,-8976.46,206.9,611.69,-2906.18
313374.8707,-8482.22,693.51,1092.29,-2491.67
313374.8717,-8209.42,963.12,1350.98,-2278.85
313374.8727,-8154.73,1026.39,1399.33,-2247.81
313374.8737,-8253.67,941.94,1295.52,-2351.0
313374.8747,-8567.52,640.34,979.23,-2645.21
313374.8757,-9061.24,157.02,484.85,-3089.24
313374.8767,-9677.6,-443.55,-125.41,-3637.12
313374.8777,-10348.04,-1092.0,-785.92,-4228.02
313374.8787,-10974.22,-1700.97,-1399.9,-4769.56
313374.8797,-11530.35,-2248.34,-1945.45,-5245.11
313374.8807,-11999.94,-2705.15,-2401.5,-5630.88
313374.8817,-12269.31,-2960.59,-2659.27,-5836.58
313374.8827,-12337.07,-3027.3,-2719.35,-5867.77
313374.8837,-12240.36,-2946.57,-2615.55,-5758.57
313374.8847,-11924.03,-2650.12,-2298.93,-5465.13
313374.8857,-11434.84,-2176.9,-1815.41,-5023.05
313374.8867,-10850.38,-1598.69,-1240.11,-4501.2
313374.8877,-10206.22,-966.31,-603.06,-3936.67
313374.8887,-9573.99,-347.66,22.6,-3393.08
313374.8897,-8999.16,206.85,584.08,-2902.22
313374.8907,-8496.43,675.92,1072.5,-2478.55
313374.8917,-8218.24,939.08,1333.09,-2257.35
313374.8927,-8154.68,1013.71,1392.27,-2228.93
313374.8937,-8244.85,932.84,1300.53,-2335.98
313374.8947,-8558.75,628.23,984.95,-2636.29
313374.8957,-9068.87,137.23,482.08,-3096.63
313374.8967,-9695.01,-463.3,-136.66,-3650.62
313374.8977,-10359.29,-1094.2,-792.69,-4235.6
313374.8987,-10975.74,-1687.72,-1399.9,-4768.32
313374.8997,-11531.69,-2232.79,-1947.26,-5241.44
313374.9007,-12001.42,-2688.65,-2406.17,-5630.21
313374.9017,-12263.11,-2943.99,-2654.51,-5832.86
313374.9027,-12323.62,-3014.33,-2710.53,-5860.76
313374.9037,-12234.78,-2933.93,-2619.22,-5756.57
313374.9047,-11930.99,-2640.77,-2311.95,-5470.09
313374.9057,-11441.38,-2173.38,-1824.71,-5029.11
313374.9067,-10838.89,-1595.83,-1228.19,-4498.67
313374.9077,-10184.34,-963.02,-584.41,-3928.76
313374.9087,-9554.2,-348.42,34.86,-3382.68
313374.9097,-8982.75,211.33,599.1,-2894.16
313374.9107,-8488.37,690.13,1082.33,-2483.65
313374.9117,-8221.67,954.96,1337.0,-2274.37
313374.9127,-8159.21,1025.1,1390.41,-2242.61
313374.9137,-8230.07,952.39,1315.83,-2332.54
313374.9147,-8523.51,663.23,1020.15,-2623.75
313374.9157,-9025.43,182.77,522.18,-3081.99
313374.9167,-9648.18,-414.71,-94.51,-3634.88
313374.9177,-10320.47,-1062.77,-755.02,-4221.34
313374.9187,-10964.3,-1681.9,-1394.46,-4773.9
313374.9197,-11545.33,-2245.14,-1964.76,-5258.99
313374.9207,-12020.54,-2709.96,-2425.38,-5643.51
313374.9217,-12282.9,-2968.12,-2670.72,-5835.25
313374.9227,-12344.41,-3034.35,-2718.69,-5860.0
313374.9237,-12249.57,-2947.04,-2617.45,-5753.85
313374.9247,-11938.29,-2649.59,-2302.74,-5466.18
313374.9257,-11449.29,-2178.34,-1818.7,-5024.15
313374.9267,-10846.47,-1594.5,-1220.66,-4491.33
313374.9277,-10187.67,-957.97,-577.97,-3918.6
313374.9287,-9558.39,-352.24,25.18,-3382.16
313374.9297,-8983.9,203.18,585.08,-2896.74
313374.9307,-8487.99,679.35,1074.6,-2484.85
313374.9317,-8224.49,938.94,1329.57,-2279.9
313374.9327,-8162.21,1004.36,1383.64,-2253.63
313374.9337,-8247.33,920.72,1296.62,-2352.62
313374.9347,-8553.84,631.62,985.53,-2645.78
313374.9357,-9053.8,162.08,483.32,-3099.63
313374.9367,-9667.02,-430.73,-123.79,-3644.28
313374.9377,-10337.93,-1081.13,-779.1,-4226.78
313374.9387,-10980.66,-1699.88,-1408.86,-4771.61
313374.9397,-11553.67,-2249.15,-1966.62,-5254.56
313374.9407,-12028.12,-2713.2,-2426.82,-5651.52
313374.9417,-12287.67,-2974.61,-2678.68,-5857.66
313374.9427,-12346.79,-3040.08,-2730.66,-5887.32
313374.9437,-12251.81,-2955.01,-2631.71,-5782.94
313374.9447,-11948.49,-2662.47,-2317.76,-5491.5
313374.9457,-11460.64,-2190.73,-1830.05,-5044.51
313374.9467,-10851.62,-1597.55,-1233.05,-4497.0
313374.9477,-10183.43,-951.86,-576.31,-3904.01
313374.9487,-9539.46,-333.64,55.93,-3347.92
313374.9497,-8947.61,236.23,634.38,-2855.87
313374.9507,-8458.0,715.78,1108.88,-2452.42
313374.9517,-8206.99,969.84,1352.02,-2259.92
313374.9527,-8151.34,1032.97,1406.0,-2238.56
313374.9537,-8233.93,950.24,1317.6,-2339.7
313374.9547,-8541.2,649.88,1004.74,-2635.53
313374.9557,-9048.8,161.98,499.53,-3095.39
313374.9567,-9681.51,-445.65,-124.17,-3654.34
313374.9577,-10364.2,-1101.26,-796.51,-4245.81
313374.9587,-10996.39,-1715.99,-1417.49,-4785.16
313374.9597,-11557.63,-2264.07,-1967.53,-5260.04
313374.9607,-12025.26,-2714.97,-2423.38,-5646.99
313374.9617,-12283.23,-2969.65,-2672.2,-5844.31
313374.9627,-12342.31,-3037.6,-2722.93,-5868.48
313374.9637,-12254.33,-2958.06,-2628.52,-5765.25
313374.9647,-11953.31,-2668.57,-2323.29,-5478.57
313374.9657,-11469.41,-2197.27,-1835.97,-5038.5
313374.9667,-10862.92,-1604.18,-1235.39,-4500.72
313374.9677,-10198.21,-966.17,-583.93,-3922.56
313374.9687,-9569.6,-359.63,26.42,-3380.16
313374.9697,-8991.15,202.8,589.32,-2892.64
313374.9707,-8495.05,688.46,1082.33,-2481.94
313374.9717,-8219.82,958.82,1351.64,-2273.7
313374.9727,-8157.11,1016.9,1408.82,-2247.91
313374.9737,-8254.72,927.64,1302.62,-2350.43
313374.9747,-8571.91,636.29,981.0,-2641.2
313374.9757,-9071.3,160.46,483.04,-3092.48
313374.9767,-9695.1,-448.7,-136.33,-3647.04
313374.9777,-10367.54,-1106.45,-799.37,-4239.42
313374.9787,-10992.81,-1719.47,-1417.3,-4785.49
313374.9797,-11544.32,-2255.77,-1958.42,-5251.98
313374.9807,-11995.51,-2699.8,-2398.78,-5626.06
313374.9817,-12252.09,-2951.1,-2649.4,-5827.76
313374.9827,-12320.38,-3014.04,-2713.82,-5862.05
313374.9837,-12235.31,-2930.45,-2617.17,-5760.43
313374.9847,-11930.75,-2639.48,-2307.46,-5470.8
313374.9857,-11439.52,-2174.23,-1821.52,-5028.06
313374.9867,-10829.16,-1592.16,-1220.27,-4484.13
313374.9877,-10158.49,-943.28,-560.14,-3890.61
313374.9887,-9519.77,-318.86,67.85,-3341.48
313374.9897,-8944.61,243.71,630.57,-2852.82
313374.9907,-8460.0,720.93,1104.21,-2449.89
313374.9917,-8198.5,983.38,1354.36,-2252.39
313374.9927,-8138.94,1050.42,1414.2,-2228.12
313374.9937,-8233.88,966.17,1317.69,-2332.07
313374.9947,-8557.13,656.84,994.25,-2638.05
313374.9957,-9073.21,154.92,484.42,-3109.26
313374.9967,-9707.31,-456.29,-143.38,-3672.7
313374.9977,-10390.76,-1113.27,-812.15,-4272.27
313374.9987,-11025.76,-1736.45,-1436.23,-4823.92
313374.9997,-11589.62,-2285.15,-1987.12,-5298.33
313375.0007,-12050.82,-2738.81,-2436.35,-5679.66
313375.0017,-12300.49,-2987.48,-2679.4,-5873.73
313375.0027,-12348.65,-3042.84,-2726.75,-5891.75
313375.0037,-12247.99,-2941.32,-2631.62,-5778.22
313375.0047,-11947.78,-2643.68,-2333.45,-5480.34
313375.0057,-11457.54,-2188.3,-1842.93,-5019.86
313375.0067,-10835.36,-1596.83,-1227.47,-4465.34
313375.0077,-10154.53,-940.47,-558.57,-3878.69
313375.0087,-9513.86,-319.43,69.67,-3331.8
313375.0097,-8945.18,235.37,628.9,-2854.68
313375.0107,-8449.41,715.68,1113.08,-2444.79
313375.0117,-8184.43,978.33,1371.05,-2241.04
313375.0127,-8125.16,1042.8,1427.13,-2218.82
313375.0137,-8223.25,955.3,1328.04,-2329.45
313375.0147,-8545.59,642.3,1004.7,-2636.96
313375.0157,-9060.91,147.34,495.15,-3100.01
313375.0167,-9688.57,-458.43,-122.26,-3655.24
313375.0177,-10370.3,-1116.04,-788.26,-4248.57
313375.0187,-11011.08,-1734.16,-1416.3,-4796.7
313375.0197,-11571.55,-2282.81,-1970.39,-5271.39
313375.0207,-12040.24,-2736.9,-2429.96,-5656.72
313375.0217,-12298.44,-2988.96,-2683.4,-5854.18
313375.0227,-12353.37,-3042.75,-2725.55,-5876.35
313375.0237,-12245.94,-2942.13,-2616.55,-5758.38
313375.0247,-11934.47,-2643.3,-2319.38,-5463.89
313375.0257,-11450.34,-2175.62,-1844.64,-5022.29
313375.0267,-10840.37,-1583.05,-1239.63,-4479.98
313375.0277,-10168.55,-932.22,-573.21,-3894.76
313375.0287,-9533.74,-320.39,59.03,-3352.21
313375.0297,-8963.3,233.55,631.67,-2866.79
313375.0307,-8472.16,712.06,1109.89,-2459.91
313375.0317,-8202.08,974.42,1362.13,-2254.06
313375.0327,-8139.18,1036.45,1415.78,-2227.16
313375.0337,-8234.31,950.62,1317.93,-2333.74
313375.0347,-8553.22,643.11,996.88,-2636.72
313375.0357,-9060.96,154.88,489.38,-3102.64
313375.0367,-9686.76,-452.14,-134.04,-3659.11
313375.0377,-10368.16,-1111.13,-806.33,-4252.53
313375.0387,-11007.36,-1730.01,-1429.03,-4800.13
313375.0397,-11568.5,-2275.13,-1970.86,-5274.11
313375.0407,-12032.8,-2727.65,-2415.47,-5657.82
313375.0417,-12286.71,-2976.85,-2652.74,-5848.69
313375.0427,-12341.07,-3034.21,-2698.95,-5868.2
313375.0437,-12249.47,-2943.13,-2599.57,-5758.14
313375.0447,-11939.96,-2642.82,-2284.77,-5461.5
313375.0457,-11432.89,-2161.6,-1785.18,-5006.89
313375.0467,-10811.85,-1564.12,-1187.52,-4459.0
313375.0477,-10146.76,-919.87,-549.94,-3879.79
313375.0487,-9523.06,-311.9,50.97,-3346.49
313375.0497,-8943.8,249.29,614.83,-2860.98
313375.0507,-8449.65,730.23,1104.55,-2451.94
313375.0517,-8192.64,982.0,1353.41,-2256.44
313375.0527,-8141.47,1040.41,1405.05,-2234.89
313375.0537,-8243.7,947.95,1303.1,-2348.47
313375.0547,-8567.72,638.2,979.81,-2652.26
313375.0557,-9075.83,149.68,472.55,-3110.08
313375.0567,-9702.25,-458.91,-147.15,-3665.26
313375.0577,-10383.27,-1120.52,-810.15,-4257.49
313375.0587,-11021.19,-1741.74,-1429.18,-4800.51
313375.0597,-11584.24,-2289.96,-1979.83,-5274.34
313375.0607,-12048.29,-2744.63,-2431.06,-5656.91
313375.0617,-12307.17,-2997.11,-2677.73,-5853.61
313375.0627,-12366.2,-3055.62,-2729.61,-5873.78
313375.0637,-12265.25,-2961.59,-2629.71,-5762.96
313375.0647,-11949.87,-2645.4,-2313.14,-5464.84
313375.0657,-11440.52,-2150.63,-1813.46,-5008.36
313375.0667,-10819.48,-1554.97,-1205.02,-4459.95
313375.0677,-10156.68,-920.87,-548.79,-3885.22
313375.0687,-9528.07,-313.71,68.33,-3348.21
313375.0697,-8957.43,238.85,628.76,-2863.74
313375.0707,-8463.05,715.68,1110.7,-2459.57
313375.0717,-8193.26,975.56,1367.14,-2259.06
313375.0727,-8134.22,1030.97,1423.88,-2236.94
313375.0737,-8233.41,936.46,1319.6,-2350.62
313375.0747,-8564.76,621.6,988.63,-2658.94
313375.0757,-9083.37,127.03,477.22,-3124.09
313375.0767,-9718.75,-479.08,-151.35,-3685.76
313375.0777,-10394.19,-1132.01,-815.73,-4274.99
313375.0787,-11020.76,-1738.17,-1434.52,-4807.95
313375.0797,-11581.23,-2280.19,-1988.27,-5275.15
313375.0807,-12044.15,-2726.32,-2442.26,-5660.39
313375.0817,-12300.59,-2975.94,-2685.74,-5862.9
313375.0827,-12362.1,-3038.88,-2736.52,-5889.27
313375.0837,-12260.92,-2952.0,-2623.18,-5778.98
313375.0847,-11946.54,-2655.46,-2304.98,-5481.34
313375.0857,-11450.58,-2186.25,-1815.65,-5034.88
313375.0867,-10841.51,-1597.6,-1217.27,-4493.43
313375.0877,-10176.95,-951.58,-572.25,-3910.02
313375.0887,-9539.65,-338.98,45.16,-3362.7
313375.0897,-8956.77,226.45,615.41,-2866.55
313375.0907,-8462.38,716.78,1102.64,-2459.53
313375.0917,-8202.27,978.61,1356.51,-2271.22
313375.0927,-8146.1,1043.61,1405.24,-2255.54
313375.0937,-8238.89,958.06,1309.63,-2364.35
313375.0947,-8552.74,638.2,999.64,-2668.29
313375.0957,-9065.92,128.46,500.63,-3133.15
313375.0967,-9705.59,-479.08,-131.51,-3688.15
313375.0977,-10391.57,-1132.35,-815.68,-4271.32
313375.0987,-11022.43,-1744.7,-1438.95,-4802.13
313375.0997,-11570.41,-2278.85,-1982.78,-5259.18
313375.1007,-12022.74,-2726.75,-2425.86,-5630.54
313375.1017,-12264.87,-2971.94,-2653.6,-5816.7
313375.1027,-12319.85,-3027.49,-2701.9,-5844.07
313375.1037,-12225.53,-2937.94,-2602.82,-5739.74
313375.1047,-11915.16,-2635.05,-2293.16,-5443.62
313375.1057,-11429.22,-2159.55,-1808.5,-4999.83
313375.1067,-10816.05,-1570.89,-1200.49,-4460.24
313375.1077,-10143.0,-926.02,-535.58,-3878.83
313375.1087,-9522.73,-321.1,75.48,-3348.78
313375.1097,-8971.88,221.63,620.99,-2882.91
313375.1107,-8491.71,685.17,1090.1,-2492.33
313375.1117,-8237.94,934.93,1335.53,-2305.6
313375.1127,-8181.48,992.11,1383.26,-2287.15
313375.1137,-8275.37,903.75,1288.84,-2393.87
313375.1147,-8594.08,600.15,968.17,-2691.41
313375.1157,-9099.58,118.88,463.68,-3140.88
313375.1167,-9717.47,-473.74,-152.21,-3677.23
313375.1177,-10381.22,-1116.61,-807.52,-4245.0
313375.1187,-10997.15,-1713.32,-1414.82,-4768.47
313375.1197,-11541.22,-2242.85,-1950.41,-5229.57
313375.1207,-12000.51,-2691.08,-2397.25,-5610.66
313375.1217,-12266.92,-2951.38,-2650.17,-5819.37
313375.1227,-12340.79,-3024.53,-2715.25,-5856.47
313375.1237,-12253.1,-2940.13,-2617.45,-5751.66
313375.1247,-11942.1,-2644.83,-2302.17,-5458.93
313375.1257,-11449.82,-2175.38,-1811.36,-5014.61
313375.1267,-10840.51,-1597.17,-1209.07,-4474.5
313375.1277,-10178.23,-962.64,-558.33,-3898.24
313375.1287,-9552.19,-351.48,59.22,-3362.7
313375.1297,-8984.66,208.52,614.93,-2886.25
313375.1307,-8499.91,689.17,1083.56,-2483.08
313375.1317,-8230.97,962.78,1340.29,-2274.7
313375.1327,-8149.0,1047.23,1411.96,-2224.78
313375.1337,-8232.07,960.21,1313.83,-2323.2
313375.1347,-8553.22,644.02,990.3,-2630.71
313375.1357,-9059.1,152.35,495.62,-3095.01
313375.1367,-9681.04,-452.04,-124.17,-3654.96
313375.1377,-10357.43,-1101.97,-796.18,-4248.91
313375.1387,-10989.43,-1710.27,-1417.68,-4789.64
313375.1397,-11550.71,-2256.82,-1966.86,-5259.94
313375.1407,-12013.77,-2710.06,-2415.8,-5642.75
313375.1417,-12269.78,-2961.83,-2657.99,-5837.25
313375.1427,-12328.44,-3024.44,-2708.96,-5861.52
313375.1437,-12227.54,-2931.02,-2605.3,-5752.37
313375.1447,-11918.5,-2631.09,-2291.87,-5454.11
313375.1457,-11430.07,-2156.83,-1803.06,-5004.88
313375.1467,-10819.53,-1569.7,-1201.25,-4462.0
313375.1477,-10154.58,-924.59,-546.88,-3883.98
313375.1487,-9522.25,-312.66,70.95,-3346.87
313375.1497,-8949.57,244.57,631.9,-2863.03
313375.1507,-8461.71,717.83,1106.36,-2460.38
313375.1517,-8199.5,971.22,1357.84,-2261.54
313375.1527,-8139.9,1032.11,1408.05,-2240.8
313375.1537,-8243.7,934.17,1300.62,-2353.53
313375.1547,-8574.25,620.65,974.66,-2661.37
313375.1557,-9079.41,133.04,475.69,-3116.18
313375.1567,-9693.67,-463.1,-135.18,-3665.16
313375.1577,-10371.64,-1113.65,-799.27,-4257.3
313375.1587,-11011.7,-1729.3,-1426.22,-4802.7
313375.1597,-11576.61,-2275.9,-1979.49,-5278.4
313375.1607,-12034.42,-2726.27,-2425.86,-5657.77
313375.1617,-12284.23,-2972.08,-2663.04,-5848.5
313375.1627,-12342.45,-3031.3,-2710.91,-5869.2
313375.1637,-12242.27,-2938.7,-2604.91,-5754.81
313375.1647,-11924.6,-2633.57,-2285.62,-5450.2
313375.1657,-11429.88,-2156.64,-1796.82,-4995.39
313375.1667,-10822.3,-1568.37,-1196.1,-4453.66
313375.1677,-10159.59,-927.11,-539.54,-3878.59
313375.1687,-9523.82,-316.43,89.69,-3340.29
313375.1697,-8946.71,243.47,652.31,-2853.73
313375.1707,-8465.1,716.5,1120.85,-2454.33
313375.1717,-8210.8,964.55,1361.08,-2260.3
313375.1727,-8156.54,1022.58,1408.15,-2239.94
313375.1737,-8257.68,928.07,1299.29,-2354.48
313375.1747,-8581.59,614.64,972.89,-2662.56
313375.1757,-9091.14,124.6,464.82,-3125.81
313375.1767,-9719.28,-482.85,-159.79,-3683.52
313375.1777,-10392.29,-1132.11,-827.22,-4267.55
313375.1787,-11006.88,-1729.68,-1434.52,-4792.31
313375.1797,-11561.73,-2268.36,-1981.35,-5260.94
313375.1807,-12031.75,-2721.41,-2441.07,-5651.9
313375.1817,-12286.86,-2970.84,-2676.53,-5849.08
313375.1827,-12342.03,-3030.4,-2715.68,-5865.81
313375.1837,-12241.08,-2934.17,-2606.63,-5751.66
313375.1847,-11927.99,-2633.76,-2289.87,-5455.88
313375.1857,-11431.17,-2158.17,-1797.63,-5008.27
313375.1867,-10817.15,-1567.41,-1194.67,-4465.15
313375.1877,-10153.68,-924.92,-540.69,-3888.32
313375.1887,-9524.78,-318.15,77.39,-3349.4
313375.1897,-8955.58,234.56,633.96,-2865.74
313375.1907,-8465.34,712.06,1111.41,-2459.29
313375.1917,-8205.56,967.65,1356.22,-2261.21
313375.1927,-8153.53,1025.06,1398.85,-2241.18
313375.1937,-8258.01,927.64,1293.56,-2355.81
313375.1947,-8575.39,620.27,978.14,-2661.47
313375.1957,-9087.13,131.32,476.22,-3126.81
313375.1967,-9722.0,-479.08,-146.01,-3683.33
313375.1977,-10400.01,-1132.68,-811.86,-4268.84
313375.1987,-11026.81,-1741.17,-1431.04,-4806.09
313375.1997,-11582.38,-2281.62,-1978.06,-5277.49
313375.2007,-12042.14,-2729.03,-2427.82,-5655.1
313375.2017,-12289.86,-2973.6,-2666.57,-5845.69
313375.2027,-12340.12,-3027.49,-2710.77,-5860.81
313375.2037,-12238.22,-2931.6,-2606.73,-5749.27
313375.2047,-11923.27,-2627.95,-2294.02,-5450.68
313375.2057,-11430.74,-2152.3,-1803.88,-5003.55
313375.2067,-10817.53,-1562.74,-1195.48,-4461.1
313375.2077,-10152.1,-916.81,-539.49,-3881.26
313375.2087,-9518.62,-305.13,83.78,-3341.72
313375.2097,-8947.99,246.57,646.5,-2863.65
313375.2107,-8467.87,715.97,1115.32,-2464.15
313375.2117,-8217.72,962.21,1355.51,-2274.32
313375.2127,-8166.41,1015.0,1399.95,-2257.16
313375.2137,-8268.93,916.39,1291.13,-2374.22
313375.2147,-8598.33,602.91,963.59,-2684.16
313375.2157,-9112.74,113.92,454.95,-3149.13
313375.2167,-9741.26,-487.14,-165.89,-3702.45
313375.2177,-10411.45,-1133.78,-825.26,-4285.91
313375.2187,-11031.2,-1736.12,-1433.56,-4813.29
313375.2197,-11584.09,-2272.13,-1973.53,-5274.39
313375.2207,-12044.48,-2721.93,-2419.23,-5649.66
313375.2217,-12299.11,-2976.66,-2662.37,-5839.87
313375.2227,-12361.53,-3041.36,-2716.64,-5865.05
313375.2237,-12262.06,-2952.43,-2610.16,-5753.14
313375.2247,-11946.54,-2651.31,-2297.93,-5454.64
313375.2257,-11454.58,-2171.52,-1816.7,-5017.14
313375.2267,-10839.51,-1573.04,-1213.79,-4477.84
313375.2277,-10166.36,-916.62,-554.66,-3895.24
313375.2287,-9524.82,-293.78,72.48,-3349.92
313375.2297,-8938.31,267.27,643.68,-2863.07
313375.2307,-8446.17,736.24,1123.05,-2460.34
313375.2317,-8190.44,985.43,1368.48,-2268.65
313375.2327,-8139.23,1048.85,1415.21,-2249.81
313375.2337,-8237.7,956.25,1312.97,-2361.06
313375.2347,-8561.33,637.48,990.96,-2664.38
313375.2357,-9076.88,138.09,481.75,-3123.05
313375.2367,-9710.65,-473.45,-145.53,-3684.9
313375.2377,-10390.62,-1134.2,-817.49,-4280.14
313375.2387,-11022.66,-1747.18,-1435.61,-4823.54
313375.2397,-11581.76,-2294.97,-1983.45,-5299.38
313375.2407,-12047.01,-2743.39,-2432.39,-5683.71
313375.2417,-12297.06,-2988.77,-2671.1,-5874.78
313375.2427,-12344.93,-3036.07,-2716.3,-5886.98
313375.2437,-12234.4,-2930.98,-2601.58,-5760.1
313375.2447,-11912.3,-2620.55,-2276.71,-5451.68
313375.2457,-11408.9,-2133.51,-1778.79,-4993.96
313375.2467,-10795.17,-1542.66,-1175.69,-4447.22
313375.2477,-10130.03,-905.47,-521.28,-3867.96
313375.2487,-9504.8,-297.26,95.46,-3333.0
313375.2497,-8933.59,255.87,656.8,-2849.77
313375.2507,-8451.13,726.65,1127.2,-2447.18
313375.2517,-8199.98,980.95,1369.57,-2251.43
313375.2527,-8152.06,1038.74,1413.49,-2235.03
313375.2537,-8259.15,934.93,1303.77,-2352.43
313375.2547,-8591.27,612.26,971.6,-2666.04
313375.2557,-9112.41,117.49,456.38,-3133.58
313375.2567,-9744.79,-484.8,-166.89,-3694.53
313375.2577,-10415.41,-1132.82,-825.88,-4279.71
313375.2587,-11044.22,-1743.84,-1441.62,-4821.49
313375.2597,-11599.69,-2290.54,-1985.45,-5296.28
313375.2607,-12051.77,-2734.66,-2425.43,-5670.64
313375.2617,-12292.53,-2973.84,-2661.09,-5859.23
313375.2627,-12338.35,-3023.15,-2703.91,-5879.55
313375.2637,-12232.02,-2922.63,-2601.96,-5759.29
313375.2647,-11910.15,-2618.27,-2285.58,-5451.25
313375.2657,-11407.04,-2149.2,-1785.23,-4992.91
313375.2667,-10786.77,-1559.59,-1169.87,-4443.26
313375.2677,-10127.93,-913.67,-517.23,-3869.63
313375.2687,-9511.81,-307.85,93.89,-3344.97
313375.2697,-8947.14,238.56,649.17,-2866.84
313375.2707,-8457.71,707.29,1117.66,-2462.63
313375.2717,-8202.65,962.88,1355.6,-2267.31
313375.2727,-8160.21,1020.24,1388.98,-2247.67
313375.2737,-8263.06,926.07,1286.08,-2356.96
313375.2747,-8575.77,616.36,974.7,-2654.74
313375.2757,-9078.55,134.56,480.41,-3112.65
313375.2767,-9699.77,-462.39,-124.84,-3666.93
313375.2777,-10378.55,-1118.56,-790.41,-4261.83
313375.2787,-11018.47,-1738.31,-1424.5,-4806.57
313375.2797,-11580.23,-2287.77,-1977.25,-5279.83
313375.2807,-12036.28,-2730.13,-2419.23,-5655.34
313375.2817,-12285.0,-2970.65,-2652.93,-5845.07
313375.2827,-12343.17,-3026.58,-2703.86,-5868.05
313375.2837,-12243.22,-2928.73,-2604.68,-5757.19
313375.2847,-11918.59,-2611.02,-2280.43,-5450.25
313375.2857,-11407.38,-2118.78,-1770.02,-4985.43
313375.2867,-10792.35,-1530.27,-1165.44,-4438.78
313375.2877,-10123.64,-886.49,-507.97,-3851.22
313375.2887,-9491.87,-274.94,114.73,-3308.15
313375.2897,-8929.64,273.37,664.28,-2832.99
313375.2907,-8450.46,737.24,1122.47,-2442.88
313375.2917,-8195.26,984.43,1361.13,-2253.25
313375.2927,-8144.43,1038.36,1403.05,-2236.99
313375.2937,-8255.2,937.27,1293.95,-2357.58
313375.2947,-8583.64,617.17,965.36,-2673.39
313375.2957,-9097.34,118.92,452.8,-3138.59
313375.2967,-9728.62,-490.67,-169.23,-3697.25
313375.2977,-10408.55,-1146.98,-833.32,-4284.48
313375.2987,-11040.02,-1756.29,-1449.06,-4823.49
313375.2997,-11591.58,-2295.69,-1988.03,-5293.13
313375.3007,-12036.42,-2735.66,-2418.38,-5666.64
313375.3017,-12274.36,-2969.5,-2642.44,-5850.6
313375.3027,-12318.23,-3020.81,-2683.83,-5866.24
313375.3037,-12219.05,-2924.25,-2583.79,-5750.51
313375.3047,-11904.15,-2616.93,-2266.03,-5446.2
313375.3057,-11403.61,-2134.51,-1771.4,-4992.49
313375.3067,-10788.06,-1539.18,-1160.1,-4446.7
313375.3077,-10116.44,-887.11,-501.92,-3863.91
313375.3087,-9492.26,-280.81,107.24,-3324.84
313375.3097,-8936.74,261.02,653.31,-2850.58
313375.3107,-8461.52,724.74,1118.33,-2456.52
313375.3117,-8207.85,971.98,1362.32,-2263.93
313375.3127,-8158.11,1026.01,1411.06,-2246.48
