TimeStamp,ECR,FCR,ECU,FCU,time_index
313438.7917,28.203481000950493,5.343591909591466,30.774636280536757,13.731775825133408,66.0
313438.7927,42.49257103409383,19.817629536588967,44.589358534606866,29.993030259976674,66.00099999998929
313438.7937,55.713290963538626,33.52794488271563,57.17951259389323,45.16830917553156,66.00199999997858
313438.7947,67.42078236332178,46.04813738994717,68.1343085593901,58.8469240993308,66.00300000002608
313438.7957,77.23976798426742,57.015187940911936,77.11969032569071,70.68977126312916,66.00400000001537
313438.7967,84.89261140116531,66.15623016094246,83.9038681206957,80.45273282358627,66.00500000000466
313438.7977,90.2199804927901,73.30819559484368,88.3752818332829,88.00299629519694,66.00599999999395
313438.7987,93.19215746437688,78.42845477998777,90.5512186698267,93.32672533220048,66.00699999998324
313438.7997,93.90988710365156,81.59540119678036,90.576148781324,96.52729454919523,66.00799999997253
313438.8007,92.59461381491901,82.99885583391394,88.70978010631819,97.81416153940593,66.00900000002002
313438.8017,89.56893501614415,82.92111750547258,85.30577925039033,97.48330840275084,66.01000000000931
313438.8027,85.22900022706753,81.71035721057693,80.78296821119687,95.89096071464625,66.0109999999986
313438.8037,80.01132541978227,79.74876993664056,75.5915043740018,93.42290974359233,66.01199999998789
313438.8047,74.35700036810299,77.41838578331472,70.17701646724261,90.46216485116354,66.01299999997718
313438.8057,68.67649465492065,75.06765735355546,64.94585738361542,87.35780924645186,66.01400000002468
313438.8067,63.31819451769073,72.98186154332481,60.23452781924956,84.39780997947199,66.01500000001397
313438.8077,58.543435627185566,71.35998889444684,56.28593272379895,81.7881543320012,66.01600000000326
313438.8087,54.51017209768571,70.30017768082257,53.23449299379638,79.6400861476681,66.01699999999255
313438.8097,51.26659994371734,69.79494193865622,51.101308664651185,77.9664545252148,66.01799999998184
313438.8107,48.75511287509328,69.7365199822811,49.7996357025841,76.687336308381,66.01899999997113
313438.8117,46.82599975311021,69.93172055265379,49.14998506672364,75.64423378227391,66.02000000001863
313438.8127,45.25938847871959,70.12475787774625,48.9032702397983,74.62136121235135,66.02100000000792
313438.8137,43.793186225133255,70.02582846231304,48.769701053028676,73.37189230687369,66.0219999999972
313438.8147,42.154231674627994,69.34266087830805,48.450615483659064,71.64660499063496,66.0229999999865
313438.8157,40.08961068989732,67.8120137395655,47.67020384503896,69.22216976136859,66.02399999997579
313438.8167,37.39511592168839,65.22812941719847,46.204132239550404,65.92639946776347,66.02500000002328
313438.8177,33.93814823780584,61.465467223280115,43.90240738323388,61.658102686359435,66.02600000001257
313438.8187,29.672930889493934,56.49360796065294,40.70440903334057,56.39972702624512,66.02700000000186
313438.8197,24.646678918947146,50.38298609745996,36.64479170672017,50.22168892132318,66.02799999999115
313438.8207,18.99626053466649,43.3009919880582,31.84984857369026,43.27809351473697,66.02899999998044
313438.8217,12.935816691657667,35.498908774198675,26.524851036470682,35.79437402407323,66.02999999996973
313438.8227,6.736679635444872,27.291018048824508,20.933738871832777,28.04814516671566,66.03100000001723
313438.8237,0.7016662676835216,19.027941769631315,15.373255448720922,20.345196885921943,66.03200000000652
313438.8247,-4.8636525430548145,11.066815568500042,10.14413208520134,12.992993223778376,66.03299999999581
313438.8257,-9.679839732695816,3.7411611036649144,5.522177460375724,6.274246314433735,66.0339999999851
313438.8267,-13.51978749387554,-2.6666819547582903,1.7320997765009962,0.4230896196028976,66.03499999997439
313438.8277,-16.229668177949858,-7.947987437970929,-1.0734139607131634,-4.3939153038516015,66.03600000002189
313438.8287,-17.74263401964128,-11.982891423173252,-2.827383894685775,-8.09020734754998,66.03700000001118
313438.8297,-18.08399773608724,-14.747135749339929,-3.5537456857377325,-10.664023744286105,66.03800000000047
313438.8307,-17.3674837646405,-16.309828639454725,-3.36368805033207,-12.19526192159585,66.03899999998976
313438.8317,-15.783031249220677,-16.822626920300177,-2.4436063128465646,-12.834880362593761,66.03999999997905
313438.8327,-13.577466521676905,-16.501577035149204,-1.035982588013892,-12.78803690462325,66.04100000002654
313438.8337,-11.030062159006375,-15.603553821464006,0.5848102070072082,-12.292758489223521,66.04200000001583
313438.8347,-8.425492993817786,-14.399738707800637,2.1393009596368913,-11.596346488577886,66.04300000000512
313438.8357,-6.026938574227877,-13.148834362432922,3.369598528646469,-10.931907396086064,66.04399999999441
313438.8367,-4.052043673008751,-12.072697324944286,4.063285397043026,-10.497343351577609,66.0449999999837
313438.8377,-2.65413821456992,-11.336787073715286,4.072164808577782,-10.438848126800004,66.04599999997299
313438.8387,-1.910567126953726,-11.03730910482215,3.3240426524574564,-10.840462427343812,66.04700000002049
313438.8397,-1.8192447098342275,-11.196224166495243,1.8264486415987977,-11.720598318403624,66.04800000000978
313438.8407,-2.3037010797114785,-11.764477205230055,-0.3379683613893413,-13.03571186464764,66.04899999999907
313438.8417,-3.2260151008019005,-12.632950287547633,-3.02378221912359,-14.690559724890813,66.04999999998836
313438.8427,-4.406216565101439,-13.649849094546331,-6.041488457708883,-16.553794561528463,66.05099999997765
313438.8437,-5.646071840694523,-14.642572295174995,-9.180530493617356,-18.477104424665917,66.05200000002515
313438.8447,-6.754709226696493,-15.441653459678951,-12.234180957534695,-20.315738255628382,66.05300000001444
313438.8457,-7.573339459429433,-15.904152400388348,-15.023615423813418,-21.94812010681717,66.05400000000373
313438.8467,-7.996404325962682,-15.933928509099935,-17.41859683004883,-23.29235298871691,66.05499999999302
313438.8477,-7.98683561578844,-15.496547589440462,-19.35253376604593,-24.31773997551651,66.0559999999823
313438.8487,-7.583694047410617,-14.627124341940608,-20.830250663403067,-25.04997291869215,66.0569999999716
313438.8497,-6.901225870487929,-13.430130313456441,-21.927555689026004,-25.569305633015222,66.05800000001909
313438.8507,-6.119247860282416,-12.071029204766816,-22.78253834732637,-26.001771870307977,66.05900000000838
313438.8517,-5.465662874941319,-10.760454702793721,-23.579388841195218,-26.504253853575428,66.05999999999767
313438.8527,-5.192729222662099,-9.732434783999613,-24.526318820556604,-27.244879024292835,66.06099999998696
313438.8537,-5.549375428724845,-9.218811079715518,-25.829798778053124,-28.380752226925598,66.06199999997625
313438.8547,-6.752299853058492,-9.422436705939699,-27.667746277568963,-30.03536279802244,66.06300000002375
313438.8557,-8.958775584685927,-10.491915740359891,-30.164457849815168,-32.27810517350324,66.06400000001304
313438.8567,-12.243974736667258,-12.500552122346862,-33.36995775572585,-35.108204823057875,66.06500000000233
313438.8577,-16.585240426014764,-15.43181213550099,-37.246048343975936,-38.44496004864998,66.06599999999162
313438.8587,-21.855104597448108,-19.173006341580255,-41.66072547842905,-42.1256292964755,66.06699999998091
313438.8597,-27.82403486719049,-23.51812076596752,-46.39182772769698,-45.91156806751457,66.0679999999702
313438.8607,-34.172971619372674,-28.17984804292302,-51.139896374802085,-49.50241901798475,66.0690000000177
313438.8617,-40.51477650110911,-32.809972448353626,-55.54932146965358,-52.557361201803246,66.07000000000698
313438.8627,-46.42284633120301,-37.026435853420764,-59.23602525127751,-54.721707843008694,66.07099999999627
313438.8637,-51.4644367472548,-40.444735855974784,-61.81926929613283,-55.65657750874787,66.07199999998556
313438.8647,-55.23575726952953,-42.71084959719491,-62.95473157001077,-55.06900779791626,66.07299999997485
313438.8657,-57.3956917455239,-43.532683042311916,-62.36582842657281,-52.739770491070345,66.07400000002235
313438.8667,-57.6950868112669,-42.70713632676959,-59.870372761937816,-48.54629576044686,66.07500000001164
313438.8677,-55.99892894502832,-40.14024414794647,-55.400053427826755,-42.478508775313074,66.07600000000093
313438.8687,-52.29936285527762,-35.85846223133119,-49.01085611754121,-34.64598920153495,66.07699999999022
313438.8697,-46.71833075253733,-30.009969103213436,-40.88336236543385,-25.275626516146232,66.07799999997951
313438.8707,-39.499555146471835,-22.855761182644105,-31.312783568539544,-14.69979046367582,66.07900000002701
313438.8717,-30.990557648662083,-14.751252249211461,-20.68952354230131,-3.335886867601708,66.0800000000163
313438.8727,-21.616310801760065,-6.119956956280505,-9.471927016238068,8.341055691313484,66.08100000000559
313438.8737,-11.84687353368557,2.578440258483471,1.8464193078359925,19.830496043173213,66.08199999999488
313438.8747,-2.1618924187315502,10.882823117382815,12.771978972844199,30.640495723000544,66.08299999998417
313438.8757,6.984889081119346,18.365137093403384,22.846076862291152,40.320974679117555,66.08399999997346
313438.8767,15.198006273527833,24.661629317280262,31.676221796016048,48.49333184160202,66.08500000002095
313438.8777,22.166751901033393,29.498147749972777,38.961279962063436,54.87399718430358,66.08600000001024
313438.8787,27.683558710548198,32.70738351346106,44.508430704817,59.290044138600685,66.08699999999953
313438.8797,31.652870017742757,34.23670446247637,48.24061631389267,61.685719826951434,66.08799999998882
313438.8807,34.08998985832051,34.14611179769207,50.1940902856292,62.119576440045584,66.08899999997811
313438.8817,35.110348464535974,32.59676988430191,50.50658838258727,60.75273218554069,66.09000000002561
313438.8827,34.9105088628067,29.83142460131683,49.3975058364069,57.82957519122469,66.0910000000149
313438.8837,33.74299132728878,26.148755174736472,47.14218063870857,53.65287533093341,66.09200000000419
313438.8847,31.887533134188672,21.87422967003575,44.04288957508591,48.55572709029552,66.09299999999348
313438.8857,29.621681206882112,17.330306360197408,40.39941360705809,42.872970088934494,66.09399999998277
313438.8867,27.193610090847542,12.8088180459503,36.4820006019304,36.91470424685,66.09499999997206
313438.8877,24.799770449551225,8.548097128940546,32.50925157783464,30.944239756376472,66.09600000001956
313438.8887,22.56943465580098,4.71687553886891,28.632913423428786,25.162327650880215,66.09700000000885
313438.8897,20.55747122942557,1.4062788932411916,24.930831667952067,19.6988552371881,66.09799999999814
313438.8907,18.74582295269617,-1.3695996826009564,21.408474409320903,14.612428114973124,66.09899999998743
313438.8917,17.053270204910227,-3.664930731880633,18.00856674380628,9.897472312156287,66.09999999997672
313438.8927,15.352220269440961,-5.586389309505741,14.627560229339712,5.497753435796406,66.10100000002421
313438.8937,13.490558334625868,-7.2722992783102,11.136984295878115,1.3245961890963478,66.1020000000135
313438.8947,11.31609606974247,-8.869065559645486,7.4072524491196825,-2.72234400638336,66.1030000000028
313438.8957,8.700907799123828,-10.507523593048973,3.331271571262203,-6.734114717100099,66.10399999999208
313438.8967,5.562875786946858,-12.281811079742772,-1.1547513027678964,-10.77363142885016,66.10499999998137
313438.8977,1.8820706645056102,-14.233077797690191,-6.055599492534357,-14.861032987417484,66.10599999997066
313438.8987,-2.289860938493626,-16.33982506873275,-11.308185709517328,-18.964814012781414,66.10700000001816
313438.8997,-6.828397504611905,-18.51596083856016,-16.780569948224798,-22.99969086225579,66.10800000000745
313438.9007,-11.543184501205397,-20.61684078885826,-22.27906106939313,-26.831435232843024,66.10899999999674
313438.9017,-16.192798316020575,-22.45272280656993,-27.56276009900798,-30.288167785416153,66.10999999998603
313438.9027,-20.50580383755121,-23.808276562104098,-32.36412048302072,-33.176918229019144,66.11099999997532
313438.9037,-24.20601026605639,-24.466141242559242,-36.41346080554997,-35.30369729069898,66.11200000002282
313438.9047,-27.039373012105063,-24.23207839762159,-39.46493363296923,-36.49494642094589,66.11300000001211
313438.9057,-28.79978972517164,-22.95906900867222,-41.32127438366315,-36.61807120114187,66.1140000000014
313438.9067,-29.351116694252102,-20.567775230784015,-41.85474557688999,-35.598840439089884,66.11499999999069
313438.9077,-28.64308148820182,-17.061121919879593,-41.022046596725104,-33.43373741048601,66.11599999997998
313438.9087,-26.71935506978613,-12.531318878590751,-38.87154301247703,-30.19585222401749,66.11700000002747
313438.9097,-23.71681419956934,-7.158386363554256,-35.54192529934465,-26.03355447479265,66.11800000001676
313438.9107,-19.855896995665287,-1.2000906075617153,-31.252259834792017,-21.16191780591261,66.11900000000605
313438.9117,-15.422844490456262,5.025940913762318,-26.284260516608636,-15.847608767935276,66.11999999999534
313438.9127,-10.74544011084414,11.166359234742904,-20.958400694426096,-10.38862628820814,66.12099999998463
313438.9137,-6.164524904568877,16.860275501742226,-15.606122559899914,-5.090816275113378,66.12199999997392
313438.9147,-2.0040114499838313,21.768836879703436,-10.540819678903478,-0.24343276420210525,66.12300000002142
313438.9157,1.4577023713188895,25.60337363226833,-6.030424238358071,3.9038641422332336,66.12400000001071
313438.9167,4.012127070922742,28.149397279429873,-2.2743058621936645,7.160306435137896,66.125
313438.9177,5.538476835722026,29.28410366931362,0.6132066911620786,9.407700084034492,66.12599999998929
313438.9187,6.013089379594239,28.985644912506853,2.6109992462705423,10.607130671223075,66.12699999997858
313438.9197,5.509503802257552,27.33322195241558,3.7901630354768,10.79802862094522,66.12800000002608
313438.9207,4.189142982509,24.49793850746248,4.303823516111129,10.089699850159933,66.12900000001537
313438.9217,2.2834730784853794,20.72526001823592,4.368734967147776,8.646194375845232,66.13000000000466
313438.9227,0.06936014417008862,16.310748831508988,4.240393741645218,6.666071015740069,66.13099999999395
313438.9237,-2.1599716687772608,11.571416741817524,4.184084226708875,4.359150451860209,66.13199999998324
313438.9247,-4.125523132413508,6.815480825049658,4.444702305223837,1.922675882544178,66.13299999997253
313438.9257,-5.591612272297916,2.313482686994531,5.218357136061632,-0.4806150237343542,66.13400000002002
313438.9267,-6.390566450762094,-1.7263842958081006,6.628615786498233,-2.7401722941344815,66.13500000000931
313438.9277,-6.440514008481243,-5.176291097903176,8.709837618827079,-4.809143826134184,66.1359999999986
313438.9287,-5.754433276193756,-7.998323204190185,11.39938487682012,-6.708396798005483,66.13699999998789
313438.9297,-4.439460499077162,-10.244577083170046,14.539655037470055,-8.522484822627279,66.13799999997718
313438.9307,-2.6864063008972323,-12.047739856566587,17.889939428733207,-10.387814970217814,66.13900000002468
313438.9317,-0.7503908770428618,-13.603026936517805,21.14716166081941,-12.47407572184358,66.14000000001397
313438.9327,1.0756122753351594,-15.143212166410377,23.97368017461704,-14.960700751506423,66.14100000000326
313438.9337,2.4918214669346037,-16.90918247091554,26.02963570786184,-18.010692310052637,66.14199999999255
313438.9347,3.224302081139514,-19.118915470334418,27.006855065705906,-21.74445571046262,66.14299999998184
313438.9357,3.0560612430455834,-21.937967371788442,26.661133333542907,-26.216368047876706,66.14399999997113
313438.9367,1.853523012515977,-25.454449850328693,24.83982695639429,-31.39660962985493,66.14500000001863
313438.9377,-0.41426827968600427,-29.661077390765143,21.50209072875354,-37.16034128361307,66.14600000000792
313438.9387,-3.6657055025371084,-34.446217372050896,16.729745787535474,-43.2856548238177,66.1469999999972
313438.9397,-7.707068078920113,-39.595035132607016,10.727612090251933,-49.46091825564112,66.1479999999865
313438.9407,-12.243523290198732,-44.800875004867265,3.8130981442464456,-55.301257412784615,66.14899999997579
313438.9417,-16.899847780881228,-49.68604641838478,-3.604177294571329,-60.373045049555834,66.15000000002328
313438.9427,-21.249119383438718,-53.83028443262614,-11.051044609084835,-64.22449000833808,66.15100000001257
313438.9437,-24.846872525059595,-56.80441256017043,-18.0252801014003,-66.4198078101515,66.15200000000186
313438.9447,-27.267687142548446,-58.20622357390828,-24.0329661310666,-66.57406924690757,66.15299999999115
313438.9457,-28.140941185016068,-57.69536040953879,-28.625485993326787,-64.38570345321186,66.15399999998044
313438.9467,-27.18252329685025,-55.0240469337817,-31.432969192984185,-59.66378971292582,66.15499999996973
313438.9477,-24.219668719392967,-50.06088112338758,-32.191340578154936,-52.3476948174996,66.15600000001723
313438.9487,-19.2067127315948,-42.80552677236273,-30.76072497672381,-42.51726192160744,66.15700000000652
313438.9497,-12.23039169509157,-33.39296501849673,-27.13375976297525,-30.392572798019906,66.15799999999581
313438.9507,-3.5042821683679177,-22.086915397266026,-21.4332944183686,-16.323212601620558,66.1589999999851
313438.9517,6.647037921699331,-9.263017836929635,-13.899920318977443,-0.7678805135132174,66.15999999997439
313438.9527,17.812589821132715,4.616710870871713,-4.87068431869268,15.733973825131262,66.16100000002189
313438.9537,29.526057189109956,19.03585690607154,5.248889416849979,32.596126625053934,66.16200000001118
313438.9547,41.30045315640003,33.459179583769966,16.016785104737362,49.22234337156974,66.16300000000047
313438.9557,52.663247081541975,47.3686392501452,26.987506595809407,65.04289858322716,66.16399999998976
313438.9567,63.18882132929723,60.296758933866066,37.74312180691433,79.54789204753958,66.16499999997905
313438.9577,72.5254386273627,71.85449633776537,47.91962237642671,92.31473956271515,66.16600000002654
313438.9587,80.41447423219236,81.7513640361815,57.22640984520513,103.02778691310814,66.16700000001583
313438.9597,86.70044672776426,89.80630176112822,65.45744940037383,111.48874350364567,66.16800000000512
313438.9607,91.33128977302185,95.9487002169396,72.49348908448334,117.61748478926492,66.16899999999441
313438.9617,94.34925554571267,100.20991391269739,78.29564127771553,121.4436491880901,66.1699999999837
313438.9627,95.873736786688,102.70649062545333,82.89147571818364,123.09027301883717,66.17099999997299
313438.9637,96.07805172174331,103.61710226458693,86.3554960971098,122.75139012303654,66.17200000002049
313438.9647,95.16278230346231,103.15571461869779,88.78639546582848,120.6660088966258,66.17300000000978
313438.9657,93.32853980428312,101.54383063330994,90.28375955135843,117.09112566370568,66.17399999999907
313438.9667,90.75102738417206,98.98465758162588,90.92688671352725,112.27642029936001,66.17499999998836
313438.9677,87.56097972664375,95.6417843701027,90.75812100325172,106.44301340866085,66.17599999997765
313438.9687,83.83101593367357,91.62444006759053,89.77257974781077,99.76817409888768,66.17700000002515
313438.9697,79.57069907934088,86.98069156897024,87.91545229208424,92.3772044782324,66.17800000001444
313438.9707,74.73022883502749,81.69909900780425,85.08722350265091,84.34295853906704,66.17900000000373
313438.9717,69.21228891278616,75.7184658118296,81.15631737566552,75.69265552483711,66.17999999999302
313438.9727,62.89071857257828,68.94448341931181,75.97784881915916,66.42089969889194,66.1809999999823
313438.9737,55.63396148941235,61.27136097239604,69.41649643292345,56.50719248321264,66.1819999999716
313438.9747,47.33073658621756,52.60601717403442,61.37103376651214,45.93577946369038,66.18300000001909
313438.9757,37.91512417884692,42.89214470897328,51.79782920654883,34.715455672434125,66.18400000000838
313438.9767,27.38829174318175,32.1314625683547,40.73066897372879,22.89697747704357,66.18499999999767
313438.9777,15.834393848978827,20.39974689754659,28.29457057562703,10.585993889686653,66.18599999998696
313438.9787,3.428739947370715,7.8557486878188545,14.711805872795754,-2.0501137965502667,66.18699999997625
313438.9797,-9.562923033524811,-5.258184894730517,0.29909048287331563,-14.782456064870196,66.18800000002375
313438.9807,-22.79429277766895,-18.62413977661441,-14.544252052558369,-27.328157388534848,66.18900000001304
313438.9817,-35.85692969635728,-31.864801586108072,-29.35646017149492,-39.36464900646906,66.19000000000233
313438.9827,-48.3057288300706,-44.566426003808196,-43.64031977615519,-50.54949430968473,66.19099999999162
313438.9837,-59.68924822768464,-56.30658699161518,-56.89475629466597,-60.543921156988084,66.19199999998091
313438.9847,-69.5821904408345,-66.68418115569675,-68.64833894781167,-69.03782900821766,66.1929999999702
313438.9857,-77.61708689584057,-75.34891596890915,-78.49177119510261,-75.77385428864768,66.1940000000177
313438.9867,-83.51227209417138,-82.02752924803654,-86.10648737903924,-80.56813351756176,66.19500000000698
313438.9877,-87.09355299212142,-86.54427544822116,-91.28679631300407,-83.32569523850339,66.19599999999627
313438.9887,-88.30754817867616,-88.83374292195015,-93.95357817222929,-84.04891014203073,66.19699999998556
313438.9897,-87.22543672231306,-88.94478360468729,-94.15829782913711,-82.8380849314408,66.19799999997485
313438.9907,-84.03674372822277,-87.03517242849229,-92.07697329258659,-79.88403474692356,66.19900000002235
313438.9917,-79.03371275162124,-83.35748632740533,-87.99464809162296,-75.45323737436514,66.20000000001164
313438.9927,-72.58768478780172,-78.23751665768141,-82.2817738079973,-69.86688412756891,66.20100000000093
313438.9937,-65.11963546419587,-72.04722378766373,-75.3646312117088,-63.47572690668392,66.20199999999022
313438.9947,-57.0675457576327,-65.17474094169111,-67.69243657223677,-56.63302078169072,66.20299999997951
313438.9957,-48.85354706368813,-57.99418806349412,-59.70404475646285,-49.66803713951032,66.20400000002701
313438.9967,-40.85376422579824,-50.8380417174235,-51.797148609112526,-42.86255684352976,66.2050000000163
313438.9977,-33.37348350118391,-43.974526678981704,-44.30258797896997,-36.43245284315435,66.20600000000559
313438.9987,-26.629727160792093,-37.59197794248095,-37.46585157391779,-30.515967393208378,66.20699999999488
313438.9997,-20.742577579900342,-31.791420753152284,-31.437134351403813,-25.169630924756966,66.20799999998417
313439.0007,-15.735735143234214,-26.587801325498457,-26.270474488493072,-20.372023280184017,66.20899999997346
313439.0017,-11.545901302483113,-21.919453444697968,-21.931620350307167,-16.034817720377635,66.21000000002095
313439.0027,-8.039738770671288,-17.66459024889767,-18.31345528771311,-12.019849207602858,66.21100000001024
313439.0037,-5.036457271709418,-13.66294461916605,-15.257116741818432,-8.160379920590392,66.21199999999953
313439.0047,-2.3335735616284605,-9.740210794539628,-12.576452450950338,-4.284352410139975,66.21299999998882
313439.0057,0.26685410016541933,-5.732709264926109,-10.08320668783798,-0.23726105375792542,66.21399999997811
313439.0067,2.9341922926262862,-1.509727602127847,-7.610344788797766,4.097650131556926,66.21500000002561
313439.0077,5.789782659293663,3.00872361824395,-5.0311994549881875,8.78385013559395,66.2160000000149
313439.0087,8.893931414944802,7.840489111700816,-2.272626118604214,13.822130176396634,66.21700000000419
313439.0097,12.240485837669718,12.93724730536293,0.6789668615764132,19.14820087009303,66.21799999999348
313439.0107,15.759330868947531,18.18816966733331,3.7790652977118757,24.63739561784178,66.21899999998277
313439.0117,19.326300862241208,23.430734897697437,6.933520796628756,30.115870213320957,66.21999999997206
313439.0127,22.77922522944946,28.467425299575392,10.01284902092807,35.37702863210104,66.22100000001956
313439.0137,25.938190902620367,33.08642182595055,12.8705472728381,40.20137939374627,66.22200000000885
313439.0147,28.62767336823871,37.084001091357216,15.363212078514334,44.37768831987509,66.22299999999814
313439.0157,30.69800492101378,40.286163893108785,17.370064230780436,47.723175561018984,66.22399999998743
313439.0167,32.043731965450206,42.56710822306029,18.809571239429623,50.10061881663324,66.22499999997672
313439.0177,32.61675396949457,43.862492176283205,19.651186170814345,51.43055877647052,66.22600000002421
313439.0187,32.43270027956508,44.17598025785886,19.920763133098067,51.69732289281961,66.2270000000135
313439.0197,31.56973006471696,43.57827517960036,19.698907220022896,50.94823685298121,66.2280000000028
313439.0207,30.15976089065557,42.19863474543389,19.112298571882693,49.28611329461014,66.22899999999208
313439.0217,28.37295904227287,40.20967895216964,18.31881554934092,46.85582125639072,66.22999999998137
313439.0227,26.397074766788858,37.807023806313225,17.487989346584037,43.82637485546223,66.23099999997066
313439.0237,24.413800473760194,35.18586031292587,16.778877683058653,40.37047066171401,66.23200000001816
313439.0247,22.57470708504344,32.51696881222611,16.317789433407352,36.643699287568445,66.23300000000745
313439.0257,20.97943207406426,29.924780090089424,16.17838703090205,32.76572619145539,66.23399999999674
313439.0267,19.65863678977854,27.469949944674934,16.3665259043107,28.805570453233052,66.23499999998603
313439.0277,18.56383225847152,25.13851403563418,16.811773094941028,24.77272266045111,66.23599999997532
313439.0287,17.56552993469243,22.839071263380088,17.366918756848513,20.61527056395132,66.23700000002282
313439.0297,16.46036767240339,20.40866509746855,17.816014252405992,16.225499016191147,66.23800000001211
313439.0307,14.986969200172831,17.62716814465028,17.890614619293924,11.452667424819387,66.2390000000014
313439.0317,12.84940462306435,14.239109992635104,17.29305538613431,6.121918731910024,66.23999999999069
313439.0327,9.746317805393263,9.98110719930825,15.72483841415028,0.057613288005189583,66.24099999997998
313439.0337,5.403154050492872,4.612435153457516,12.917615012324628,-6.891124515106864,66.24200000002747
313439.0347,-0.39547716759079254,-2.054112579579056,8.66389785824437,-14.825157313978657,66.24300000001676
313439.0357,-7.776391975398042,-10.124059042995851,2.8445455044731194,-23.772952778466514,66.24400000000605
313439.0367,-16.754291564927787,-19.598598277138226,-4.549741900748489,-33.673447579112036,66.24499999999534
313439.0377,-27.216557196002896,-30.35986592160212,-13.40521313235767,-44.36611175750889,66.24599999998463
313439.0387,-38.918153027307,-42.165858015401355,-23.481746765972098,-55.589546354225575,66.24699999997392
313439.0397,-51.4875356269065,-54.65588948179491,-34.42016596873819,-66.98918528789918,66.24800000002142
313439.0407,-64.44349572354932,-67.36654463958996,-45.75998191045296,-78.13384109156489,66.24900000001071
313439.0417,-77.22187482888324,-79.75712156353467,-56.96641164170002,-88.54001127344065,66.25
313439.0427,-89.21019860389559,-91.2426992532111,-67.4646566252022,-97.70212574375087,66.25099999998929
313439.0437,-99.78753493282872,-101.2322436563198,-76.67873926635359,-105.12633632168263,66.25199999997858
313439.0447,-108.36638703085438,-109.16868329986785,-84.07174293803902,-110.36508282915848,66.25300000002608
313439.0457,-114.4332180560103,-114.56767414560434,-89.18413042583978,-113.04955290678505,66.25400000001537
313439.0467,-117.58429461770224,-117.05185718894477,-91.66694448812818,-112.91729729091689,66.25500000000466
313439.0477,-117.5539246927908,-116.37778443364901,-91.30711228840622,-109.83265698645715,66.25599999999395
313439.0487,-114.23281528811444,-112.45331524186619,-88.04274550353396,-103.79826797862559,66.25699999998324
313439.0497,-107.67512667786796,-105.34410779420449,-81.967188816909,-94.95667688210891,66.25799999997253
313439.0507,-98.09377429615446,-95.2687731788756,-73.3215420875546,-83.58195615885771,66.25900000002002
313439.0517,-85.84453614792334,-82.58323498871687,-62.47637600927363,-70.06207083190066,66.26000000000931
313439.0527,-71.40046996057073,-67.75575496216746,-49.90428578597959,-54.87353980228332,66.2609999999986
313439.0537,-55.31894342136169,-51.334860697571614,-36.145697221096356,-38.550580665937986,66.26199999998789
313439.0547,-38.204160329246754,-33.912974208477316,-21.770884446249397,-21.651367977551114,66.26299999997718
313439.0557,-20.668374206053883,-16.088840057648664,-7.341429592641038,-4.724231476839821,66.26400000002468
313439.0567,-3.294993809796712,1.5681357169166705,6.625670569120616,11.723443464908831,66.26500000001397
313439.0577,13.393494638220897,18.548796876121912,19.688362065220126,27.251167422597035,66.26600000000326
313439.0587,28.96040472096792,34.42808640381109,31.502040065249425,41.50424089848713,66.26699999999255
313439.0597,43.07088941743685,48.880249756046766,41.83266322867532,54.224383439876185,66.26799999998184
313439.0607,55.49838322940805,61.68466345984753,50.55983409275027,65.25169024405707,66.26899999997113
313439.0617,66.12160873750159,72.72246044805968,57.67014035599804,74.51832775031791,66.27000000001863
313439.0627,74.9131859242209,81.96498009947493,63.2419371595941,82.0351394968518,66.27100000000792
313439.0637,81.92162995994218,89.4558023222089,67.42350081434287,87.87296155036992,66.2719999999972
313439.0647,87.24907142897693,95.28866256008132,70.40703062382958,92.14088426669636,66.2729999999865
313439.0657,91.02733276555188,99.58383961507484,72.40126894332344,94.96390438461343,66.27399999997579
313439.0667,93.39502178601508,102.4656364593538,73.60552698332457,96.46237181366715,66.27500000002328
313439.0677,94.47806079575057,104.04333818896664,74.1876488817372,96.73535668929296,66.27600000001257
313439.0687,94.37558770846647,104.39755951618184,74.26794950773531,95.84957555812485,66.27700000000186
313439.0697,93.1524973340675,103.5732383431648,73.9104758778226,93.83487238821533,66.27799999999115
313439.0707,90.8391078236776,101.57976138475149,73.12213930981525,90.68651696540132,66.27899999998044
313439.0717,87.43762124474681,98.39790259451881,71.85942748030608,86.37383498642045,66.27999999996973
313439.0727,82.93428282941979,93.99249802786991,70.04161680439873,80.85399653346313,66.28100000001723
313439.0737,77.31550895256086,88.32914886039079,67.56874454235268,74.08923173471194,66.28200000000652
313439.0747,70.5858138149956,81.3928013942418,64.34213165487252,66.06536995633763,66.28299999999581
313439.0757,62.785163309765814,73.20584325738301,60.28501661740014,56.80944859719653,66.2839999999851
313439.0767,54.00344118646862,63.84339892530279,55.360887808273944,46.40422374699451,66.28499999997439
313439.0777,44.390020463551245,53.44379959895193,49.58738213850847,34.997728079557795,66.28600000002189
313439.0787,34.15695943267787,42.21271156040726,43.04411920475444,22.806529046891118,66.28700000001118
313439.0797,23.575031573379796,30.420080545020962,35.87351004553415,10.111990864063605,66.28800000000047
313439.0807,12.962580521978362,18.389817863798235,28.274347351773947,-2.7504292274211544,66.28899999998976
313439.0817,2.667983708980219,6.482937760700376,20.488769812142735,-15.408090195912017,66.28999999997905
313439.0827,-6.952771071221884,-4.924426102184848,12.783915652789874,-27.472863395144117,66.29100000002654
313439.0837,-15.561318436876814,-15.466118486496757,5.430164520524156,-38.56567719151488,66.29200000001583
313439.0847,-22.86251418924062,-24.811789718941693,-1.321747923346243,-48.34164323655105,66.29300000000512
313439.0857,-28.62783865362827,-32.69092909409091,-7.262312169394501,-56.51339492037241,66.29399999999441
313439.0867,-32.71418742661529,-38.91270005924373,-12.241201876100872,-62.870403043852605,66.2949999999837
313439.0877,-35.07602720563282,-43.379538058084854,-16.179636909362397,-67.29239319224396,66.29599999997299
313439.0887,-35.76950264689217,-46.09304935262177,-19.075745836974665,-69.75553895545517,66.29700000002049
313439.0897,-34.947842989387645,-47.151482444864925,-21.002236047505463,-70.3307912258823,66.29800000000978
313439.0907,-32.84825965482775,-46.73886070161964,-22.096474505649116,-69.17445877721784,66.29899999999907
313439.0917,-29.771364805870896,-45.10668446219858,-22.543876316114464,-66.51190458406852,66.29999999998836
313439.0927,-26.05489224066007,-42.549851504790766,-22.55621063800719,-62.6158915787996,66.30099999997765
313439.0937,-22.044090321730806,-39.379031797222886,-22.346990756178904,-57.78163408934948,66.30200000002515
313439.0947,-18.061521669758953,-35.89210619849818,-22.106459089644762,-52.30093461671075,66.30300000001444
313439.0957,-14.379107384608577,-32.34740011431195,-21.978771394613197,-46.43787688646736,66.30400000000373
313439.0967,-11.195081309346227,-28.94129757723938,-22.043814970454786,-40.408394994486464,66.30499999999302
313439.0977,-8.61808595338459,-25.79242054672518,-22.305677013385267,-34.36565856898734,66.3059999999823
313439.0987,-6.6599855214591255,-22.93393932689685,-22.689150042046386,-28.392641417674753,66.3069999999716
313439.0997,-5.238154526438393,-20.314801527186766,-23.0448814874964,-22.50253150462352,66.30800000001909
313439.1007,-4.187100406381587,-17.809803691270627,-23.16291956301892,-16.646862483405748,66.30900000000838
313439.1017,-3.2783818981719692,-15.237565216510946,-22.793561064259574,-10.730477617051935,66.30999999999767
313439.1027,-2.246978512930477,-12.384682834324066,-21.673652471327433,-4.63175152250617,66.31099999998696
313439.1037,-0.8216291129513567,-9.033722555595654,-19.55590909669717,1.7740383318782822,66.31199999997625
313439.1047,1.243747688085047,-4.9923063600586755,-16.238457836368408,8.59062680304683,66.31300000002375
313439.1057,4.140570804210371,-0.12041358768193404,-11.5917154819767,15.878489187170844,66.31400000001304
313439.1067,7.980915453228278,5.646842722307925,-5.579899154099081,23.636749731248894,66.31500000000233
313439.1077,12.780066516854175,12.283297974846695,1.7250861038080185,31.791244760653644,66.31599999999162
313439.1087,18.4480732833063,19.664375165368213,10.138965237042859,40.19012416204215,66.31699999998091
313439.1097,24.791232953223016,27.56917586908964,19.370365237436697,48.6076438881648,66.3179999999702
313439.1107,31.523497196011736,35.692021938459234,29.03587246825698,56.75600109861854,66.3190000000177
313439.1117,38.28685815724684,43.66254430438702,38.68379229047849,64.30427026464665,66.32000000000698
313439.1127,44.67891741477113,51.07259316304202,47.824704643308266,70.90279037445562,66.32099999999627
313439.1137,50.285155465235526,57.50758156316012,55.9662557519422,76.21079965704412,66.32199999998556
313439.1147,54.71296666744056,62.57943638460808,62.649205988186175,79.92476964464251,66.32299999997485
313439.1157,57.62434924064478,65.95815990691564,67.48160855219092,81.80478945697915,66.32400000002235
313439.1167,58.76425941439391,67.39911892582495,70.16813844016437,81.69650490670057,66.32500000001164
313439.1177,57.98204227786332,66.76356654621804,70.53201376719728,79.54651167512888,66.32600000000093
313439.1187,55.24400097838155,64.03052763907368,68.52761293040247,75.40970020338251,66.32699999999022
313439.1197,50.63599855976318,59.298982673163785,64.24272933439302,69.44779497080356,66.32799999997951
313439.1207,44.3559229540611,52.78018904483058,57.89034138000454,61.919150954383156,66.32900000002701
313439.1217,36.696795371892534,44.78089708439702,49.790720565824245,53.16068626030038,66.3300000000163
313439.1227,28.0221741323499,35.679061163978695,40.34556534733379,43.56356338257054,66.33100000000559
313439.1237,18.736215921036415,25.894333539868498,30.006551021609678,33.544811365708235,66.33199999999488
313439.1247,9.25123636587929,15.85609366256316,19.241160161611056,23.517451251865086,66.33299999998417
313439.1257,-0.04418415092035203,5.9719642268255315,8.498859848459594,13.86181182332765,66.33399999997346
313439.1267,-8.813594346723143,-3.4003212710316646,-1.819396724804422,4.900589884679833,66.33500000002095
313439.1277,-16.794986398927602,-11.975196955508965,-11.385735638585823,-3.120167741669354,66.33600000001024
313439.1287,-23.815075217935718,-19.553788291837982,-19.961998039018134,-10.042567850693437,66.33699999999953
313439.1297,-29.794396630400286,-26.029562311536758,-27.40724443902076,-15.800002380047355,66.33799999998882
313439.1307,-34.74299439604189,-31.38487045050727,-33.6758249908132,-20.4118636986996,66.33899999997811
313439.1317,-38.747398238064584,-35.67905096264241,-38.80662943021908,-23.97061247790629,66.34000000002561
313439.1327,-41.95045214591599,-39.02958615104904,-42.90497442009952,-26.622699949071468,66.3410000000149
313439.1337,-44.526250054063205,-41.588484019203726,-46.11927614787086,-28.545427912120868,66.34200000000419
313439.1347,-46.652906250751116,-43.516508218951394,-48.615125930204755,-29.9222033521234,66.34299999999348
313439.1357,-48.486084571144566,-44.958069875951985,-50.549591726527424,-30.918773702754212,66.34399999998277
313439.1367,-50.13611454531614,-46.01950158675131,-52.048490457989594,-31.66290137556547,66.34499999997206
313439.1377,-51.65114395905337,-46.75306707749404,-53.18902431938576,-32.22956504853691,66.34600000001956
313439.1387,-53.00815332696046,-47.148456137790554,-53.989585158443575,-32.633197197636825,66.34700000000885
313439.1397,-54.11285027985929,-47.13273333774111,-54.4077639953331,-32.82773960018421,66.34799999999814
313439.1407,-54.80855059066373,-46.57882806402829,-54.34673469129945,-32.7144928869625,66.34899999998743
313439.1417,-54.89322747464617,-45.32175985273439,-53.66929820345268,-32.15693217716339,66.34999999997672
313439.1427,-54.143063252327075,-43.18097547925407,-52.21806455698341,-31.00093776237388,66.35100000002421
313439.1437,-52.340151240222184,-39.98651406802677,-49.839594022940965,-29.09831916597042,66.3520000000135
313439.1447,-49.30153886760978,-35.6062795736953,-46.409882182929664,-26.33114924800691,66.3530000000028
313439.1457,-44.90662115924088,-29.97153056360443,-41.85839920850971,-22.63430849802208,66.35399999999208
313439.1467,-39.12000572327816,-23.09781342258533,-36.18799962556877,-18.013780484900945,66.35499999998137
313439.1477,-32.00736647736752,-15.098957180707584,-29.48839543631173,-12.558624748037701,66.35599999997066
313439.1487,-23.74244612826704,-6.192379501638818,-21.94149657683965,-6.445146525453134,66.35700000001816
313439.1497,-14.60419548450388,3.3052360309530657,-13.817709136846897,0.06747332675395269,66.35800000000745
313439.1507,-4.96397156613716,12.991918888173682,-5.4631671315392705,6.650001749178513,66.35899999999674
313439.1517,4.736333653757699,22.403148019790876,2.721228402037394,12.923520960341337,66.35999999998603
313439.1527,14.013487719026738,31.041595729070455,10.30726641585691,18.485687876711143,66.36099999997532
313439.1537,22.37697483627994,38.41143525162485,16.871015579889583,22.94064244642517,66.36200000002282
313439.1547,29.364969825949494,44.054299279881356,22.025738403165477,25.929940417491906,66.36300000001211
313439.1557,34.57907383178804,47.58377823059288,25.453142945605894,27.16175141022334,66.3640000000014
313439.1567,37.71474428463556,48.71543908466353,26.9300921556957,26.43568892227786,66.36499999999069
313439.1577,38.5847278766059,47.28972017681198,26.34827423172485,23.661013583628623,66.36599999997998
313439.1587,37.133434483684354,43.28567930234993,23.724961653813995,18.866539136429218,66.36700000002747
313439.1597,33.44101195430625,36.824383135347794,19.20379258121107,12.201316235840157,66.36800000001676
313439.1607,27.716817843003355,28.161648374454646,13.045419316712175,3.9260011435427424,66.36900000000605
313439.1617,20.282945037999404,17.670791810509545,5.608797363257943,-5.604344587363381,66.36999999999534
313439.1627,11.54935216331597,5.816928069662213,-2.6752537592880974,-15.964511057466822,66.37099999998463
313439.1637,1.9828916957034703,-6.87491292824233,-11.335882514519602,-26.68832024527229,66.37199999997392
313439.1647,-7.926951079760457,-19.855060279214314,-19.896611316945307,-37.30017880919754,66.37300000002142
313439.1657,-17.702545170725337,-32.58482743314491,-27.90928114036085,-47.34627750370881,66.37400000001071
313439.1667,-26.90980617513813,-44.569481702435425,-34.98457024999009,-56.422793037816994,66.375
313439.1677,-35.184401045385215,-55.38586531278571,-40.81647320635586,-64.1987771593741,66.37599999998929
313439.1687,-42.25035260598561,-64.70253725249306,-45.19872233991121,-70.43196018238606,66.37699999997858
313439.1697,-47.929704749503564,-72.29105836583217,-48.03191716887119,-74.97639797735224,66.37800000002608
313439.1707,-52.14279970901565,-78.02791218053885,-49.32102152359067,-77.78168342359635,66.37900000001537
313439.1717,-54.89963835505202,-81.88745561055879,-49.16380661555413,-78.8842479913504,66.38000000000466
313439.1727,-56.283652958620905,-83.9271392118454,-47.73167194007865,-78.39201827617914,66.38099999999395
313439.1737,-56.42993562018893,-84.2669444423024,-45.24498222330476,-76.46429465258372,66.38199999998324
313439.1747,-55.500465542171995,-83.0654877437914,-41.94554965973281,-73.28912728992752,66.38299999997253
313439.1757,-53.6591168476203,-80.49549113735641,-38.06911966019885,-69.06064052950285,66.38400000002002
313439.1767,-51.049184055584156,-76.7212944020278,-33.82066420398621,-63.95868506619513,66.38500000000931
313439.1777,-47.77584102964036,-71.88078994842787,-29.354956398155714,-58.132887977139234,66.3859999999986
313439.1787,-43.89538502323516,-66.0736299187129,-24.764326808271896,-51.69265630707243,66.38699999998789
313439.1797,-39.412368152990695,-59.35684092430518,-20.074744080921015,-44.704023708613235,66.38799999997718
313439.1807,-34.28486027828175,-51.748158122286256,-15.250494916266305,-37.193479447381876,66.38900000002468
313439.1817,-28.43720657937918,-43.23654060326605,-10.206847744163833,-29.158160917174374,66.39000000001397
313439.1827,-21.778828919471238,-33.79854022645948,-4.829258787923089,-20.581101221260436,66.39100000000326
313439.1837,-14.226954442308706,-23.418545823607374,1.0029997374550346,-11.449671867857766,66.39199999999255
313439.1847,-5.730705040748433,-12.110479762450064,7.391374658069985,-1.775002763934093,66.39299999998184
313439.1857,3.706206934567719,0.06167069741072315,14.393520844298564,8.389966417723311,66.39399999997113
313439.1867,14.006838378754695,12.967028947349508,22.002460307562774,18.936034695419306,66.39500000001863
313439.1877,25.00872627515523,26.396913798520327,30.131780272822475,29.688772924083064,66.39600000000792
313439.1887,36.45964200189227,40.06146620805224,38.60865346341891,40.4063829729398,66.3969999999972
313439.1897,48.02229969120989,53.594707128401126,47.17569746310666,50.78503773596075,66.3979999999865
313439.1907,59.28804612505023,66.5680717987773,55.501818360607906,60.47159573473295,66.39899999997579
313439.1917,69.79866236127866,78.51160548184306,63.20129269871732,69.08282459905281,66.40000000002328
313439.1927,79.07458460179896,88.94121449931066,69.85951869084465,76.22958584908197,66.40100000001257
313439.1937,86.64718536111593,97.38972341815823,75.06319364755254,81.54389762909923,66.40200000000186
313439.1947,92.09231217428088,103.43905890001615,78.43221580967666,84.70645646262224,66.40299999999115
313439.1957,95.06210452877313,106.7507067205393,79.65041037721505,85.47209807896988,66.40399999998044
313439.1967,95.31221888253147,107.09168930381185,78.49226094722262,83.69082211720755,66.40499999996973
313439.1977,92.72197702918541,104.35367831780498,74.84318087490978,79.32238298607452,66.40600000001723
313439.1987,87.3055781454225,98.56345579551909,68.71144967716754,72.44302329209043,66.40700000000652
313439.1997,79.21331961950291,89.8837104742569,60.23070976301832,63.24364153535721,66.40799999999581
313439.2007,68.72267868031105,78.60402904494197,49.65279330633703,52.01947271718837,66.4089999999851
313439.2017,56.220028439399634,65.12283041932425,37.3315427511501,39.15214245903275,66.40999999997439
313439.2027,42.17460935211242,49.92180905245919,23.699114404213827,25.085655944036723,66.41100000002189
313439.2037,27.107068722145012,33.535121768219895,9.236932870473412,10.298434103922053,66.41200000001118
313439.2047,11.555350397217413,16.516007005131925,-5.556070490215183,-4.726142745730196,66.41300000000047
313439.2057,-3.9590803717612197,-0.5962775755228792,-20.195093469935713,-19.52811297956013,66.41399999998976
313439.2067,-18.96177436665851,-17.306391929425356,-34.238198941373774,-33.69579965928316,66.41499999997905
313439.2077,-33.05005400778323,-33.1872636290252,-47.30971102093464,-46.88510166124491,66.41600000002654
313439.2087,-45.910041245069515,-47.89696805974256,-59.116398836877444,-58.83171534549451,66.41700000001583
313439.2097,-57.32479043377665,-61.1870091798697,-69.45531759243947,-69.35550147415712,66.41800000000512
313439.2107,-67.17324085312013,-72.90172508644318,-78.21301960233389,-78.35699247454224,66.41899999999441
313439.2117,-75.42060196122998,-82.96941284734397,-85.35670747483559,-85.8068095892943,66.4199999999837
313439.2127,-82.1016110722036,-91.38656794856968,-90.91869209612614,-91.72945145957628,66.42099999997299
313439.2137,-87.29877681364502,-98.1972865362663,-94.97616112873436,-96.18345679080012,66.42200000002049
313439.2147,-91.11817659628392,-103.4703193612487,-97.62869578402497,-99.24028028520432,66.42300000000978
313439.2157,-93.66556819708819,-107.276451908323,-98.97615222517156,-100.96431942337858,66.42399999999907
313439.2167,-95.02548626095084,-109.66879781485301,-99.09943200764397,-101.39637983066109,66.42499999998836
313439.2177,-95.24563376283571,-110.66824159405752,-98.0463134497826,-100.54248330578021,66.42599999997765
313439.2187,-94.32828289336881,-110.25568729694338,-95.8239388568795,-98.3693427688687,66.42700000002515
313439.2197,-92.22962947658885,-108.37202023072743,-92.39880980398064,-94.80710967534401,66.42800000001444
313439.2207,-88.86717745109308,-104.92584441577355,-87.70430972953419,-89.75921319446068,66.42900000000373
313439.2217,-84.13435258373738,-99.80820399862519,-81.65493474769859,-83.11833515236518,66.42999999999302
313439.2227,-77.92074613148242,-92.91271855335494,-74.16565558505773,-74.78687831649547,66.4309999999823
313439.2237,-70.13575077642825,-84.1589390980574,-65.17423394279179,-64.69975773489945,66.4319999999716
313439.2247,-60.73293835988066,-73.51632767190696,-54.66393790922944,-52.84703005438004,66.43300000001909
313439.2257,-49.73238505647,-61.026120946961335,-42.683983969486825,-39.29380788742352,66.43400000000838
313439.2267,-37.238291365074204,-46.818474302298,-29.36519229559973,-24.19509510276451,66.43499999999767
313439.2277,-23.449659943899203,-31.12268621898301,-14.928764303419603,-7.803608829223477,66.43599999998696
313439.2287,-8.662444778975354,-14.268936278606107,0.31326264525630304,9.53071448277288,66.43699999997625
313439.2297,6.737592315291847,3.3192270929600145,15.966521351474993,27.370058072859468,66.43800000002375
313439.2307,22.291167627929166,21.141518472154456,31.571530198411367,45.20659672302294,66.43900000001304
313439.2317,37.4898377162631,38.64563741406841,46.62848251942287,62.48776140694729,66.44000000000233
313439.2327,51.806544726097975,55.25823646072035,60.627684397854395,78.6470231288327,66.44099999999162
313439.2337,64.72979663528002,70.4196413653072,73.08309853087383,93.13775510089164,66.44199999998091
313439.2347,75.79851702033775,83.61941001937707,83.5660714067464,105.46738783574101,66.4429999999702
313439.2357,84.63446303929034,94.429669874544,91.73621753403454,115.2289848761114,66.4440000000177
313439.2367,90.96927161395213,102.53331651703817,97.36662136785006,122.12754800324377,66.44500000000698
313439.2377,94.66363920373318,107.74457691142536,100.36098011719618,125.99879424618716,66.44599999999627
313439.2387,95.71682917269901,110.02010102391817,100.76100697123707,126.8187928421869,66.44699999998556
313439.2397,94.26556771244644,109.45958302510086,98.74327954662878,124.70364789968507,66.44799999997485
313439.2407,90.57235206943749,106.29584862072959,94.60567075298735,119.89928660927507,66.44900000002235
313439.2417,85.00416123473896,100.87528913364038,88.74444802417446,112.76228073359523,66.45000000001164
313439.2427,78.00343637243857,93.63038558203503,81.62398098874759,103.73340867630571,66.45100000000093
313439.2437,70.05390152061517,85.04676471665941,73.74167481580464,93.30628312304196,66.45199999999022
313439.2447,61.64425653552986,75.62769709112236,65.59118102399935,81.99376717563364,66.45299999997951
313439.2457,53.23294917917188,65.85914029964394,57.627086978792775,70.29504344418773,66.45400000002701
313439.2467,45.21710466620034,56.17833067231253,50.23413449628517,58.66607388601094,66.4550000000163
313439.2477,37.908271274658645,46.948544460196715,43.70358073850147,47.495807338762354,66.45600000000559
313439.2487,31.51697040652073,38.44202269085902,38.218632441955044,37.08989520085964,66.45699999999488
313439.2497,26.147183695101006,30.832243893993056,33.85002272722642,27.662922726691313,66.45799999998417
313439.2507,21.800951343939257,24.19581490314344,30.56184100006202,19.33932791746747,66.45899999997346
313439.2517,18.392287732307114,18.52332097918375,28.22676291709833,12.162343564434858,66.46000000002095
313439.2527,15.768736211538673,13.737622860596264,26.64895167780441,6.1095418057414825,66.46100000001024
313439.2537,13.73817046991627,9.717392742909048,25.59219811734289,1.112957455567705,66.46199999999953
313439.2547,12.097973806577954,6.323210714115976,24.810402600395452,-2.918626145523569,66.46299999998882
313439.2557,10.66353577993434,3.4233427574212816,24.07732067452642,-6.077790324686197,66.46399999997811
313439.2567,9.293115907008072,0.9164094940520264,23.212613399365086,-8.439440774363153,66.46500000002561
313439.2577,7.9065248430181,-1.251478494966681,22.101649630374418,-10.046700931129463,66.4660000000149
313439.2587,6.495724879867048,-3.076934838361746,20.7071607797823,-10.90325710227124,66.46700000000419
313439.2597,5.126289319095768,-4.497888441449118,19.071684197633566,-10.972953204771542,66.46799999999348
313439.2607,3.92960174287402,-5.400688200065404,17.31066710886798,-10.186634157877112,66.46899999998277
313439.2617,3.0866286919557746,-5.634954103875078,15.597047113305154,-8.4554396411912,66.46999999997206
313439.2627,2.804968882382445,-5.034580147972712,14.13898497928218,-5.689034040398311,66.47100000001956
313439.2637,3.291582986580326,-3.4426264446671904,13.153116523943403,-1.8166959215358924,66.47200000000885
313439.2647,4.724070715358813,-0.7373962686055451,12.836145011615827,3.191161746671873,66.47299999999814
313439.2657,7.223540242586345,3.1431766115890847,13.337769141897896,9.303574830517567,66.47399999998743
313439.2667,10.831990490861306,8.181585786426016,14.737817330787147,16.414095563508045,66.47499999997672
313439.2677,15.496710682957138,14.267612215209272,17.030048848403172,24.332326412702344,66.47600000002421
313439.2687,21.063533725267693,21.193703362560814,20.11442676861891,32.78329574925725,66.4770000000135
313439.2697,27.279925075875337,28.659768707606574,23.79883104227203,41.41529476457089,66.4780000000028
313439.2707,33.80792991627958,36.28736915968345,27.81024458032976,49.815962937000215,66.47899999999208
313439.2717,40.246032243378295,43.64234812158561,31.814503033208478,57.535582368028216,66.47999999998137
313439.2727,46.15809472703051,50.26410333654016,35.442842701253994,64.11580070314105,66.48099999997066
313439.2737,51.10683459848797,55.69901490389274,38.32279503320392,69.12142137754132,66.48200000001816
313439.2747,54.688818649290845,59.53509377529103,40.110528089099425,72.17253663598244,66.48300000000745
313439.2757,56.56777637183919,61.434741937154364,40.52156942623653,72.97417030177182,66.48399999999674
313439.2767,56.50315304071592,61.16263861638546,39.356977655218586,71.34075613132971,66.48499999998603
313439.2777,54.37124288883785,58.60617564012864,36.52244860666356,67.21319041888796,66.48599999997532
313439.2787,50.1769164400024,53.78652113599151,32.03850577711497,60.66682632709395,66.48700000002282
313439.2797,44.054820620202186,46.85923161045262,26.04076859613907,51.90956330909232,66.48800000001211
313439.2807,36.25990210666661,38.10427768779695,18.770233588651475,41.270053878839704,66.4890000000014
313439.2817,27.148089822960298,27.90630797468422,10.55445076159446,29.17691985379727,66.48999999999069
313439.2827,17.148876784509053,16.726856980111044,1.7813382015353805,16.130659045766272,66.49099999997998
313439.2837,6.732278032717628,5.070922850760838,-7.131931698477557,2.6705571981836003,66.49200000002747
313439.2847,-3.6268598593749,-6.549169150446373,-15.772087499773424,-10.660660144420975,66.49300000001676
313439.2857,-13.484007950671106,-17.649486570768644,-23.76189543501568,-23.3515333775072,66.49400000000605
313439.2867,-22.456462080499314,-27.806741368957486,-30.788340490557086,-34.95312796056117,66.49499999999534
313439.2877,-30.24848912054734,-36.68438495717069,-36.62432053332495,-45.10439533027208,66.49599999998463
313439.2887,-36.66802903570558,-44.05046926890428,-41.141969865333444,-53.549755259536724,66.49699999997392
313439.2897,-41.63369551513192,-49.7859939167091,-44.316553807668754,-60.147752838465316,66.49800000002142
313439.2907,-45.17175308626166,-53.88336540633458,-46.22079711077513,-64.87046773117791,66.49900000001071
313439.2917,-47.40370148543806,-56.4355206233,-47.01043556380318,-67.79418953138897,66.5
313439.2927,-48.52597621115946,-57.61712411844703,-46.90262140145107,-69.0826414056741,66.50099999998929
313439.2937,-48.78399320971741,-57.65995529681718,-46.149487015236396,-68.96466274523922,66.50199999997858
313439.2947,-48.44325731288534,-56.825091067448376,-45.009612873029695,-67.70869259125195,66.50300000002608
313439.2957,-47.76047289820534,-55.37471720797301,-43.72031235088194,-65.59659134709476,66.50400000001537
313439.2967,-46.9575228722401,-53.54634895839094,-42.47352346242735,-62.8992842838377,66.50500000000466
313439.2977,-46.20082877822372,-51.53191709348879,-41.39769885570866,-59.856416680493176,66.50599999999395
313439.2987,-45.58800840146637,-49.463615363834,-40.54745168342365,-56.66171057727833,66.50699999998324
313439.2997,-45.14296911751867,-47.40766703519373,-39.901909838806205,-53.455060401150355,66.50799999997253
313439.3007,-44.81969427794025,-45.36632757515846,-39.371835102188406,-50.32166695902028,66.50900000002002
313439.3017,-44.51408461637635,-43.28758208225784,-38.814666229848726,-47.29776194171677,66.51000000000931
313439.3027,-44.082396245479806,-41.08120563115509,-38.055835133397814,-44.38179368823035,66.5109999999986
313439.3037,-43.36415254297742,-38.639210695991444,-36.91406336269605,-41.54939762451002,66.51199999998789
313439.3047,-42.206964312553204,-35.85827145153629,-35.227935633384995,-38.77011539548539,66.51299999997718
313439.3057,-40.49051386907469,-32.66153195311295,-32.88090858936345,-36.0236895939902,66.51400000002468
313439.3067,-38.14706041566454,-29.017290506278357,-29.82205980068108,-33.31385761918409,66.51500000001397
313439.3077,-35.1761945066857,-24.952395622845444,-26.080299319822693,-30.677886140160226,66.51600000000326
313439.3087,-31.652170064838405,-20.558753781028773,-21.770412362323963,-28.190591979246438,66.51699999999255
313439.3097,-27.72291212161667,-15.992077739470234,-17.090112703408742,-25.962232228364197,66.51799999998184
313439.3107,-23.60065939154888,-11.462822275087856,-12.308181924930242,-24.130349069207504,66.51899999997113
313439.3117,-19.545066417128112,-7.2200791524991015,-7.74466129446442,-22.846349670316318,66.52000000001863
313439.3127,-15.84037362606092,-3.5299517289989244,-3.744862994012402,-22.25821630735781,66.52100000000792
313439.3137,-12.768876941272978,-0.6505265502714656,-0.6495970451972916,-22.491212458312074,66.5219999999972
313439.3147,-10.58332940747777,1.1940554322600874,1.2355921038875068,-23.62872777205272,66.5229999999865
313439.3157,-9.481045654215976,1.8377906784575542,1.66925861009755,-25.69545885706582,66.52399999997579
313439.3167,-9.582341946384805,1.1927603972126843,0.4981935781455905,-28.64494672044591,66.52500000002328
313439.3177,-10.915543446696006,-0.7372919664555745,-2.325471338613016,-32.35310158543497,66.52600000001257
313439.3187,-13.410165439171848,-3.8512811939860443,-6.735884394340692,-36.61877952622355,66.52700000000186
313439.3197,-16.899087980260777,-7.953772841706155,-12.554693608539155,-41.17178854197279,66.52799999999115
313439.3207,-21.129671083671692,-12.76658529954877,-19.50184309384488,-45.687962365407806,66.52899999998044
313439.3217,-25.782885835074627,-17.94810151329001,-27.21502721585161,-49.810222124567055,66.52999999996973
313439.3227,-30.49875150679294,-23.1186350808102,-35.27607718189451,-53.173920983417624,66.53100000001723
313439.3237,-34.90574715111521,-27.88959633972771,-43.2419143218839,-55.4342983707355,66.53200000000652
313439.3247,-38.65146969105605,-31.893820671516337,-50.67729154442919,-56.293606644202136,66.53299999999581
313439.3257,-41.43167862157675,-34.81429190332824,-57.18639810273295,-55.52544246671103,66.5339999999851
313439.3267,-43.01501364221513,-36.40863193885242,-62.44053581192892,-52.99402349334909,66.53499999997439
313439.3277,-43.26108218894248,-36.527120950405994,-66.19947301453506,-48.66658045056459,66.53600000002189
313439.3287,-42.13024929422692,-35.1226229525468,-68.32470600860982,-42.61764577674082,66.53700000001118
313439.3297,-39.6842607324606,-32.25156029213607,-68.78364472319727,-35.02475505241977,66.53800000000047
313439.3307,-36.07771414028311,-28.065932809937582,-67.64461287202279,-26.155866315698503,66.53899999998976
313439.3317,-31.541275367700994,-22.797230071861385,-65.06342727941822,-16.349569150527373,66.53999999997905
313439.3327,-26.358332306098887,-16.73385483853972,-61.26311146751098,-5.989825957088929,66.54100000002654
313439.3337,-20.83740789669248,-10.194287528277941,-56.50892842847685,4.522503167947591,66.54200000001583
313439.3347,-15.283056123104135,-3.4986149318052044,-51.081326337419114,14.798802844538974,66.54300000000512
313439.3357,-9.968099941715945,3.0588167063714384,-45.2495402621372,24.489906233461962,66.54399999999441
313439.3367,-5.10992485640922,9.232997322922076,-39.24846978188722,33.30894476439131,66.5449999999837
313439.3377,-0.8531302398713838,14.845860630260615,-33.26107071636662,41.047848148861036,66.54599999997299
313439.3387,2.739797295745502,19.796275718563837,-27.407898108602925,47.58610855954512,66.54700000002049
313439.3397,5.688925814319213,24.06156237182561,-21.74467783845942,52.89116365904158,66.54800000000978
313439.3407,8.08845962226609,27.69052092076656,-16.267941817106372,57.010554178685304,66.54899999999907
313439.3417,10.090370401248434,30.78881841660612,-10.92792060084133,60.05679599463636,66.54999999998836
313439.3427,11.881785082327951,33.4983400742542,-5.647131125113484,62.18659868077849,66.55099999997765
313439.3437,13.65846831684262,35.97272280921296,-0.3425012601662177,63.57659572421839,66.55200000002515
313439.3447,15.597139352680804,38.35167630876264,5.051503639580674,64.39807462374363,66.55300000001444
313439.3457,17.829496394219227,40.73682783787219,10.561406361140081,64.79327683519766,66.55400000000373
313439.3467,20.420672235399735,43.17168643087914,16.15739952689055,64.85567010101816,66.55499999999302
313439.3477,23.35442668830943,45.6279232835732,21.742281443854626,64.61619524498772,66.5559999999823
313439.3487,26.52673384356256,47.9995463030567,27.148122111611688,64.03689466195634,66.5569999999716
313439.3497,29.748607634530494,50.105767732913556,32.14135767053188,63.0125979256189,66.55800000001909
313439.3507,32.75810609955501,51.7025001991773,36.43615438054267,61.380541920314904,66.55900000000838
313439.3517,35.24055058183147,52.50155258214217,39.71503088105018,58.937015935139925,66.55999999999767
313439.3527,36.85517875798269,52.19581734539877,41.65496428208656,55.45942257954329,66.56099999998696
313439.3537,37.26579966974031,50.48812204509699,41.956607609069906,50.73160123482052,66.56199999997625
313439.3547,36.17259885748071,47.12102107463487,40.373873591028755,44.56992519477776,66.56300000002375
313439.3557,33.34209417906326,41.90466928455082,36.74103138234746,36.84758972856885,66.56400000001304
313439.3567,28.632383603987403,34.740061601659,30.99463159512588,27.51466570567787,66.56500000000233
313439.3577,22.011242958698144,25.63532987955404,23.18800703506414,16.611887441244836,66.56599999999162
313439.3587,13.565285173481557,14.713421800792615,13.49675201054853,4.276736263942029,66.56699999998091
313439.3597,3.4992207853856723,2.210286296507137,2.214400183933467,-9.25888428961265,66.5679999999702
313439.3607,-7.874817178754342,-11.536421256762326,-10.261578321738677,-23.679281031346203,66.5690000000177
313439.3617,-20.156991262487374,-26.107208807006963,-23.452442017454764,-38.60301407636068,66.57000000000698
313439.3627,-32.886782008117585,-41.027478509674225,-36.827678577569536,-53.60674182976293,66.57099999999627
313439.3637,-45.57489583103261,-55.79875842759245,-49.83887373564942,-68.25270387046373,66.57199999998556
313439.3647,-57.73719052281549,-69.93165360850101,-61.95507132072008,-82.1173315404011,66.57299999997485
313439.3657,-68.92757652095521,-82.97758052027017,-72.6966071635722,-94.81837371391518,66.57400000002235
313439.3667,-78.76696947809214,-94.55647606472952,-81.66454342439262,-106.03807675899871,66.57500000001164
313439.3677,-86.96576662193239,-104.3780691410792,-88.56324373771672,-115.54034834302733,66.57600000000093
313439.3687,-93.33795673143439,-112.25493026951705,-93.21427335712265,-123.18042620820432,66.57699999999022
313439.3697,-97.8057886327668,-118.10631177096077,-95.56061984310229,-128.90630730911693,66.57799999997951
313439.3707,-100.39483604611176,-121.9526794915227,-95.66113027154326,-132.7519976675138,66.57900000002701
313439.3717,-101.2202181247202,-123.90173020651477,-93.67596354105869,-134.82343989761824,66.5800000000163
313439.3727,-100.46557528129776,-124.12749942715976,-89.84467434669627,-135.27868535877968,66.58100000000559
313439.3737,-98.3570773153108,-122.84481338145648,-84.459200596753,-134.3044316046813,66.58199999999488
313439.3747,-95.13519010607497,-120.28176345001589,-77.83445650838118,-132.09138890647878,66.58299999998417
313439.3757,-91.02710548180748,-116.65304044689985,-70.2793995051311,-128.8110385165789,66.58399999997346
313439.3767,-86.22263025786876,-112.13684506892625,-62.07132642327185,-124.5961903554526,66.58500000002095
313439.3777,-80.85594692912402,-106.85770226918272,-53.435776557286765,-119.52735414822025,66.58600000001024
313439.3787,-74.99503898282836,-100.87689003270079,-44.533814506978025,-113.62634423372097,66.58699999999953
313439.3797,-68.63978003810817,-94.19140807391621,-35.45769510799595,-106.85780236044884,66.58799999998882
313439.3807,-61.72879655054555,-86.74153658400795,-26.235052151342522,-99.13851666170164,66.58899999997811
313439.3817,-54.15431623939241,-78.42615523667719,-16.840886643808712,-90.35361741640014,66.59000000002561
313439.3827,-45.78339681622124,-69.1241944197796,-7.2158436675414634,-80.37801914034878,66.5910000000149
313439.3837,-36.48327211192507,-58.7199522602619,2.711363930581795,-69.10092371733678,66.59200000000419
313439.3847,-26.148119656671305,-47.12959503619437,12.999940522583435,-56.450855374457944,66.59299999999348
313439.3857,-14.724387572656585,-34.32600602116049,23.674113504598736,-42.41859977167558,66.59399999998277
313439.3867,-2.2319357150359127,-20.359274177886288,34.70395668294379,-27.075577165806315,66.59499999997206
313439.3877,11.221364758466981,-5.3705079390568855,45.99215208478584,-10.585579723600024,66.59600000001956
313439.3887,25.43330530544489,10.402716728808361,57.36831143510713,6.791591569587339,66.59700000000885
313439.3897,40.11022103271036,26.630170248101976,68.5917138707261,24.7053013456106,66.59799999999814
313439.3907,54.87911701198595,42.902052591053135,79.36246147655982,42.72794616834837,66.59899999998743
313439.3917,69.30817210724851,58.75045476611496,89.34019262757549,60.37656514931447,66.59999999997672
313439.3927,82.9339239845406,73.67748682305609,98.1687094859873,77.14050064894555,66.60100000002421
313439.3937,95.2927683395517,87.18769617204029,105.50424764662884,92.51282140366635,66.6020000000135
313439.3947,105.95395815366095,98.82195655406042,111.04470539164764,106.02283754037897,66.6030000000028
313439.3957,114.55110907803201,108.18982894829713,114.55699899250753,117.26690212561137,66.60399999999208
313439.3967,120.80932327386643,114.99749933286934,115.89983567334802,125.93482110552587,66.60499999998137
313439.3977,124.5654271130738,119.06877579643036,115.03958717447318,131.82957171739224,66.60599999997066
313439.3987,125.77944225628069,120.35724404725762,112.05756836004073,134.8786236770881,66.60700000001816
313439.3997,124.53621562496507,118.94847793760414,107.14781845689552,135.1359119240971,66.60800000000745
313439.4007,121.03704483805666,115.05210481493219,100.6053717362111,132.7743532565637,66.60899999999674
313439.4017,115.58206466322899,108.98444869380803,92.80590444430462,128.06965202172984,66.60999999998603
313439.4027,108.54501792918285,101.14332977120742,84.17846873319832,121.37692141246677,66.61099999997532
313439.4037,100.3427388726343,91.97730547122656,75.17369233358178,113.10228297397413,66.61200000002282
313439.4047,91.40216045197495,81.95212903629938,66.23026954452864,103.67203772164771,66.61300000001211
313439.4057,82.12787336291207,71.51743039461667,57.74275062640716,93.50218759773982,66.6140000000014
313439.4067,72.87319263735458,61.07656944839285,50.033534082583884,82.97100917388327,66.61499999999069
313439.4077,63.91733475806253,50.96227997228844,43.33158803914674,72.39705094083077,66.61599999997998
313439.4087,55.45070812203531,41.42014540957703,37.75980788978761,62.02437382162893,66.61700000002747
313439.4097,47.569530089044825,32.60118177806267,33.33211564786893,52.01613531936209,66.61800000001676
313439.4107,40.280080585435165,24.563921394908856,29.960497775476092,42.456800413694324,66.61900000000605
313439.4117,33.51197202924966,17.285478837609393,27.471248816309455,33.362425551297825,66.61999999999534
313439.4127,27.138947527036308,10.680224892151903,25.62882633937719,24.697686052452262,66.62099999998463
313439.4137,21.00499722010796,4.623977013539678,24.16501065847999,16.39767614239951,66.62199999997392
313439.4147,14.953075702678673,-1.0188955912870654,22.810568556490434,8.392065626634624,66.62300000002142
313439.4157,8.85346029931137,-6.3683093890129845,21.326391148956127,0.6289899958050563,66.62400000001071
313439.4167,2.6288339800546345,-11.504079946701488,19.53113410374324,-6.90389950567851,66.625
313439.4177,-3.726496582092292,-16.446845575698823,17.322728233125954,-14.163498379588829,66.62599999998929
313439.4187,-10.135259564721947,-21.146290370947572,14.691717488352186,-21.042174404159333,66.62699999997858
313439.4197,-16.434992187631057,-25.477918653788482,11.725163137298118,-27.36661483337342,66.62800000002608
313439.4207,-22.385276809065353,-29.24877570555068,8.600752356926657,-32.90486005940978,66.62900000001537
313439.4217,-27.683859006085672,-32.2116163286468,5.571680273609349,-37.3809701570368,66.63000000000466
313439.4227,-31.990197941195827,-34.08618029595587,2.9437473505669,-40.49600752271584,66.63099999999395
313439.4237,-34.954270241145636,-34.58552413481231,1.0468454244573655,-41.95338491772281,66.63199999998324
313439.4247,-36.24793073429383,-33.44485079665567,0.2035260068955307,-41.48618495257355,66.63299999997253
313439.4257,-35.59587650474735,-30.450021588087903,0.697604753974211,-38.88384695300326,66.63400000002002
313439.4267,-32.803289052673655,-25.46295265342938,2.74573276225377,-34.015659856598155,66.63500000000931
313439.4277,-27.777539225572685,-18.44138869783054,6.47456272547074,-26.848790160826045,66.6359999999986
313439.4287,-20.54189985330413,-9.45108026320266,11.90558727955898,-17.459082649580907,66.63699999998789
313439.4297,-11.23996619533464,1.3308852518520329,18.948983323844505,-6.03354812925998,66.63799999997718
313439.4307,-0.130360112385426,13.62200590208314,27.406933391619,7.135769979752756,66.63900000002468
313439.4317,12.427795393077714,27.04906907206675,36.985997989240644,21.666055826832086,66.64000000001397
313439.4327,25.997287610527227,41.17033614861765,47.31726865960901,37.10486446294664,66.64100000000326
313439.4337,40.09104745341002,55.50320869677234,57.982321879359006,52.95628114513296,66.64199999999255
313439.4347,54.20362577777601,69.55487627797707,68.54248642703196,68.70979121461994,66.64299999998184
313439.4357,67.84307292713545,82.85319113481977,78.56867880231438,83.86934324498085,66.64399999997113
313439.4367,80.56039806468921,94.97502903578682,87.66907495966264,97.98012102303262,66.64500000001863
313439.4377,91.97407417573818,105.56967539173651,95.5121674339821,110.65081180017732,66.64600000000792
313439.4387,101.78758598901437,114.37529195676537,101.84327397589574,121.56963988509308,66.6469999999972
313439.4397,109.79873692477244,121.22721950948298,106.49326309244054,130.51307633817754,66.6479999999865
313439.4407,115.90026486963751,126.05768550136384,109.37907179704195,137.34687215208493,66.64899999997579
313439.4417,120.07218156893772,128.88733150539178,110.49642933914164,142.01981983924716,66.65000000002328
313439.4427,122.3670605792009,129.80976932093458,109.9059833286949,144.55135123584958,66.65100000001257
313439.4437,122.89017379758133,128.97103819145988,107.71467315636377,145.01465795238897,66.65200000000186
313439.4447,121.77685014403971,126.54630341293056,104.05464537971481,143.51741844169436,66.65299999999115
313439.4457,119.16965591755518,122.71636298562863,99.0622123955946,140.18239369896529,66.65399999998044
313439.4467,115.19795344998073,117.64649242078431,92.85929938524883,135.1300958947724,66.65499999996973
313439.4477,109.96208865678807,111.4698631987684,85.53951184496273,128.46544823671994,66.65600000001723
313439.4487,103.52392100817045,104.27724835455179,77.16041949994467,120.26987046898607,66.65700000000652
313439.4497,95.9046965500244,96.11403267503675,67.74294718067776,110.59959294770096,66.65799999999581
313439.4507,87.09044877802489,86.98474591389255,57.27796162073995,99.49028831790086,66.6589999999851
313439.4517,77.04427667864817,76.86451652092364,45.739327378616345,86.96738693298069,66.65999999997439
313439.4527,65.72407943835941,65.7160841648692,33.10195920632756,73.0607847330263,66.66100000002189
313439.4537,53.10370206638708,53.510389233168674,19.36279952788683,57.822128267427566,66.66200000001118
313439.4547,39.19503000106729,40.248340113572795,4.56226114395147,41.342525521030176,66.66300000000047
313439.4557,24.06840736558446,25.98118777993179,-11.196461075539913,23.76841897269853,66.66399999998976
313439.4567,7.868861355063648,10.827030817954267,-27.73267295789848,5.313482226559036,66.66499999997905
313439.4577,-9.174014423372554,-5.018675162944872,-44.78012975927802,-13.735246878788843,66.66600000002654
313439.4587,-26.744067025026673,-21.280155262366943,-61.98710737036251,-33.01823889852934,66.66700000001583
313439.4597,-44.44526374431201,-37.60670945617865,-78.92527320288262,-52.111908104528254,66.66800000000512
313439.4607,-61.81696480320507,-53.5864355321863,-95.10716606021012,-70.54440915151719,66.66899999999441
313439.4617,-78.35683922146414,-68.76740427536815,-110.01122304747173,-87.81783746503007,66.6699999999837
313439.4627,-93.54968095203344,-82.68463410279072,-123.11250341682367,-103.4351969365427,66.67099999997299
313439.4637,-106.89974646481691,-94.89058641672679,-133.9166332473839,-116.92996552805555,66.67200000002049
313439.4647,-117.963820716911,-104.98649075349294,-141.99409489705974,-127.89575667166741,66.67300000000978
313439.4657,-126.3820690280843,-112.65165306596577,-147.01185351013402,-136.01347706329025,66.67399999999907
313439.4667,-131.90386521337106,-117.6680189484135,-148.75946590572948,-141.07353193394087,66.67499999998836
313439.4677,-134.40619126836674,-119.93764727372199,-147.16724364068827,-142.99101535874715,66.67599999997765
313439.4687,-133.90284413097157,-119.49136356958151,-142.31470396781663,-141.8124108046463,66.67700000002515
313439.4697,-130.54350055597155,-116.48764889348351,-134.42837871417595,-137.71306137283327,66.67800000001444
313439.4707,-124.60260455784257,-111.20170431200638,-123.86898346050863,-130.9854810513687,66.67900000000373
313439.4717,-116.45896595752077,-104.00552888725709,-111.10888983140353,-122.01939096513172,66.67999999999302
313439.4727,-106.5678046870971,-95.3406742762228,-96.70170311408832,-111.27510096082855,66.6809999999823
313439.4737,-95.42766229218242,-85.68601239033903,-81.2464442688199,-99.25244689249669,66.6819999999716
313439.4747,-83.54506333849653,-75.52330925783917,-65.34930360534176,-86.45788158741014,66.68300000001909
313439.4757,-71.40000063133097,-65.30359426891937,-49.58612878903789,-73.37246591982529,66.68400000000838
313439.4767,-59.41522074684455,-55.417230398788476,-34.46871437252336,-60.42340183180415,66.68499999999767
313439.4777,-47.93190964111691,-46.17023572334236,-20.417583567858216,-47.961401861870335,66.68599999998696
313439.4787,-37.19375830646307,-37.76881362487076,-7.743332219620936,-36.24563331693758,66.68699999997625
313439.4797,-27.340585328908976,-30.31327542689079,3.3622000559535583,-25.437263128666856,66.68800000002375
313439.4807,-18.41178421299984,-23.801659019064054,12.824578367152538,-15.601829887985797,66.68900000001304
313439.4817,-10.358936107212617,-18.142444679491554,20.67581867257373,-6.719858877675369,66.69000000000233
313439.4827,-3.0660723548419635,-13.17493104541957,27.035271444467064,1.2956088532044194,66.69099999999162
313439.4837,3.6246316930679483,-8.695139838903474,32.08449398495739,8.576510960911769,66.69199999998091
313439.4847,9.884432848445226,-4.484633122202685,36.038756770730835,15.2746352302881,66.6929999999702
313439.4857,15.869784441032595,-0.3393965706161951,39.11806185148629,21.536406721286625,66.6940000000177
313439.4867,21.697138946309,3.9040133549236997,41.52050352152954,27.480069286788314,66.69500000000698
313439.4877,27.423294380679433,8.347548004031681,43.400481868660755,33.17744339292745,66.69599999999627
313439.4887,33.033204461144436,13.017912688578745,44.853723465749106,38.64194066568879,66.69699999998556
313439.4897,38.436405114223376,17.861194154203822,45.910328273456244,43.82386071921323,66.69799999997485
313439.4907,43.47233708469504,22.746247392290353,46.53622252327534,48.613253453215165,66.69900000002235
313439.4917,47.92395252741326,27.476358693767207,46.642538076322104,52.84987384410825,66.70000000001164
313439.4927,51.53817028757495,31.807899482742197,46.101644617398655,56.33906052874257,66.70100000000093
313439.4937,54.05107048917203,35.47401951249113,44.767909726796624,58.871801636188486,66.70199999999022
313439.4947,55.2152592568199,38.21096205746265,42.50081601815072,60.24686543640348,66.70299999997951
313439.4957,54.82663255123679,39.7843612004715,39.18786569834266,60.292704942477144,66.70400000002701
313439.4967,52.747842149904805,40.01292130225631,34.76476766237435,58.886908219074364,66.7050000000163
313439.4977,48.9261073757174,38.787174367869696,29.230720757378258,55.97125036646299,66.70600000000559
313439.4987,43.40358765870394,36.08153028921158,22.657144135858,51.56087762402477,66.70699999999488
313439.4997,36.31927523205272,31.95852405922078,15.188905185042087,45.74676882572757,66.70799999998417
313439.5007,27.902209332345613,26.56495290451304,7.037885177949902,38.691311105276796,66.70899999997346
313439.5017,18.456669086500554,20.120405453115104,-1.5304780680698786,30.61752476610618,66.71000000002095
313439.5027,8.340786837329395,12.899433735538167,-10.216303586880437,21.79310606070945,66.71100000001024
313439.5037,-2.0593404807078417,5.20923282361412,-18.708086889524406,12.510962746739027,66.71199999999953
313439.5047,-12.357539475840435,-2.634888002688853,-26.7068962268716,3.0682455185726796,66.71299999998882
313439.5057,-22.194772780734013,-10.33377489198971,-33.94947692062998,-6.254003136554683,66.71399999997811
313439.5067,-31.263095939098438,-17.626040322720268,-40.227910356306054,-15.208562906423067,66.71500000002561
313439.5077,-39.32413103468839,-24.304927021167657,-45.403831273185176,-23.595402803908954,66.7160000000149
313439.5087,-46.220402292968245,-30.228857971259128,-49.41576932487213,-31.269477200041152,66.71700000000419
313439.5097,-51.87861406079228,-35.32478281296663,-52.27889128602973,-38.1423361718057,66.71799999999348
313439.5107,-56.304774653889055,-39.584194384162714,-54.07720658047661,-44.17760626665443,66.71899999998277
313439.5117,-59.57189756336212,-43.05246067364286,-54.949081105794136,-49.3810597721004,66.71999999997206
313439.5127,-61.80176109246394,-45.812818182826014,-55.0676029823925,-53.78657514471966,66.72100000001956
313439.5137,-63.1428032742217,-47.96693107002488,-54.617887433448004,-57.439737527655375,66.72200000000885
313439.5147,-63.74661099127753,-49.61427936769491,-53.77374047074936,-60.38108946037248,66.72299999999814
313439.5157,-63.74559211767053,-50.832762123363615,-52.67618743085151,-62.63108999488578,66.72399999998743
313439.5167,-63.23428404495396,-51.66277455157591,-51.4162023010507,-64.1786692437678,66.72499999997672
313439.5177,-62.25636455720143,-52.096654476165554,-50.02356255432016,-64.9748910803796,66.72600000002421
313439.5187,-60.79883036249667,-52.074828798856394,-48.46314152062816,-64.93269631671393,66.7270000000135
313439.5197,-58.79405477156496,-51.48928216496965,-46.63919621214671,-63.93304638285732,66.7280000000028
313439.5207,-56.129604575715696,-50.194188856635286,-44.4073875343635,-61.83708924678037,66.72899999999208
313439.5217,-52.66487058470466,-48.02277426561554,-41.59346361519221,-58.503296098507114,66.72999999998137
313439.5227,-48.25282965051207,-44.808782812797205,-38.01682626524045,-53.80793823994693,66.73099999997066
313439.5237,-42.76468283570014,-40.410395456104546,-33.51665708398248,-47.66684881207933,66.73200000001816
313439.5247,-36.1147632184823,-34.73411732723019,-27.977959129560872,-40.05618864128328,66.73300000000745
313439.5257,-28.283014428474655,-27.75607919939476,-21.354806478325845,-31.029935282218055,66.73399999999674
313439.5267,-19.332518736956832,-19.538375856114854,-13.688296540184476,-20.732042845174075,66.73499999998603
313439.5277,-9.419986182425543,-10.238485158801115,-5.117151850476947,-9.401658433481442,66.73599999997532
313439.5287,1.2022365314703867,-0.11043494414458967,4.120421981542601,2.629610799287595,66.73700000002282
313439.5297,12.193278358159828,10.502848136194153,13.694209121954202,14.948664618151602,66.73800000001211
313439.5307,23.139742075427364,21.185736579572858,23.198497649528893,27.079629194148147,66.7390000000014
313439.5317,33.57948529121272,31.473549175017624,32.1764825336676,38.50910998630259,66.73999999999069
313439.5327,43.03130693830366,40.8818146379968,40.1506385181822,48.71612107676818,66.74099999997998
313439.5337,51.02805692118556,48.93874761441923,46.656548182943354,57.20435827030859,66.74200000002747
313439.5347,57.15031110660125,55.21818213167185,51.2773037300296,63.53421678994787,66.74300000001676
313439.5357,61.05764621566405,59.37011347614091,53.67550018351346,67.35192465298292,66.74400000000605
313439.5367,62.514722013366494,61.146173542204714,53.62001426378495,68.4133747398197,66.74499999999534
313439.5377,61.40981705831187,60.41779249858088,51.00520226248068,66.60067397423559,66.74599999998463
313439.5387,57.76412888400798,57.18544205216619,45.86081165700845,61.93004719518103,66.74699999997392
313439.5397,51.730977454877426,51.578152513929886,38.351723338624275,54.550478690209225,66.74800000002142
313439.5407,43.584963539748266,43.84337181693054,28.76754691117854,44.73327612573473,66.74900000001071
313439.5417,33.70204413418626,34.32810606765241,17.502995013945508,32.85352428542116,66.75
313439.5427,22.532307948303423,23.453064632549935,5.030778472140981,19.36508584508226,66.75099999998929
313439.5437,10.567886335717805,11.682152876334438,-8.130585011098153,4.771338474314999,66.75199999997858
313439.5447,-1.6911439265730452,-0.5099472092228406,-21.451231437666934,-10.405837817849193,66.75300000002608
313439.5457,-13.769860351866424,-12.669232280235255,-34.42370484791031,-25.656221576058485,66.75400000001537
313439.5467,-25.247727927601712,-24.390130621927593,-46.59315164355481,-40.50811354152547,66.75500000000466
313439.5477,-35.78150552172817,-35.33721276820677,-57.581489882845815,-54.54984018175682,66.75599999999395
313439.5487,-45.12000591813396,-45.25913871550276,-67.10370530563335,-67.44440449989438,66.75699999998324
313439.5497,-53.10969953925137,-53.993899815061596,-74.97520969392504,-78.93649235427033,66.75799999997253
313439.5507,-59.69105121491583,-61.46527624933656,-81.11007110093966,-88.85180444874898,66.75900000002002
313439.5517,-64.8863802652755,-67.67129296356839,-85.5108040054192,-97.0894320945474,66.76000000000931
313439.5527,-68.78084857536695,-72.66623362915021,-88.25120496053626,-103.60865550386595,66.7609999999986
313439.5537,-71.49882971377,-76.53838767057307,-89.45435844599305,-108.41205244406657,66.76199999998789
313439.5547,-73.17833132056272,-79.3860994610417,-89.26835683691242,-111.52711351936667,66.76299999997718
313439.5557,-73.94629236572185,-81.2948231094589,-87.84243792508973,-112.98863917379137,66.76400000002468
313439.5567,-73.89744243920896,-82.31774798889846,-85.30612921420826,-112.8240366192196,66.76500000001397
313439.5577,-73.0790059468468,-82.46216329406735,-81.75361328074834,-111.04325963480147,66.76600000000326
313439.5587,-71.48290058034436,-81.6831139742488,-77.23493166736635,-107.63457964049866,66.76699999999255
313439.5597,-69.04628004249793,-79.8851265671378,-71.75488686508969,-102.56669957057818,66.76799999998184
313439.5607,-65.66038557985145,-76.9319286748909,-65.27965974686641,-95.79699205163267,66.76899999997113
313439.5617,-61.186787885727895,-72.66323517260827,-57.750318526297576,-87.28493478732292,66.77000000001863
313439.5627,-55.479308757647516,-66.91691261823094,-49.10164003461255,-77.00920138901358,66.77100000000792
313439.5637,-48.40929001712578,-59.55423704939368,-39.28407135868851,-64.98640841121275,66.7719999999972
313439.5647,-39.8914883327819,-50.485589561063556,-28.28628994501981,-51.28926669374116,66.7729999999865
313439.5657,-29.907758401388193,-39.69382677701545,-16.155711143178213,-36.06186453679252,66.77399999997579
313439.5667,-18.525856115856353,-27.252731648207384,-3.0144557272275105,-19.53002586364864,66.77500000002328
313439.5677,-5.911132301736918,-13.338378864740092,10.931289218290479,-2.0051188964396784,66.77600000001257
313439.5687,7.670445970578388,1.768102208738146,25.38994570660725,16.11970117376244,66.77700000000186
313439.5697,21.858680431104066,17.68707823391952,39.99189597319059,34.3811073130608,66.77799999999115
313439.5707,36.21475621218649,33.95610218387082,54.305283417804034,52.26459454765043,66.77899999998044
313439.5717,50.24500588600088,50.05369059710265,67.85918284102273,69.2296323560613,66.77999999996973
313439.5727,63.43093535097299,65.42934868401136,80.17230035827606,84.7391166698131,66.78100000001723
313439.5737,75.26299147847926,79.5373862688669,90.78477529720635,98.29079014986446,66.78200000000652
313439.5747,85.27515592951751,91.8716784539257,99.29029801761871,109.44804067502835,66.78299999999581
313439.5757,93.07732998014961,101.99840261775752,105.36566509421213,117.86746999502625,66.7839999999851
313439.5767,98.38264363391302,109.58394008278825,108.79507679822535,123.32085109009617,66.78499999997439
313439.5777,101.02726287641501,114.4155517140928,109.48692449277448,125.7095441788183,66.78600000002189
313439.5787,100.98093944839898,116.41308158564443,107.48147540019018,125.07007608544335,66.78700000001118
313439.5797,98.34738364822218,115.63074992340051,102.94867616756085,121.57034670410127,66.78800000000047
313439.5807,93.35446226636999,112.24898860667768,96.17618688485705,115.49673849661878,66.78899999998976
313439.5817,86.33514263326926,106.55716443796042,87.54863860789985,107.23319412183858,66.78999999997905
313439.5827,77.70093229651474,98.92884234168707,77.5198959427651,97.23401939661191,66.79100000002654
313439.5837,67.9102234121404,89.79188629093015,66.58072693942596,85.99269909753525,66.79200000001583
313439.5847,57.434379495469855,79.59611960621626,55.224676849705546,74.00933237541172,66.79300000000512
313439.5857,46.72456022257567,68.78142949845557,43.91507361417484,61.75937370560608,66.79399999999441
313439.5867,36.1821542886812,57.74908986651991,33.055950074871035,49.666198220897215,66.7949999999837
313439.5877,26.13529519585447,46.83870452059999,22.96926613224145,38.07961435423298,66.79599999997299
313439.5887,16.823310561678696,36.312578518423614,13.880193535376426,27.261861124152,66.79700000002049
313439.5897,8.390164426144024,26.34856790542849,5.911447795899684,17.381909244959207,66.79800000000978
313439.5907,0.8870722485608478,17.04161305974103,-0.9132081564575777,8.518104034932696,66.79899999999907
313439.5917,-5.7164138642071896,8.413311334942065,-6.657022052958199,0.668418929071462,66.79999999998836
313439.5927,-11.51435071673052,0.4281138992387246,-11.451379161656375,-6.233095333969715,66.80099999997765
313439.5937,-16.641519192564665,-6.985885594883276,-15.47212017665816,-12.295614544484813,66.80200000002515
313439.5947,-21.248264068240776,-13.914007433288274,-18.913571145820388,-17.64888090315142,66.80300000001444
313439.5957,-25.4757695587715,-20.432478340612573,-21.9629526106312,-22.420967266017154,66.80400000000373
313439.5967,-29.434364909645534,-26.58884183556291,-24.77771735517249,-26.718723289755797,66.80499999999302
313439.5977,-33.187079161944915,-32.387409104516145,-27.467999198210485,-30.612810314178816,66.8059999999823
313439.5987,-36.74007049401778,-37.78130209754844,-30.085778250480033,-34.12869876680498,66.8069999999716
313439.5997,-40.04080458439113,-42.67191662430754,-32.62164053035696,-37.24434164816392,66.80800000001909
313439.6007,-42.984024803537,-46.91583012481536,-35.00920572803485,-39.89451752156648,66.80900000000838
313439.6017,-45.42472891262883,-50.33837787417612,-37.13649721900235,-41.981129062525305,66.80999999999767
313439.6027,-47.196625796787394,-52.75240352675278,-38.862813171941276,-43.38811953387144,66.81099999998696
313439.6037,-48.1339661069413,-53.980127528009334,-40.03909795159786,-43.999191726417905,66.81199999997625
313439.6047,-48.09428076235327,-53.875726845797914,-40.5294643482839,-43.716229308517505,66.81300000002375
313439.6057,-46.97945730665898,-52.346117347670294,-40.23141362715983,-42.4762570887331,66.81400000001304
313439.6067,-44.752746785476994,-49.36758694008585,-39.09245161682209,-40.26494018618317,66.81500000000233
313439.6077,-41.449707175684146,-44.99632846127062,-37.12118924940727,-37.12499558560558,66.81599999999162
313439.6087,-37.18171241721736,-39.37152707168843,-34.39160545922363,-33.15843504178713,66.81699999998091
313439.6097,-32.131426658031664,-32.71040771018596,-31.03987950932489,-28.522220468736773,66.8179999999702
313439.6107,-26.540484268479037,-25.2954694891295,-27.25399489086599,-23.417624561760512,66.8190000000177
313439.6117,-20.6904428742015,-17.454943585195817,-23.25709729821879,-18.074277895686958,66.82000000000698
313439.6127,-14.878805284737787,-9.538227671996102,-19.28627525913368,-12.730478393906619,66.82099999999627
313439.6137,-9.39246204738866,-1.8886002337393542,-15.568953165483249,-7.611777993520575,66.82199999998556
313439.6147,-4.481231255014252,5.184154984480856,-12.29938804864274,-2.9100977106713426,66.82299999997485
313439.6157,-0.33423040343805993,11.428516192927969,-9.617810296982897,1.2343708757323906,66.82400000002235
313439.6167,2.938403133107234,16.67088559872,-7.594536365822428,4.746446775860811,66.82500000001164
313439.6177,5.316403410846322,20.828103873148397,-6.220926076200879,7.622834342186968,66.82600000000093
313439.6187,6.871531624451416,23.911440757584376,-5.40840047837799,9.931618533093818,66.82699999999022
313439.6197,7.76049093031292,26.021500486846307,-4.99594115115638,11.804138760781937,66.82799999997951
313439.6207,8.20900606281292,27.33436624921889,-4.7656354938002154,13.419774548009675,66.82900000002701
313439.6217,8.488364311173425,28.080177788163983,-4.464999475650865,14.984918561977402,66.8300000000163
313439.6227,8.886497039370013,28.516104679890244,-3.8340828132194287,16.708047292259305,66.83100000000559
313439.6237,9.676276456964688,28.89626784449718,-2.6348157540226134,18.77326123190884,66.83199999999488
313439.6247,11.08404919990227,29.441513023074393,-0.6797490051841256,21.314905424592578,66.83299999998417
313439.6257,13.261488346577154,30.31201445616764,2.1426962253156745,24.39586926815323,66.83399999997346
313439.6267,16.26360815146956,31.58547358476717,5.849103932135205,27.99189732344785,66.83500000002095
313439.6277,20.0352692474747,33.24319297780331,10.350190472058781,31.983741319162217,66.83600000001024
313439.6287,24.40775195655981,35.16559319037093,15.449580516205703,36.15829156483135,66.83699999999953
313439.6297,29.10606048933345,37.13786581827552,20.852749199131598,40.21900681463882,66.83799999998882
313439.6307,33.7666267852492,38.86550196531731,26.18569873629,43.80509178187718,66.83899999997811
313439.6317,37.96410369041328,39.9984924975685,31.022009646429737,46.518033490192146,66.84000000002561
313439.6327,41.24506671413822,40.162155346582395,34.91608891638425,47.95338199164079,66.8410000000149
313439.6337,43.16576575051664,38.99188715664976,37.43980975557474,47.73511840674632,66.84200000000419
313439.6347,43.33064905123612,36.16872608541889,38.21936236281642,45.54964772827848,66.84299999999348
313439.6357,41.428263166081855,31.452490474764762,36.969051091380685,41.17641725616674,66.84399999998277
313439.6367,37.26132774534876,24.709437819600822,33.518991685282366,34.51240042669444,66.84499999997206
313439.6377,30.768276279187923,15.931854480797794,27.83416513776983,25.588180550041972,66.84600000001956
313439.6387,22.034297849619623,5.247695934223928,20.023027126974007,14.574075552961814,66.84700000000885
313439.6397,11.290841477271181,-7.080716333957643,10.334785731567594,1.775598919226703,66.84799999999814
313439.6407,-1.0964331191999102,-20.66895521988356,-0.8545395902770467,-12.3815248923415,66.84899999998743
313439.6417,-14.65025243273506,-35.03273828838177,-13.066171278377535,-27.375665441741376,66.84999999997672
313439.6427,-28.812941568848938,-49.618310144496014,-25.75073886768351,-42.620979869643705,66.85100000002421
313439.6437,-42.98357587129708,-63.83838299364259,-38.325845026029604,-57.50393098413325,66.8520000000135
313439.6447,-56.557902259925946,-77.11058626167988,-50.21585980292842,-71.4216661100541,66.8530000000028
313439.6457,-68.96766283696776,-88.8951850628408,-60.89060045680866,-83.81916165838159,66.85399999999208
313439.6467,-79.71606679374858,-98.72893634474136,-69.89969037927172,-94.22218612404592,66.85499999998137
313439.6477,-88.40656782784042,-106.25234793764608,-76.89981845261596,-102.26354528430613,66.85599999997066
313439.6487,-94.76277112828348,-111.22824933616295,-81.6727975404761,-107.70070729268129,66.85700000001816
313439.6497,-98.63815034421282,-113.55041030673539,-84.13318208995204,-110.42370089929541,66.85800000000745
313439.6507,-100.01521705275351,-113.24187366818687,-84.32516725795237,-110.45306106581407,66.85899999999674
313439.6517,-98.99475990807463,-110.44361190877582,-82.40946370111851,-107.92847914932734,66.85999999998603
313439.6527,-95.77666437592819,-105.39498326042903,-78.64173110772772,-103.08961650563032,66.86099999997532
313439.6537,-90.63455197177133,-98.40816930821521,-73.34487629568874,-96.25118623298503,66.86200000002282
313439.6547,-83.88697239516635,-89.83925725237978,-66.87801155017999,-87.7748389429823,66.86300000001211
313439.6557,-75.86809850044459,-80.05884220097354,-59.60508221025217,-78.0405673000724,66.8640000000014
313439.6567,-66.9007959081878,-69.42495166099744,-51.86609291520243,-67.42025783765729,66.86499999999069
313439.6577,-57.274578585385285,-58.26074717356061,-43.95350159953237,-56.25568038325063,66.86599999997998
313439.6587,-47.23035894010155,-46.83887512376262,-36.09574873940967,-44.842652929912035,66.86700000002747
313439.6597,-36.953119494552205,-35.37358139929615,-28.449109152461745,-33.422411217013305,66.86800000001676
313439.6607,-26.57275376123916,-24.020850775483787,-21.098174346929177,-22.18042061417256,66.86900000000605
313439.6617,-16.172436335550707,-12.885968615403534,-14.064383420445026,-11.252073556353624,66.86999999999534
313439.6627,-5.8030763153842955,-2.037116926783026,-7.321208354254173,-0.7339986030384777,66.87099999998463
313439.6637,4.498234970727167,8.47701210813475,-0.8139451451483903,9.300861435438044,66.87199999997392
313439.6647,14.688287041381512,18.608011568859197,5.518370967425715,18.78660905551175,66.87300000002142
313439.6657,24.69897715736276,28.289540349671704,11.72157899571511,27.64852083643801,66.87400000001071
313439.6667,34.422219648165424,37.422540568062395,17.808081740783432,35.79015160802821,66.875
313439.6677,43.70065385915733,45.86595827043596,23.743789828739732,43.08525909987531,66.87599999998929
313439.6687,52.32563758313937,53.43442707014066,29.441905826166693,49.375835371188096,66.87699999997858
313439.6697,60.043220473941155,59.903607609870626,34.76437859317211,54.47683256531782,66.87800000002608
313439.6707,66.56791678277713,65.02302673508675,39.53101745032314,58.187403511689276,66.87900000001537
313439.6717,71.60322751680452,68.53541510686873,43.53541558461689,60.30772095254232,66.88000000000466
313439.6727,74.86708720143122,70.2007867292354,46.56607771362875,60.65977033113855,66.88099999999395
313439.6737,76.1198092137775,69.82291603228583,48.43055497079795,59.10999919872096,66.88199999998324
313439.6747,75.1917386427244,67.27550903946387,48.98002060456897,55.591405045243434,66.88299999997253
313439.6757,72.0077322249552,62.52527373981722,48.13161151921666,50.12258568653063,66.88400000002002
313439.6767,66.60578345670265,55.64928382190578,45.886025075857454,42.82147118220937,66.88500000000931
313439.6777,59.14758147391084,46.84448452735696,42.338282911593076,33.91188756593111,66.8859999999986
313439.6787,49.91949182299624,36.4278683939445,37.68021315003039,23.721730888327613,66.88699999998789
313439.6797,39.323310123791835,24.82668856668701,32.19399694456785,12.672295925256051,66.88799999997718
313439.6807,27.857083738709953,12.558998406850955,26.23699698072704,1.259134105004895,66.88900000002468
313439.6817,16.087231325032626,0.2057200492656858,20.218948663054054,-9.974370428251174,66.89000000001397
313439.6827,4.614025311045852,-11.623736877842603,14.573364059944756,-20.468798462998084,66.89100000000326
313439.6837,-5.966843240647921,-22.329641549472935,9.725597985537268,-29.683405487937996,66.89199999999255
313439.6847,-15.103488376637564,-31.360823008335895,6.06039491311416,-37.13094945789389,66.89299999998184
313439.6857,-22.32458881776554,-38.251069171742245,3.8918370100335853,-42.40976497425717,66.89399999997113
313439.6867,-27.270606170243845,-42.65001335673179,3.438435672997843,-45.23039967476961,66.89500000001863
313439.6877,-29.71684460851619,-44.3459234377179,4.805666889695379,-45.434565205979254,66.89600000000792
313439.6887,-29.586437032151863,-43.27849290130703,7.977585653284215,-43.00480129423003,66.8969999999972
313439.6897,-26.952221656676567,-39.540592486679444,12.818329409824745,-38.06404727416386,66.8979999999865
313439.6907,-22.027446448621646,-33.36889572758702,19.083413777760615,-30.86518663733002,66.89899999997579
313439.6917,-15.14621549481788,-25.12425244668636,26.439822346367983,-21.771495088985816,66.90000000002328
313439.6927,-6.73547984954787,-15.263561543042226,34.49308277808977,-11.22970021515182,66.90100000001257
313439.6937,2.718907224628189,-4.305606858988617,42.818881578785614,0.2620214129929568,66.90200000000186
313439.6947,12.709070723558233,7.20619793636649,50.996361377700424,12.18838313441188,66.90299999999115
313439.6957,22.741731011893318,18.74100091699266,58.64010672255175,24.05078890864307,66.90399999998044
313439.6967,32.3714566104002,29.814567369713355,65.4279704588948,35.397838865891224,66.90499999996973
313439.6977,41.227835023467335,40.01748840034281,71.12230847985329,45.850151032054455,66.90600000001723
313439.6987,49.03447329897061,49.035436170791705,75.58283563458203,55.11769225569905,66.90700000000652
313439.6997,55.618552797212466,56.6601458000672,78.77012727080576,63.00854851684272,66.90799999999581
313439.7007,60.91057917986684,62.79069569229067,80.73969049329408,69.42888504310815,66.9089999999851
313439.7017,64.9348998449394,67.42556854671868,81.62742948443736,74.37467031976581,66.90999999997439
313439.7027,67.79241719368805,70.64681722068737,81.62814292192942,77.91648599153359,66.91100000002189
313439.7037,69.63762555843617,72.59835319720577,80.9693399838283,80.17934589645252,66.91200000001118
313439.7047,70.65257668602835,73.46085617879154,79.88308229040014,81.3198462516022,66.91300000000047
313439.7057,71.02059003146924,73.42602826371525,78.57871244840632,81.50313000483959,66.91399999998976
313439.7067,70.90245287815567,72.67286771469072,77.21920200800959,80.88206001501669,66.91499999997905
313439.7077,70.41751248839795,71.34832493504493,75.90345659362437,79.58067113909918,66.91600000002654
313439.7087,69.63148575352761,69.55416216805348,74.65629386299722,77.68344674165138,66.91700000001583
313439.7097,68.55206153359424,67.34112599571112,73.42702303971386,75.23129618238987,66.91800000000512
313439.7107,67.13252403442816,64.71073158221819,72.09668122632792,72.22436570786658,66.91899999999441
313439.7117,65.28276804398605,61.624132333691534,70.49310788862094,68.63107177359797,66.9199999999837
313439.7127,62.886294892722184,58.01679148408515,68.41225083450746,64.40207816932747,66.92099999997299
313439.7137,59.821149739881264,53.81705883137357,65.64347198182902,59.487413152624015,66.92200000002049
313439.7147,55.98234856921608,48.96634730234585,61.99622024571441,53.854592067782306,66.92300000000978
313439.7157,51.30318761430353,43.43844027756152,57.32530084532718,47.50550679562988,66.92399999999907
313439.7167,45.77294359269709,37.2555570644499,51.55210821292933,40.48997516857228,66.92499999998836
313439.7177,39.44884775648971,30.499149886741524,44.67958937866617,32.91419688849911,66.92599999997765
313439.7187,32.460812165807454,23.313965618993493,36.79932643532074,24.942901080046994,66.92700000002515
313439.7197,25.008142517952805,15.904622186355283,28.089908946807768,16.794639518244303,66.92800000001444
313439.7207,17.348311990491517,8.524750269224558,18.806632723499725,8.73041090238795,66.92900000000373
313439.7217,9.778710014281096,1.4595543482304525,9.263424861372489,1.0365211314342513,66.92999999999302
313439.7227,2.6130336756097434,-4.996628645341504,-0.19132884555212332,-5.996780765641615,66.9309999999823
313439.7237,-3.8454191544785368,-10.565623949035606,-9.202765667068737,-12.098866438933188,66.9319999999716
313439.7247,-9.330927619799908,-15.011059408497246,-17.438660454011792,-17.04218210432902,66.93300000001909
313439.7257,-13.640262905283068,-18.161736676891774,-24.616871342252068,-20.663228119310492,66.93400000000838
313439.7267,-16.65277508300606,-19.93027453341954,-30.52846531377913,-22.878883099332935,66.93499999999767
313439.7277,-18.34351474640105,-20.324973129788905,-35.054283357340694,-23.696296629140765,66.93599999998696
313439.7287,-18.787900275899737,-19.453468312459297,-38.17333661173623,-23.215163624467145,66.93699999997625
313439.7297,-18.157246288709853,-17.517518771186378,-39.962215068431284,-21.621909545861666,66.93800000002375
313439.7307,-16.705351748853815,-14.799120333453171,-40.585561504337505,-19.176089328828084,66.93900000001304
313439.7317,-14.747220515176563,-11.638987684413717,-40.278529689446934,-16.190058289286206,66.94000000000233
313439.7327,-12.63176632264524,-8.409200542667046,-39.32292244260159,-13.00363591753375,66.94099999999162
313439.7337,-10.710960824877482,-5.482403534121494,-38.019315582928286,-9.955987599736474,66.94199999998091
313439.7347,-9.308256560973778,-3.2003171328920725,-36.65785848469211,-7.357244351171816,66.9429999999702
313439.7357,-8.689218512834342,-1.8444232880272777,-35.49056337090637,-5.462436357823728,66.9440000000177
313439.7367,-9.03711686646582,-1.6115215167808428,-34.707742256975216,-4.45012561342335,66.94500000000698
313439.7377,-10.435786053808968,-2.5964239747102327,-34.42083822211306,-4.4077034254057,66.94599999999627
313439.7387,-12.861383710307841,-4.783411443609764,-34.65326751327667,-5.324709713067927,66.94699999998556
313439.7397,-16.183852429118996,-8.047267995153746,-35.34010322075973,-7.094791059192749,66.94799999997485
313439.7407,-20.17797734807985,-12.163827459858904,-36.33656729368314,-9.526114450693044,66.94900000002235
313439.7417,-24.543031608921716,-16.82908481468228,-37.43444023115101,-12.359270432798171,66.95000000001164
313439.7427,-28.929196583512365,-21.68513478648257,-38.38473063590295,-15.291008166963412,66.95100000000093
313439.7437,-32.9683120180026,-26.350574190205574,-38.92434450322284,-18.001611726773685,66.95199999999022
313439.7447,-36.306113450926695,-30.45260348239865,-38.80411476433695,-20.18340251583264,66.95299999997951
313439.7457,-38.632988127773515,-33.65792451594466,-37.81543133666599,-21.5677672399567,66.95400000002701
313439.7467,-39.71043746877904,-35.69966784498149,-35.812861485845225,-21.948271528364337,66.9550000000163
313439.7477,-39.390857870745634,-36.39797988975331,-32.73055410557886,-21.19780944278944,66.95600000000559
313439.7487,-37.628900456153886,-35.67251849761514,-28.590839332339353,-19.278320095173562,66.95699999999488
313439.7497,-34.483480991897956,-33.545884446188865,-23.504205828335056,-16.242317608247507,66.95799999998417
313439.7507,-30.110404908809635,-30.13788053775314,-17.660686488873854,-12.226260309930083,66.95899999997346
313439.7517,-24.746462788881427,-25.651355611058708,-11.313526324790622,-7.436554136085914,66.96000000002095
313439.7527,-18.686653134784525,-20.35117479658708,-4.756761609704135,-2.129669964332099,66.96100000001024
313439.7537,-12.256824897479278,-14.538484716940863,1.701066497635503,3.4116101899326194,66.96199999999953
313439.7547,-5.784441606069802,-8.522853648532763,7.76446553177736,8.90346791223486,66.96299999998882
313439.7557,0.4296864050485547,-2.595023672472822,13.177094497606602,14.085389317249874,66.96399999997811
313439.7567,6.135987933536866,2.997098870676128,17.743845152725804,18.74125191005924,66.96500000002561
313439.7577,11.154717224733371,8.066954130066211,21.346730955661585,22.715195745524955,66.9660000000149
313439.7587,15.386842335277597,12.500663781865168,23.953026200569646,25.920863441641185,66.96700000000419
313439.7597,18.816318881512426,16.260256359444767,25.614864865362488,28.343272752957937,66.96799999999348
313439.7607,21.50369944787038,19.378677393960245,26.460354457700262,30.033330213221966,66.96899999998277
313439.7617,23.57189601405281,21.947311081547426,26.677101967283804,31.095731368596613,66.96999999997206
313439.7627,25.185694926955083,24.097493989174154,26.489804455332024,31.671649902342583,66.97100000001956
313439.7637,26.527244449573907,25.978102423031295,26.134151584595767,31.918130092833064,66.97200000000885
313439.7647,27.770132801251087,27.731684280368516,25.829662719449622,31.98641443710747,66.97299999999814
313439.7657,29.05481063616365,29.471745103423483,25.754199527065534,32.00152997526666,66.97399999998743
313439.7667,30.467972472964,31.26367290095175,26.02274366430058,32.04531414018089,66.97499999997672
313439.7677,32.02811007904178,33.111409381247626,26.672621809418814,32.14469820250005,66.97600000002421
313439.7687,33.67882640595892,34.95138373380255,27.656735743367353,32.26651969280704,66.9770000000135
313439.7697,35.29071259242967,36.65447751693695,28.84557357612115,32.319458926920554,66.9780000000028
313439.7707,36.67172015656035,38.03595971880767,30.03791538043177,32.16295627393713,66.97899999999208
313439.7717,37.58509176338121,38.872502231951216,30.979286596464224,31.622239815728886,66.97999999998137
313439.7727,37.773133062319395,38.92464069571015,31.386439905290654,30.507950422618514,66.98099999997066
313439.7737,36.98449297122404,37.96245892479052,30.975537027245224,28.638357829958032,66.98200000001816
313439.7747,35.00223240836513,35.79190664840305,29.49131665944859,25.861867360128056,66.98300000000745
313439.7757,31.66984167422277,32.27904843299102,26.734412469589405,22.077453253516858,66.98399999999674
313439.7767,26.91252812198842,27.36969964895402,22.584139089257334,17.25082919843877,66.98499999998603
313439.7777,20.751524436040633,21.102319713432657,17.014480766802407,11.424563989399273,66.98599999997532
313439.7787,13.309823342701161,13.612664664080347,10.10165729964809,4.720932458427091,66.98700000002282
313439.7797,4.8085639003222935,5.129489673664192,2.022443549148902,-2.6629975575934046,66.98800000001211
313439.7807,-4.445801858294922,-4.038539240522618,-6.956695411733134,-10.467772065582514,66.9890000000014
313439.7817,-14.082533511242618,-13.523701424253932,-16.498707898520273,-18.390429270098537,66.98999999999069
313439.7827,-23.69398237673303,-22.926049408278768,-26.221557333229747,-26.108167039787453,66.99099999997998
313439.7837,-32.86685644118288,-31.843805760802184,-35.7279530143016,-33.304615400225316,66.99200000002747
313439.7847,-41.214499811977866,-39.90454821870288,-44.63644093970315,-39.69623779191278,66.99300000001676
313439.7857,-48.40719294042642,-46.794291225012756,-52.61095392935821,-45.056332964629,66.99400000000605
313439.7867,-54.197646031276236,-52.28174084691665,-59.38607014060648,-49.23430508327519,66.99499999999534
313439.7877,-58.439299101057216,-56.23543434545942,-64.78564628448432,-52.168295764333294,66.99599999998463
313439.7887,-61.0957162470694,-58.63213474158844,-68.73313585652566,-53.88988836331215,66.99699999997392
313439.7897,-62.24020398793083,-59.55567161526508,-71.25271051760164,-54.520342878257736,66.99800000002142
313439.7907,-62.04571245436985,-59.186322937523286,-72.46119519159907,-54.25862700784415,66.99900000001071
313439.7917,-60.76600342082552,-57.78173135518738,-72.55171684815774,-53.362296667943426,67.0
313439.7927,-58.709900478865165,-55.6511545356094,-71.77076589101415,-52.12297059674601,67.00099999998929
313439.7937,-56.21109287831546,-53.12548418157975,-70.39099902455517,-50.83867064740521,67.00199999997858
313439.7947,-53.5963815370451,-50.525869901141256,-68.68251152057998,-49.78560990098744,67.00300000002608
313439.7957,-51.15539263826155,-48.133912690292895,-66.8854358376621,-49.19207376778018,67.00400000001537
313439.7967,-49.11462768127597,-46.16623539064243,-65.18657010895716,-49.21684783740084,67.00500000000466
313439.7977,-47.61828414528049,-44.75580907433504,-63.70231957361977,-49.93421828973689,67.00599999999395
313439.7987,-46.71761062364434,-43.94175633469608,-62.46958843650406,-51.32694721781819,67.00699999998324
313439.7997,-46.369720019321534,-43.668528833186784,-61.445453017987674,-53.28786639964065,67.00799999997253
313439.8007,-46.44585643227033,-43.79444730217668,-60.51555945307679,-55.62991230529082,67.00900000002002
313439.8017,-46.74818656876413,-44.108686047315686,-59.510308701458044,-58.10362193892451,67.01000000000931
313439.8027,-47.03335538952586,-44.354969083011895,-58.22710565800954,-60.4204013089167,67.0109999999986
313439.8037,-47.04038962683186,-44.25960071881771,-56.45633582653307,-62.279334426417364,67.01199999998789
313439.8047,-46.520115917339886,-43.561042378396415,-54.008353435948564,-63.394973312049515,67.01299999997718
313439.8057,-45.26312334309034,-42.03810956267949,-50.73865706493626,-63.52347000433577,67.01400000002468
313439.8067,-43.12345642477994,-39.53401134716714,-46.5686039746062,-62.48458731456667,67.01500000001397
313439.8077,-40.03565858314658,-35.973874812727196,-41.499455616206596,-60.17753850336565,67.01600000000326
313439.8087,-36.023455024888754,-31.374046973417983,-35.61821099331755,-56.58921646790317,67.01699999999255
313439.8097,-31.19920206569017,-25.842283185036028,-29.094506361173973,-51.79412056738238,67.01799999998184
313439.8107,-25.75415454557932,-19.568833512976173,-22.168758018567026,-45.946100700854245,67.01899999997113
313439.8117,-19.940523083880716,-12.80933848152663,-15.13261076735181,-39.26283433179969,67.02000000001863
313439.8127,-14.047117644919282,-5.861254622444612,-8.303540012641973,-32.00465504737013,67.02100000000792
313439.8137,-8.371021663118025,0.9638312122545475,-1.9960621290614569,-24.4498923426019,67.0219999999972
313439.8147,-3.188147505812821,7.369234505961465,3.5076252903502954,-16.86920891954888,67.0229999999865
313439.8157,1.2743513288665236,13.100656285548054,7.984661795791426,-9.501502235505802,67.02399999997579
313439.8167,4.861006147668955,17.96937455175396,11.293486963915369,-2.5337638355161776,67.02500000002328
313439.8177,7.503941108079152,21.868826870751878,13.38850034589123,3.9131194273361105,67.02600000001257
313439.8187,9.230091772627803,24.78292179901399,14.325862210021402,9.791243250229146,67.02700000000186
313439.8197,10.15891553640008,26.7852367174157,14.259727684605732,15.124604706427382,67.02799999999115
313439.8207,10.490713333651039,28.029164169148103,13.429130957961373,20.000227601825525,67.02899999998044
313439.8217,10.48661315901844,28.72996901942144,12.136645347629527,24.55244711043523,67.02999999996973
313439.8227,10.442098676393256,29.14052613925404,10.72075050864523,28.941999518453905,67.03100000001723
313439.8237,10.656618528712134,29.523143357795426,9.524460971194683,33.332093491113355,67.03200000000652
313439.8247,11.402219410183989,30.12027444443915,8.86314940476522,37.86395487265114,67.03299999999581
313439.8257,12.894267851667907,31.127052136107686,8.994595952059784,42.634406166313944,67.0339999999851
313439.8267,15.267149144892494,32.668408805942626,10.09410139774913,47.6778571325675,67.03499999997439
313439.8277,18.557373118017907,34.783117458449794,12.23703485076283,52.954661810954285,67.03600000002189
313439.8287,22.69581931842751,37.41642013931589,15.39049057358127,58.34718025805647,67.03700000001118
313439.8297,27.50998558486252,40.422078945730256,19.414870357033355,63.66413014383201,67.03800000000047
313439.8307,32.73614781030147,43.573767326703,24.075269944316616,68.65299722158312,67.03899999998976
313439.8317,38.04038737528363,46.58480548520697,29.061620761757975,73.0194740754403,67.03999999997905
313439.8327,43.046588416799054,49.13442248451089,34.01571096439515,76.45219156887,67.04100000002654
313439.8337,47.36883266864471,50.89807934417375,38.562562283995135,78.65046621427436,67.04200000001583
313439.8347,50.64519060938318,51.57897556425837,42.34323375395637,79.35246269065902,67.04300000000512
313439.8357,52.569765900411255,50.937726848530524,45.04599903434748,78.36109643511618,67.04399999999441
313439.8367,52.92000958015533,48.81735813699266,46.433012493834966,75.56518493143157,67.0449999999837
313439.8377,51.57676596754978,45.16118894555344,46.36002374457311,70.95378126298515,67.04599999997299
313439.8387,48.53520070565184,40.021856043913694,44.7873774832337,64.62224942570663,67.04700000002049
313439.8397,43.90562620973632,33.56055731492741,41.781379179321156,56.76940788757034,67.04800000000978
313439.8407,37.90419719209855,26.036529131748974,37.506035113281335,47.68590213459792,67.04899999999907
313439.8417,30.834406157400753,17.78769782444953,32.206097100577374,37.73478795019476,67.04999999998836
313439.8427,23.061173121490842,9.204283786605274,26.183168243278004,27.32603556942062,67.05099999997765
313439.8437,14.980011781028686,0.697803243796979,19.767276020522964,16.88723018149846,67.05200000002515
313439.8447,6.984199761585832,-7.331656867066256,13.286730121538481,6.833091903411933,67.05300000001444
313439.8457,-0.5669589827538999,-14.526862568011678,7.0392153316595465,-2.4634650980871147,67.05400000000373
313439.8467,-7.375830498304622,-20.600665745818016,1.2669125797421836,-10.696178113595003,67.05499999999302
313439.8477,-13.22758025334898,-25.3565737916508,-3.8619894447410057,-17.644036804579873,67.0559999999823
313439.8487,-18.002875369054625,-28.700836841827954,-8.263690414782427,-23.18210062347065,67.0569999999716
313439.8497,-21.68114038804263,-30.645059154630477,-11.940205238742934,-27.283747468927032,67.05800000001909
313439.8507,-24.33428078032513,-31.299258167638698,-14.971851312507617,-30.014391333976427,67.05900000000838
313439.8517,-26.111722340925468,-30.85621343597804,-17.501724336476023,-31.517518612098403,67.05999999999767
313439.8527,-27.218457373699064,-29.56877832292003,-19.713892345127697,-31.994614286597685,67.06099999998696
313439.8537,-27.88845767067049,-27.722489215278344,-21.80766266144786,-31.68111029187263,67.06199999997625
313439.8547,-28.356244734891764,-25.606236125805072,-23.97066338781197,-30.820834705985046,67.06300000002375
313439.8557,-28.829558116309617,-23.483913768300216,-26.35359162604584,-29.641539175065876,67.06400000001304
313439.8567,-29.46591950860969,-21.569839457168836,-29.049304096395073,-28.33392461235085,67.06500000000233
313439.8577,-30.355468754774513,-20.010317692594835,-32.07847983861942,-27.03618855946147,67.06599999999162
313439.8587,-31.511790909706964,-18.87309209263784,-35.38341355907875,-25.82552203582686,67.06699999998091
313439.8597,-32.871626940320716,-18.14561724466601,-38.830668594751046,-24.71724921559712,67.0679999999702
313439.8607,-34.30344705727876,-17.742186364918318,-42.222412826150084,-23.671503508819487,67.0690000000177
313439.8617,-35.62395608256291,-17.51905423875029,-45.31536926426667,-22.60654863218479,67.07000000000698
313439.8627,-36.62078516351608,-17.295887456069917,-47.84552431038601,-21.417161578011758,67.07099999999627
313439.8637,-37.078984613544094,-16.8812352601743,-49.55612968900764,-19.995965308768696,67.07199999998556
313439.8647,-36.808532341974995,-16.09930747174527,-50.2261698296876,-18.255285680809905,67.07299999997485
313439.8657,-35.66995120143439,-14.815211094972286,-49.69638221380868,-16.1470413063992,67.07400000002235
313439.8667,-33.59529899769808,-12.955947670407225,-47.890123530187196,-13.678364008287772,67.07500000001164
313439.8677,-30.60224043537871,-10.524894377056627,-44.82685045936132,-10.921073107157733,67.07600000000093
313439.8687,-26.79958730305744,-7.608141806594081,-40.62668485042294,-8.01374734878236,67.07699999999022
313439.8697,-22.3835352604526,-4.371876171138301,-35.50539100973534,-5.15589267941043,67.07799999997951
313439.8707,-17.624749892979313,-1.0508931462830164,-29.76002421924794,-2.5945176880898297,67.07900000002701
313439.8717,-12.847370293893428,2.0707740719945407,-23.74642346870584,-0.6042205845358654,67.0800000000163
313439.8727,-8.401815135747318,4.685326906635902,-17.850528273052284,0.5374168918322156,67.08100000000559
313439.8737,-4.63391342271798,6.490356780507353,-12.45612020692901,0.576811614900814,67.08199999999488
313439.8747,-1.8532767832639785,7.2188695706859916,-7.911963324252903,-0.6888784943070028,67.08299999998417
313439.8757,-0.303942820437287,6.667241535044127,-4.501406852958718,-3.3879120363701,67.08399999997346
313439.8767,-0.14013771224115407,4.718332367779592,-2.4173089762902182,-7.555465725464871,67.08500000002095
313439.8777,-1.4095475980377885,1.3574159392530614,-1.7446611357957515,-13.122465793979762,67.08600000001024
313439.8787,-4.045795938249312,-3.3207457065069534,-2.4525837209371497,-19.913077317962678,67.08699999999953
313439.8797,-7.870964367339774,-9.11452832815534,-4.396493982612019,-27.651384541377773,67.08799999998882
313439.8807,-12.608050233285047,-15.727697439653246,-7.330298797321375,-35.9769386221689,67.08899999997811
313439.8817,-17.902315957030908,-22.790297542026558,-10.92752925383562,-44.46801300150841,67.09000000002561
313439.8827,-23.34964393910751,-29.886366163036307,-14.809500373422978,-52.670671290378465,67.0910000000149
313439.8837,-28.529347086184064,-36.5860070468361,-18.57792713780707,-60.13118930579574,67.09200000000419
313439.8847,-33.038463095216855,-42.47893744584858,-21.849019380866313,-66.4290365643411,67.09299999999348
313439.8857,-36.52442106876853,-47.20647950497194,-24.285951542620815,-71.20754646312596,67.09399999998277
313439.8867,-38.71312524890649,-50.48910930392732,-25.62677022593647,-74.19959699711247,67.09499999997206
313439.8877,-39.42993751477464,-52.14709545043462,-25.705246231034,-75.24606787234968,67.09600000001956
313439.8887,-38.6117155786789,-52.112411837306546,-24.462855076952142,-74.30549380751316,67.09700000000885
313439.8897,-36.308912330097826,-50.430933264353214,-21.950915467081636,-71.45413596345531,67.09799999999814
313439.8907,-32.677681622829795,-47.2548384916658,-18.322847266822464,-66.87656775335869,67.09899999998743
313439.8917,-27.962876325945164,-42.82606450078941,-13.817439771745915,-60.84773467802731,67.09999999997672
313439.8927,-22.473675038251052,-37.45248960431942,-8.734858306438277,-53.70821818548243,67.10100000002421
313439.8937,-16.554252688793177,-31.479191239363264,-3.407782553891142,-45.83503766153333,67.1020000000135
313439.8947,-10.552352266525034,-25.25756267127597,1.829499679657679,-37.61070530825762,67.1030000000028
313439.8957,-4.788778190196092,-19.115239730128557,6.6710645689687835,-29.393370206478043,67.10399999999208
313439.8967,0.46929841537101447,-13.329668930484903,10.865545355222862,-21.490739661852558,67.10499999998137
313439.8977,5.028742148805842,-8.10775471634331,14.23610954810205,-14.140063449933763,67.10599999997066
313439.8987,8.782731423959058,-3.573395705144055,16.692424412724794,-7.495849825042819,67.10700000001816
313439.8997,11.71390256694112,0.23607988636373645,18.233625165792834,-1.6262118328651711,67.10800000000745
313439.9007,13.888265338801814,3.3644618149995664,18.942199681669283,3.4821060044434815,67.10899999999674
313439.9017,15.440712799117243,5.92296753138982,18.96960345466139,7.91081440117053,67.10999999998603
313439.9027,16.553778039051327,8.069906467037768,18.515230783305643,11.790830383299763,67.11099999997532
313439.9037,17.431950621559913,9.985941051818445,17.80101327256055,15.278841028103477,67.11200000002282
313439.9047,18.274292047655887,11.847609349096585,17.04433214546502,18.53220840878522,67.11300000001211
313439.9057,19.248240937801622,13.801928977865103,16.432076712097853,21.684871725033624,67.1140000000014
313439.9067,20.467360861481804,15.94477447358744,16.09854454425897,24.826766515723893,67.11499999999069
313439.9077,21.97537143415688,18.30532397313817,16.10947421801045,27.98889643332691,67.11599999997998
313439.9087,23.738158059350507,20.83824613398062,16.45387000197027,31.13559979716468,67.11700000002747
313439.9097,25.644642021216765,23.42450700321581,17.04448283872139,34.16481079316489,67.11800000001676
313439.9107,27.51649145314991,25.880797837661643,17.726932482922244,36.9162977813074,67.11900000000605
313439.9117,29.12575433915492,27.976705738689642,18.296578811517303,39.18704964111002,67.11999999999534
313439.9127,30.218686038726002,29.457956298886277,18.521462608165436,40.75225527116393,67.12099999998463
313439.9137,30.5434055933286,30.073429415396905,18.169014979406807,41.389752187538214,67.12199999997392
313439.9147,29.878610051890792,29.603247787971164,17.033840815255218,40.90546276991971,67.12300000002142
313439.9157,28.060443984000887,27.88510181142684,14.963753721535614,39.15722515102657,67.12400000001071
313439.9167,25.004775136286487,24.836117896120793,11.88138987370081,36.074569876998865,67.125
313439.9177,20.7225517443934,20.46798570398555,7.799141336091228,31.6723781385156,67.12599999998929
313439.9187,15.326570854102098,14.893693550145734,2.8257850167997898,26.05694412826016,67.12699999997858
313439.9197,9.02880639842896,8.325018642499844,-2.836020495833453,19.423695079896913,67.12800000002608
313439.9207,2.1283510426943617,1.0608025278825925,-8.901318937819996,12.046626327174726,67.12900000001537
313439.9217,-5.0090708709537894,-6.533073463577828,-15.022593267719255,4.26030723020598,67.13000000000466
313439.9227,-11.978247974750532,-14.050298226909616,-20.815938037652884,-3.5639700264157503,67.13099999999395
313439.9237,-18.365866712789316,-21.074973695871513,-25.891323689114728,-11.045761636764656,67.13199999998324
313439.9247,-23.7833028130532,-27.213922587855073,-29.88420658939223,-17.824265930163463,67.13299999997253
313439.9257,-27.897839408438514,-32.127540472990056,-32.48559789114902,-23.58572052464668,67.13400000002002
313439.9267,-30.459468762950074,-35.556395640263574,-33.46783854408652,-28.086911394417758,67.13500000000931
313439.9277,-31.32084126347006,-37.341168886243345,-32.70372361030245,-31.172666287738235,67.1359999999986
313439.9287,-30.448562335376216,-37.43414106178914,-30.177237954063894,-32.78576946493566,67.13699999998789
313439.9297,-27.924843804150232,-35.90121988026774,-25.984947635371157,-32.96844528156409,67.13799999997718
313439.9307,-23.93941354996307,-32.9143741696497,-20.32796171870464,-31.855346474350554,67.13900000002468
313439.9317,-18.772490188585603,-28.73522986296406,-13.495254306495958,-29.6587737853059,67.14000000001397
