TimeStamp,ECR,FCR,ECU,FCU,time_index
313373.7917,14.649633813599673,13.743015234545858,15.094780778916082,15.526695198977256,1.0
313373.7927,15.306915077589435,14.206825508274653,15.696954376031789,15.473195526839799,1.0009999999892898
313373.7937,15.010525948221353,13.787058816837645,15.357664056366277,14.600467500528238,1.0019999999785796
313373.7947,13.786011436929492,12.512079727372928,14.099198881637708,12.949930107754499,1.003000000026077
313373.7957,11.746564469056228,10.493597261410288,12.030650967602263,10.6371664649944,1.0040000000153668
313373.7967,9.081016517482293,7.915267184367244,9.336116814220253,7.840546096691144,1.0050000000046566
313373.7977,6.03442427990715,5.014159283040912,6.255618873098706,4.7836695930867155,1.0059999999939464
313373.7987,2.883191003565617,2.056941864514843,3.060663316917551,1.713384267229044,1.0069999999832362
313373.7997,-0.09280217278159378,-0.686843040670699,0.026872942782830568,-1.1244449867804442,1.007999999972526
313373.8007,-2.6382864640539796,-2.9717533434113697,-2.593583430181094,-3.50900551312183,1.0090000000200234
313373.8017,-4.548128395429752,-4.600984596329371,-4.5970293789519,-5.266060612484946,1.0100000000093132
313373.8027,-5.68775073043943,-5.446027476206362,-5.8483064376263885,-6.284793264460684,1.010999999998603
313373.8037,-6.006420512445586,-5.4594827725665525,-6.293805316763,-6.52829951567028,1.0119999999878928
313373.8047,-5.54207760851832,-4.6797476744888895,-5.966215530789712,-6.036689845394983,1.0129999999771826
313373.8057,-4.417212698772411,-3.2270909135374612,-4.980527208943425,-4.922488745866787,1.01400000002468
313373.8067,-2.826188537565068,-1.2914868094352545,-3.521685988300669,-3.358785956738413,1.0150000000139698
313373.8077,-1.0152456540423356,0.8866043421154453,-1.8251298806560161,-1.5613121537218009,1.0160000000032596
313373.8087,0.7428398001052532,3.0406202517519954,-0.15214445651903832,0.23378346259797375,1.0169999999925494
313373.8097,2.1769440967992915,4.9050385874541025,1.2375100218812016,1.7942459723070674,1.0179999999818392
313373.8107,3.045838661138758,6.242589255192225,2.112969769525146,2.915696968346475,1.018999999971129
313373.8117,3.1636807783818854,6.868832074302523,2.2968996481893664,3.442890338005172,1.0200000000186265
313373.8127,2.420205802941721,6.67164377587047,1.6849111329926165,3.2861071446213566,1.0210000000079162
313373.8137,0.7935853199416015,5.623649400028478,0.2577972746735246,2.4310277137489806,1.021999999997206
313373.8147,-1.6453722719667379,3.786318943677141,-1.9146827466966658,0.9410567407832093,1.0229999999864958
313373.8157,-4.73815851879377,1.3052637160464902,-4.678908955563084,-1.0481821294064222,1.0239999999757856
313373.8167,-8.252225563752198,-1.6028711245017913,-7.810961762796023,-3.3416946783657937,1.025000000023283
313373.8177,-11.902101837888688,-4.6706952354787035,-11.037371338249338,-5.704093805403967,1.0260000000125729
313373.8187,-15.375959962343883,-7.605610970955843,-14.061075490520375,-7.882883138856764,1.0270000000018626
313373.8197,-18.365093367117343,-10.118145500048804,-16.590085831259323,-9.633789719315867,1.0279999999911524
313373.8207,-20.593463819219853,-11.950337057056615,-18.366084203699586,-10.745674597640821,1.0289999999804422
313373.8217,-21.844463154490708,-12.901416272238645,-19.190163889413,-11.062576505012792,1.029999999969732
313373.8227,-21.982291234638385,-12.848273138514932,-18.94319418789612,-10.500708690660158,1.0310000000172295
313373.8237,-20.96586364985549,-11.758694493254637,-17.598797293943207,-9.058707280642626,1.0320000000065193
313373.8247,-18.853877457663685,-9.696048212142454,-15.227633626722124,-6.820074933232654,1.032999999995809
313373.8257,-15.800511972170037,-6.814911656224902,-11.992527293273449,-3.947513640613241,1.0339999999850988
313373.8267,-12.042141918933138,-3.3480135982864025,-8.134846039744158,-0.6696224754876742,1.0349999999743886
313373.8277,-7.876304749466176,0.4143037533367155,-3.9533940553314664,2.7388260411662246,1.036000000021886
313373.8287,-3.6349086638690786,4.150174246351678,0.22220072483334352,5.981195176064565,1.0370000000111759
313373.8297,0.34577930704887194,7.535384353151901,4.0610909536619015,8.765597202934526,1.0380000000004657
313373.8307,3.755518474682154,10.27287407096404,7.261002554268019,10.831302737735465,1.0389999999897555
313373.8317,6.337973970787699,12.119767733122982,9.575393910837699,11.9724536624894,1.0399999999790452
313373.8327,7.913457202660212,12.90937821009978,10.835413745401876,12.056842532248739,1.0410000000265427
313373.8337,8.394393243747526,12.566112172253337,10.964591592026778,11.037992019008835,1.0420000000158325
313373.8347,7.792085200978488,11.111887360670062,9.984895276548485,8.959408095687788,1.0430000000051223
313373.8357,6.214185756788516,8.663488644883316,8.01362080250873,5.950628128063421,1.043999999994412
313373.8367,3.8531804687456974,5.421158711452129,5.251460636283675,2.2154672985926367,1.0449999999837019
313373.8377,0.967049059211953,1.649557150332807,1.9629409633012824,-1.9863919575482827,1.0459999999729916
313373.8387,-2.145983744301968,-2.3470527006779984,-1.5488549100067408,-6.3626942310562775,1.047000000020489
313373.8397,-5.176139305656252,-6.252986614453895,-4.970821517736823,-10.614560486729207,1.0480000000097789
313373.8407,-7.831434537758143,-9.769980898492125,-8.008870845956135,-14.462625253364298,1.0489999999990687
313373.8417,-9.864862753413666,-12.643936420738118,-10.414693023288683,-17.67089500009605,1.0499999999883585
313373.8427,-11.096810417491458,-14.687031640704495,-12.007695046562107,-20.066099806327298,1.0509999999776483
313373.8437,-11.430597015262812,-15.793137984031818,-12.690061026702711,-21.55076323751288,1.0520000000251457
313373.8447,-10.85971109107364,-15.945136001197458,-12.453561628966648,-22.1088372742383,1.0530000000144355
313373.8457,-9.466136686692925,-15.213528435776954,-11.377554703406524,-21.803478965437556,1.0540000000037253
313373.8467,-7.410040102138433,-13.746598275182276,-9.618483491619225,-20.76731163640516,1.054999999993015
313373.8477,-4.911931211635383,-11.753182695061007,-7.392008512144162,-19.186241127096732,1.0559999999823049
313373.8487,-2.2291439248386875,-9.479847269228657,-4.949623153224966,-17.278515830101103,1.0569999999715947
313373.8497,0.37097437307761877,-7.18477957026519,-2.552131581697718,-15.271168325273127,1.0580000000190921
313373.8507,2.6384672519089527,-5.111025688860714,-0.4426596024624306,-13.376212997600772,1.059000000008382
313373.8517,4.366030327057042,-3.461738302461212,1.1781033051206085,-11.768975923382639,1.0599999999976717
313373.8527,5.409622020982543,-2.3798872459392237,2.1719712529192665,-10.570701306248129,1.0609999999869615
313373.8537,5.702393981621983,-1.9344253523478059,2.476659706205162,-9.837136538689046,1.0619999999762513
313373.8547,5.26058715370855,-2.114249432290919,2.111209652170656,-9.55418979763196,1.0630000000237487
313373.8557,4.180847352926974,-2.8305134271294365,1.1729358163272412,-9.641040364015161,1.0640000000130385
313373.8567,2.6292738553436106,-3.927015396424834,-0.17375403967843045,-9.96033321900518,1.0650000000023283
313373.8577,0.8233409791315932,-5.197574486610832,-1.715508575549517,-10.334379831841561,1.065999999991618
313373.8587,-0.9914557219302768,-6.408617709900863,-3.2132943003147276,-10.565686370904356,1.0669999999809079
313373.8597,-2.5678504418864896,-7.324677735848878,-4.428400768565026,-10.459697977104135,1.0679999999701977
313373.8607,-3.6832874732867955,-7.7342129196528715,-5.148545541502825,-9.84742576649264,1.0690000000176951
313373.8617,-4.163939074052443,-7.473127898899171,-5.211421915921699,-8.605633639433465,1.070000000006985
313373.8627,-3.903812899382665,-6.443600427819351,-4.52328355071919,-6.672503637454481,1.0709999999962747
313373.8637,-2.876988860554345,-4.6262852355623485,-3.0706506763335626,-4.057147602721262,1.0719999999855645
313373.8647,-1.1417089134136076,-2.084622753108346,-0.9239042871197032,-0.8419449299913603,1.0729999999748543
313373.8657,1.1641446788373777,1.0392351841898428,1.76765952841812,2.8225991474803642,1.0740000000223517
313373.8667,3.8357867761511693,4.536536374751676,4.788892557358834,6.730033580524641,1.0750000000116415
313373.8677,6.621263133822829,8.150927921503644,7.878740983583503,10.636033670275243,1.0760000000009313
313373.8687,9.246255935108893,11.602506127528144,10.755149875728332,14.280625660068635,1.0769999999902211
313373.8697,11.44151956902956,14.614567736031939,13.142496084352869,17.41240079208035,1.077999999979511
313373.8707,12.970228087864639,16.94043369773657,14.798854036823817,19.81234510025532,1.0790000000270084
313373.8717,13.652506676992246,18.38769536137187,15.54039782819856,21.31493422442533,1.0800000000162981
313373.8727,13.384680053498577,18.837473062241934,15.260507641186203,21.824397644202897,1.081000000005588
313373.8737,12.15127616718551,18.256755544169074,13.94165363698118,21.324519409517467,1.0819999999948777
313373.8747,10.02852493318317,16.702559016478187,11.658827111516395,19.88096767428075,1.0829999999841675
313373.8757,7.178920607596319,14.3174414809184,8.57410906131523,17.635872025003412,1.0839999999734573
313373.8767,3.8372917395927604,11.316753256989248,4.922830211439738,14.795124542249361,1.0850000000209548
313373.8777,0.2896585364921343,7.968815457437532,0.9925994391437951,11.609593429871317,1.0860000000102445
313373.8787,-3.1531282413256214,4.56991480485183,-2.902821360855732,8.35203677078281,1.0869999999995343
313373.8797,-6.184450549970534,1.4165169765536234,-6.452307550630953,5.291929477881634,1.0879999999888241
313373.8807,-8.53089388492224,-1.2226192211055236,-9.37606952744665,2.670626664379988,1.088999999978114
313373.8817,-9.978324623397029,-3.1317261139005397,-11.45149920380518,0.6792603821764586,1.0900000000256114
313373.8827,-10.392539731052564,-4.168254737984046,-12.533673968634382,-0.5584939456178971,1.0910000000149012
313373.8837,-9.732469513791731,-4.27607675877517,-12.568537643424348,-0.9971149696035977,1.092000000004191
313373.8847,-8.05462722432564,-3.490371272395577,-11.597482414309173,-0.6723638525508561,1.0929999999934807
313373.8857,-5.508341601089853,-1.933713750906328,-9.752885489917853,0.30345372636094486,1.0939999999827705
313373.8867,-2.3221979260365875,0.19626042048030426,-7.245028539396091,1.7536238688799333,1.0949999999720603
313373.8877,1.2170367035847673,2.64642529506959,-4.341661595410867,3.4553701112872117,1.0960000000195578
313373.8887,4.791000398147,5.1330693739449345,-1.3421847411765766,5.162613987309554,1.0970000000088476
313373.8897,8.079297886467025,7.369718720377143,1.4510589378842764,6.630925217461875,1.0979999999981374
313373.8907,10.789209636424903,9.09517574158336,3.7616077952385685,7.642222390182079,1.0989999999874271
313373.8917,12.682707213441166,10.099049790545566,5.365043745988853,8.026809251414148,1.099999999976717
313373.8927,13.598194205121223,10.242300077699094,6.1099743721598205,7.680591904186146,1.1010000000242144
313373.8937,13.464903160890646,9.470797728233508,5.931824182977144,6.575793072760687,1.1020000000135042
313373.8947,12.30859072924803,7.820594740435069,4.8581264880945865,4.764115202384112,1.103000000002794
313373.8957,10.248016230900992,5.414396597523867,3.0048364968626715,2.3720424835834057,1.1039999999920838
313373.8967,7.482581173798253,2.4495933088795323,0.5640613358332355,-0.4112592406587249,1.1049999999813735
313373.8977,4.272361789581358,-0.8209731592408472,-2.2155617537552517,-3.352261482050042,1.1059999999706633
313373.8987,0.9125003390477188,-4.11361922540392,-5.053893283304362,-6.1958190471109775,1.1070000000181608
313373.8997,-2.2955376890463732,-7.1413985846832535,-7.667255998439564,-8.690117182766015,1.1080000000074506
313373.9007,-5.0730368643510975,-9.641952669930872,-9.796584686123252,-10.611377942524777,1.1089999999967404
313373.9017,-7.190609006048243,-11.402911644050628,-11.23299744229932,-11.78590620702565,1.1099999999860302
313373.9027,-8.489700216950661,-12.282366796016914,-11.838282295325103,-12.107314730383754,1.11099999997532
313373.9037,-8.896956738913122,-12.222419344415558,-11.558295822623336,-11.547237750847291,1.1120000000228174
313373.9047,-8.430082771485761,-11.254489565399158,-10.427968824240217,-10.158478154892059,1.1130000000121072
313373.9057,-7.194659683626483,-9.495877381116856,-8.567439812705095,-8.070271813383282,1.114000000001397
313373.9067,-5.372282613555992,-7.137922065844538,-6.1697092061982675,-5.476122330183258,1.1149999999906868
313373.9077,-3.2012206046660903,-4.426930751447338,-3.4810403171543935,-2.6153848502002304,1.1159999999799766
313373.9087,-0.9515371064578072,-1.6397525472655166,-0.7760459851797956,0.2496121083352983,1.117000000027474
313373.9097,1.1028524360242205,0.9436017943507402,1.6700777167307748,2.858682215061596,1.1180000000167638
313373.9107,2.7124126811163864,3.067606737017954,3.6094279865786176,4.978691306341749,1.1190000000060536
313373.9117,3.6777126210671094,4.526422614005806,4.846626808645831,6.425838919462194,1.1199999999953434
313373.9127,3.870094356076146,5.184178068128097,5.258909818842298,7.083145107398789,1.1209999999846332
313373.9137,3.2452384026254135,4.98834485742085,4.809077232679816,6.911444177684061,1.121999999973923
313373.9147,1.848277625477818,3.9748927527687896,3.550009627789331,5.952820459788435,1.1230000000214204
313373.9157,-0.1900561737367096,2.2647176337219994,1.6202768954664282,4.326158259846846,1.1240000000107102
313373.9167,-2.6658867218204976,0.051690657298275246,-0.7687590785500996,2.21524676319595,1.125
313373.9177,-5.322036341651784,-2.4165031138584676,-3.353113758400073,-0.14939430019100827,1.1259999999892898
313373.9187,-7.87331793242009,-4.862862242577655,-5.841673464512977,-2.513191701797142,1.1269999999785796
313373.9197,-10.034799009349971,-7.008505770244757,-7.944541394305856,-4.62248515876167,1.128000000026077
313373.9207,-11.550266381386848,-8.600364675963263,-9.401481760759342,-6.249349536834143,1.1290000000153668
313373.9217,-12.218096834358539,-9.436417994293196,-10.007693582504995,-7.2138566581679235,1.1300000000046566
313373.9227,-11.911989538447164,-9.386003426806884,-9.63440165395029,-7.401613940982275,1.1309999999939464
313373.9237,-10.594515257635367,-8.40321352589125,-8.242253286189582,-6.774881394521399,1.1319999999832362
313373.9247,-8.322136904973203,-6.5320640736506475,-5.886206609081353,-5.3761981167525965,1.132999999972526
313373.9257,-5.241187108228138,-3.9029249822679053,-2.711421489019542,-3.324182668349267,1.1340000000200234
313373.9267,-1.5751699221530304,-0.7205572556195462,1.0594631115664974,-0.8019367074211189,1.1350000000093132
313373.9277,2.395400552191563,2.7550811844734295,5.146446392583787,1.9607968133300486,1.135999999998603
313373.9287,6.358684764608062,6.233392795905318,9.23774264157383,4.709961373574722,1.1369999999878928
313373.9297,10.000248082913936,9.42067058986803,13.018355737514643,7.191805952234225,1.1379999999771826
313373.9307,13.032063926873859,12.047922653420947,16.19890215636479,9.177381364545761,1.13900000002468
313373.9317,15.218991889650626,13.896286243092254,18.541914340049495,10.484517200118159,1.1400000000139698
313373.9327,16.400181329602727,14.817564860393539,19.883106730167942,10.995135054945456,1.1410000000032596
313373.9337,16.503347749733628,14.747900872029232,20.145581939414377,10.666216117510718,1.1419999999925494
313373.9347,15.550565904158484,13.713269292518932,19.345645763901704,9.53336800262073,1.1429999999818392
313373.9357,13.655051663831054,11.826279277834919,17.589719228084157,7.706665374105261,1.143999999971129
313373.9367,11.009283089721684,9.27462016607049,15.06270332334071,5.35919964224344,1.1450000000186265
313373.9377,7.86565387965821,6.302305231742147,12.008982665100383,2.7094901200556643,1.1460000000079162
313373.9387,4.511576914406905,3.18556875343751,8.707966772120558,-0.0004879610473424328,1.146999999997206
313373.9397,1.2414912102444187,0.20579179552565297,5.446592540311333,-2.529473455898955,1.1479999999864958
313373.9407,-1.671480052019078,-2.377881523673417,2.4914976729061733,-4.660887969136724,1.1489999999757856
313373.9417,-4.001448161019683,-4.353550452785345,0.0635947124084857,-6.2242260652647845,1.150000000023283
313373.9427,-5.590729173652964,-5.576738422209131,-1.6824725989702531,-7.111746430590919,1.1510000000125729
313373.9437,-6.363835417745294,-5.983778493290625,-2.671999866889618,-7.288808945128217,1.1520000000018626
313373.9447,-6.333150739502179,-5.597105134388917,-2.9157141802786115,-6.796831440465848,1.1529999999911524
313373.9457,-5.595775261731733,-4.52195240524719,-2.5065948450664917,-5.74857018837483,1.1539999999804422
313373.9467,-4.321897896171791,-2.934805558131243,-1.6083889635809063,-4.31618808986221,1.154999999969732
313373.9477,-2.735890828278536,-1.0647653969221034,-0.4370097296224407,-2.7132893833504177,1.1560000000172295
313373.9487,-1.09203753848442,0.8303172468785474,0.7632914504778916,-1.1726991251223091,1.1570000000065193
313373.9497,0.3526658065306732,2.4905643579160093,1.746572138294894,0.07780932832841904,1.157999999995809
313373.9507,1.3659084255737222,3.680996511846741,2.2919808372107444,0.8394270406755285,1.1589999999850988
313373.9517,1.76491708281174,4.2159864244240906,2.2279769794009447,0.9634792087887569,1.1599999999743886
313373.9527,1.436269634386626,3.9788074846441126,1.4515463914920572,0.36773187833801535,1.161000000021886
313373.9537,0.34867596601769474,2.9343262554609453,-0.059534568400162115,-0.9538120112738495,1.1620000000111759
313373.9547,-1.4425719526410103,1.1335618958347309,-2.2426445723467383,-2.9286395800460783,1.1630000000004657
313373.9557,-3.7999548084423234,-1.2903644432509003,-4.9549175233955856,-5.411254003764235,1.1639999999897555
313373.9567,-6.516487412534125,-4.1345194207703475,-7.986083930637205,-8.196010420396291,1.1649999999790452
313373.9577,-9.335654957783591,-7.145503374467332,-11.078321074636168,-11.03605347227104,1.1660000000265427
313373.9587,-11.976578380857623,-10.043971992353429,-13.951180761944162,-13.666545594396615,1.1670000000158325
313373.9597,-14.161939776556471,-12.55193999833446,-16.329153607963384,-15.829948207988368,1.1680000000051223
313373.9607,-15.645917431500365,-14.420193621965472,-17.96915822431204,-17.30090868745685,1.168999999994412
313373.9617,-16.23936854537746,-15.4531208303585,-18.685239299444916,-17.90833507890628,1.1699999999837019
313373.9627,-15.829757535326248,-15.528514115852337,-18.368021129717608,-17.552505508941024,1.1709999999729916
313373.9637,-14.393833821210771,-14.610386211759513,-16.996967281131166,-16.215534439074215,1.172000000020489
313373.9647,-12.001765877046449,-12.75351713299554,-14.644193639577855,-13.964157249354857,1.1730000000097789
313373.9657,-8.812269499179441,-10.099255242992356,-11.469403143210144,-10.944535886456668,1.1739999999990687
313373.9667,-5.059146469556072,-6.862947085996088,-7.706375744063542,-7.369559324179389,1.1749999999883585
313373.9677,-1.0304892028202355,-3.3141872439884983,-3.6422719833203194,-3.4998382669639927,1.1759999999776483
313373.9687,2.9574745836205207,0.24821933562340506,0.4082877597168016,0.3797968093087655,1.1770000000251457
313373.9697,6.589396014553084,3.5241728176132554,4.1318927234330625,3.986050925063492,1.1780000000144355
313373.9707,9.579892762913067,6.240379296920587,7.245011262618842,7.06271324483835,1.1790000000037253
313373.9717,11.699911974526806,8.175924011532896,9.519906128398382,9.403561337784375,1.179999999993015
313373.9727,12.797829481069389,9.182847885996019,10.80530389489808,10.870441942350041,1.1809999999823049
313373.9737,12.81325314369655,9.199742850019614,11.03983231646007,11.404818977691011,1.1819999999715947
313373.9747,11.782202980139404,8.25705925662148,10.256938426796994,11.031714687821047,1.1830000000190921
313373.9757,9.833174882500531,6.473623812849395,8.580824702985431,9.855708233184655,1.184000000008382
313373.9767,7.174476883332413,4.044720131663174,6.213810201971037,8.049425704794478,1.1849999999976717
313373.9777,4.074071025400262,1.2229029620535596,3.4163534028615565,5.8356813721891605,1.1859999999869615
313373.9787,0.8338776040589732,-1.7065785965397477,0.4816825988540198,3.46504126565734,1.1869999999762513
313373.9797,-2.238968680511939,-4.453352768497145,-2.2925010808918733,1.1910174576013854,1.1880000000237487
313373.9807,-4.861131188656176,-6.749808925267749,-4.632504173332789,-0.7546777761246082,1.1890000000130385
313373.9817,-6.799553989870647,-8.376586278036847,-6.314549852178304,-2.184405597045151,1.1900000000023283
313373.9827,-7.892869916518683,-9.183199918495342,-7.185617587605664,-2.9722422441788687,1.190999999991618
313373.9837,-8.065690510845931,-9.101817115139895,-7.177216162336641,-3.06529196510038,1.1919999999809079
313373.9847,-7.334434023559821,-8.152870708430559,-6.31078725348022,-2.487602552166081,1.1929999999701977
313373.9857,-5.804177110188663,-6.4419978125503405,-4.694257396523805,-1.336345996759255,1.1940000000176951
313373.9867,-3.6568939284097204,-4.148642301897622,-2.5101224936778466,0.22931065048784186,1.195000000006985
313373.9877,-1.1322870080586562,-1.507475459269082,0.0037236469391290668,2.0054999867338648,1.1959999999962747
313373.9887,1.4968647049668211,1.2155091883903089,2.578497852933886,3.7653650995116745,1.1969999999855645
313373.9897,3.952384329795328,3.7498520795603345,4.94193596834444,5.283005119215023,1.1979999999748543
313373.9907,5.978656813376586,5.847774986720426,6.845885115320057,6.357257524008692,1.1990000000223517
313373.9917,7.368105837419037,7.308935965553157,8.091351902610425,6.8329392574401995,1.2000000000116415
313373.9927,7.981676487114888,8.000348215681713,8.548534379945183,6.617423147444439,1.2010000000009313
313373.9937,7.762311661963388,7.869499027169336,8.169863724731151,5.690889803604101,1.2019999999902211
313373.9947,6.740106950487366,6.949377577712424,6.9947732876314115,4.109222426269663,1.202999999979511
313373.9957,5.028654225134131,5.354919605155676,5.145729773308864,1.9992410419820876,1.2040000000270084
313373.9967,2.812957327468575,3.27122441846728,2.815923766944974,-0.45326815067742676,1.2050000000162981
313373.9977,0.33013803489260296,0.9347121225562128,0.24983989308463972,-3.0215580651460825,1.206000000005588
313373.9987,-2.155135073873284,-1.3909134429133063,-2.2813701535573943,-5.46019069851309,1.2069999999948777
313373.9997,-4.378038480598603,-3.441516210566339,-4.507274605679413,-7.529376072481573,1.2079999999841675
313374.0007,-6.101068403246948,-4.979533462306159,-6.185597200327875,-9.018974493985592,1.2089999999734573
313374.0017,-7.138848812057208,-5.8184559606760216,-7.126981973984928,-9.769783146914289,1.2100000000209548
313374.0027,-7.377782982730476,-5.842347339014876,-7.214627240921139,-9.689988805776608,1.2110000000102445
313374.0037,-6.788564300313582,-5.018451181012471,-6.416829887453584,-8.765137909284622,1.2119999999995343
313374.0047,-5.430263860890385,-3.401610122575707,-4.791175021717207,-7.060607419121005,1.2129999999888241
313374.0057,-3.4455417481462103,-1.1300232193530861,-2.4799246742848418,-4.716292917072343,1.213999999978114
313374.0067,-1.0474043243706854,1.5872827822387408,0.30297756547819965,-1.9339924594669655,1.2150000000256114
313374.0077,1.5012344610996489,4.490078944012165,3.2920459477002124,1.0413188576936954,1.2160000000149012
313374.0087,3.9132159539376885,7.291768805485973,6.195593521100551,3.9445280858384577,1.217000000004191
313374.0097,5.9055303325132495,9.707030191132723,8.723819267006373,6.515515983801472,1.2179999999934807
313374.0107,7.227668956171513,11.47958196797134,10.616912908015786,8.523950263120245,1.2189999999827705
313374.0117,7.687156359893327,12.407375202832787,11.67044235167834,9.79133765757246,1.2199999999720603
313374.0127,7.169747425045697,12.362753489453928,11.755549434613465,10.208194307025714,1.2210000000195578
313374.0137,5.652286340982512,11.30561230734044,10.831982083027803,9.744665256764451,1.2220000000088476
313374.0147,3.206931686685781,9.28826476144355,8.95268603962693,8.453558130068986,1.2229999999981374
313374.0157,-0.003712724775221431,6.4515247386236,6.259498924405919,6.46549127931307,1.2239999999874271
313374.0167,-3.7401402212060857,3.0123698754666255,2.9703534307949333,3.976621135937947,1.224999999976717
313374.0177,-7.706894469787361,-0.7556374033161863,-0.6407795628755305,1.2301324083276246,1.2260000000242144
313374.0187,-11.578951871787616,-4.547291801211669,-4.269273760653178,-1.5067219527982307,1.2270000000135042
313374.0197,-15.031024639579336,-8.053653824723327,-7.608107652846346,-3.9678153084691994,1.228000000002794
313374.0207,-17.76699287862276,-10.990245639978342,-10.376278729913679,-5.913148089554713,1.2289999999920838
313374.0217,-19.546662094939073,-13.122832425986111,-12.344639145533638,-7.151250568229618,1.2299999999813735
313374.0227,-20.207302923712625,-14.288328548712858,-13.356677535419943,-7.556841670044897,1.2309999999706633
313374.0237,-19.67793693742782,-14.408848106828913,-13.342269843016409,-7.082064637684819,1.2320000000181608
313374.0247,-17.985036467293142,-13.49759155838736,-12.323111949910457,-5.7602498064096705,1.2330000000074506
313374.0257,-15.24913857332444,-11.656058205080365,-10.409360860584652,-3.7018851005019022,1.2339999999967404
313374.0267,-11.672752278107266,-9.062920006390188,-7.787869285386463,-1.0832345391960365,1.2349999999860302
313374.0277,-7.520778089999596,-5.955702656145264,-4.703216605688996,1.871240315081407,1.23599999997532
313374.0287,-3.0953777362230954,-2.607115751645637,-1.433437300230742,4.910901302683992,1.2370000000228174
313374.0297,1.2922401292174712,0.7016127992110488,1.7371422811049304,7.783216082766409,1.2380000000121072
313374.0307,5.350366959254678,3.70776230578722,4.545276105740159,10.257909811833533,1.239000000001397
313374.0317,8.832907121089669,6.191848065023074,6.773689443179951,12.148617972884745,1.2399999999906868
313374.0327,11.560544716208119,7.997637286414506,8.271055696538701,13.329929022473447,1.2409999999799766
313374.0337,13.434953263096642,9.045514127556347,8.965122412185925,13.748169463102599,1.242000000027474
313374.0347,14.444733578518106,9.337923923666956,8.867736044129881,13.424909203263587,1.2430000000167638
313374.0357,14.662588842642636,8.95641887667558,8.071323504529465,12.452889963150232,1.2440000000060536
313374.0367,14.234115491700917,8.050665486900796,6.737239435551211,10.984832566567402,1.2449999999953434
313374.0377,13.359418611292059,6.8205751361795395,5.077197553021223,9.216286003743047,1.2459999999846332
313374.0387,12.269469185189893,5.493404359738271,3.329692465826876,7.3642724443345555,1.246999999973923
313374.0397,11.199638109617302,4.2981727677396115,1.733817105459486,5.643899574158033,1.2480000000214204
313374.0407,10.36311732632967,3.440014649895203,0.5031409414214558,4.245313470495885,1.2490000000107102
313374.0417,9.926944581969641,3.0770883260273227,-0.19769039615533884,3.3133316300275126,1.25
313374.0427,9.99308449828148,3.3024141983921793,-0.2712424954698848,2.9318297875394705,1.2509999999892898
313374.0437,10.586510725963276,4.132522855460082,0.3014177053857707,3.114483759525736,1.2519999999785796
313374.0447,11.651531898003395,5.504116447896371,1.4576172997959185,3.8028350204565364,1.253000000026077
313374.0457,13.056777014641966,7.279146535524043,3.0585302816467244,4.871918214887627,1.2540000000153668
313374.0467,14.60838530817179,9.257868451948744,4.902703594892166,6.142932227708853,1.2550000000046566
313374.0477,16.070117495808944,11.198629128397885,6.746360217324883,7.401728391927935,1.2559999999939464
313374.0487,17.18840156098927,12.842461689432026,8.328496004916557,8.421299912605354,1.2569999999832362
313374.0497,17.719816668739778,13.940063855714032,9.398292824677721,8.986044139331817,1.257999999972526
313374.0507,17.458254433678274,14.278477898810298,9.74211867794535,8.915375182950836,1.2590000000200234
313374.0517,16.259004455184616,13.704794078537827,9.207401838485557,8.084308459758645,1.2600000000093132
313374.0527,14.057291080310986,12.144467848214532,7.7209500258663155,6.438917635517422,1.260999999998603
313374.0537,10.879314269716055,9.612348411368806,5.299810562136797,4.005051660116823,1.2619999999878928
313374.0547,6.844568537514871,6.215213724059174,2.0534828678432837,0.8893481577135978,1.2629999999771826
313374.0557,2.1590602365658875,2.145427245038571,-1.8228687318186696,-2.7276735476790748,1.26400000002468
313374.0567,-2.9000674809299305,-2.333805088422946,-6.063677454286982,-6.605883759442651,1.2650000000139698
313374.0577,-8.00714775068952,-6.910277207181014,-10.355356509086356,-10.465899062994149,1.2660000000032596
313374.0587,-12.815768814728921,-11.249723739671794,-14.363742424858549,-14.01364275618022,1.2669999999925494
313374.0597,-16.989125734587912,-15.025348418096428,-17.76403231929139,-16.96680464236115,1.2679999999818392
313374.0607,-20.230080667873672,-17.947159758805356,-20.270386604593615,-19.080694361017272,1.268999999971129
313374.0617,-22.3080722348093,-19.788332003008392,-21.66237957907289,-20.171022755479612,1.2700000000186265
313374.0627,-23.080296161624908,-20.406076287622962,-21.80576365274399,-20.131424623616514,1.2710000000079162
313374.0637,-22.505111337336245,-19.755017566006142,-20.665541899386266,-18.944027135659027,1.271999999997206
313374.0647,-20.64635674087687,-17.89177806571971,-18.310067597610665,-16.682024146197143,1.2729999999864958
313374.0657,-17.66812500119232,-14.970300221747731,-14.905738778635037,-13.503974400877247,1.2739999999757856
313374.0667,-13.820444634158003,-11.228320829606353,-10.702748646745215,-9.640328123778808,1.275000000023283
313374.0677,-9.417187699927108,-6.966248798980978,-6.01320290132551,-5.373425715974667,1.2760000000125729
313374.0687,-4.808259159414849,-2.5204201841314258,-1.1836403846155212,-1.0128328981438206,1.2770000000018626
313374.0697,-0.3486671037669854,1.7667635014122554,3.4354758966368726,3.1316813189634387,1.2779999999911524
313374.0707,3.6326331299164227,5.57701562122415,7.520445597319957,6.776996551987185,1.2789999999804422
313374.0717,6.861211424793591,8.643841571367856,10.802332376296361,9.690816975672302,1.279999999969732
313374.0727,9.140304583373014,10.775137457513273,13.089678858220257,11.710926792280128,1.2810000000172295
313374.0737,10.366495177984383,11.868627668895616,14.28384503046183,12.75775660549444,1.2820000000065193
313374.0747,10.536513728330856,11.918749568112526,14.385589180644956,12.839136072414478,1.282999999995809
313374.0757,9.744601954289372,11.014415454340638,13.492349523872901,12.04685790900763,1.2839999999850988
313374.0767,8.170777285223373,9.327955349006,11.786572237060593,10.545461137559968,1.2849999999743886
313374.0777,6.061204897823585,7.0963845494992,9.51628199022598,8.55438176253003,1.286000000021886
313374.0787,3.70262983052091,4.59686625800952,6.969822362002838,6.3252455212886645,1.2870000000111759
313374.0797,1.3933765403006049,2.118782152121029,4.447235651371951,4.116529875076499,1.2880000000004657
313374.0807,-0.5862662583414987,-0.06486922059983456,2.2310530071534123,2.1680579073986577,1.2889999999897555
313374.0817,-2.0014205426641616,-1.7239836061471892,0.5592984546028515,0.6777833732552689,1.2899999999790452
313374.0827,-2.685137522767239,-2.693233691925023,-0.3967275749573494,-0.2169148776804479,1.2910000000265427
313374.0837,-2.55393381095797,-2.8872540336796693,-0.547803832432011,-0.4516651238533442,1.2920000000158325
313374.0847,-1.6149123431401116,-2.307725646578751,0.1061161231138066,-0.040120141427651315,1.2930000000051223
313374.0857,0.03613705013553466,-1.0417563087690447,1.4776541950336783,0.9288522247446591,1.293999999994412
313374.0867,2.2253810707785626,0.7481948897524503,3.4023255245384703,2.3014519604134427,1.2949999999837019
313374.0877,4.719204819725166,2.8417771168084394,5.656314192939247,3.875623501224682,1.2959999999729916
313374.0887,7.248232062976551,4.983806166384819,7.979879972564677,5.422429279030834,1.297000000020489
313374.0897,9.534695108939308,6.910601129444308,10.10403515515413,6.7099753677670995,1.2980000000097789
313374.0907,11.320435149570638,8.376973637678747,11.777830773766427,7.527508329686584,1.2989999999990687
313374.0917,12.392771170494216,9.181197477251795,12.793554291761735,7.707300393262654,1.2999999999883585
313374.0927,12.605703403330468,9.18550210302625,13.007368393550259,7.1421714477966844,1.3009999999776483
313374.0937,11.894392334717427,8.330089329376591,12.353389299251035,5.796937453103158,1.3020000000251457
313374.0947,10.281528966580574,6.639322625787587,10.849865927504071,3.7126817429677477,1.3030000000144355
313374.0957,7.875019415639935,4.2195184996923984,8.596912272474317,1.0034582713876,1.3040000000037253
313374.0967,4.857267317401112,1.2486023534796704,5.766086211048225,-2.1542161426786413,1.304999999993015
313374.0977,1.467166156226842,-2.041305074398101,2.5829156305814243,-5.538013610435484,1.3059999999823049
313374.0987,-2.0233707969128516,-5.38660900037986,-0.6958322225282599,-8.900921858428925,1.3069999999715947
313374.0997,-5.33598287203595,-8.51798868093053,-3.807828129285098,-11.994741069087816,1.3080000000190921
313374.1007,-8.21287936453801,-11.186599128172382,-6.511211936965426,-14.59361956299052,1.309000000008382
313374.1017,-10.441611063924386,-13.188116393970105,-8.608359607100413,-16.515301224723995,1.3099999999976717
313374.1027,-11.875138200860679,-14.382237933698777,-9.965004395020976,-17.6379916515473,1.3109999999869615
313374.1037,-12.445213140097414,-14.705707316807931,-10.5228025513073,-17.911190410998046,1.3119999999762513
313374.1047,-12.167767806351415,-14.177580981634062,-10.304095577623942,-17.359439734637892,1.3130000000237487
313374.1057,-11.139796436077019,-12.896229596907654,-9.408406309269347,-16.078645712690133,1.3140000000130385
313374.1067,-9.528074504196823,-11.028391240818847,-8.00103699212959,-14.225366789711765,1.3150000000023283
313374.1077,-7.550870430001135,-8.791386511525783,-6.29493164026713,-12.000163099484567,1.315999999991618
313374.1087,-5.45450719031535,-6.4302884446813176,-4.527643495817273,-9.626689901637004,1.3169999999809079
313374.1097,-3.4871468924592914,-4.1923451748956095,-2.9357439469750184,-7.328640839017474,1.3179999999701977
313374.1107,-1.872451506279194,-2.3012305612519133,-1.72927240972166,-5.306860159046437,1.3190000000176951
313374.1117,-0.7857893809866388,-0.9337198397842404,-1.068830977349571,-3.718926269508452,1.320000000006985
313374.1127,-0.3354079389494591,-0.2011512614363072,-1.0476721704672924,-2.663263554412361,1.3209999999962747
313374.1137,-0.5505023235366209,-0.13756354577250374,-1.680637634226851,-2.169389336423934,1.3219999999855645
313374.1147,-1.3774259176741008,-0.695738960355327,-2.901128157557376,-2.1952925178390386,1.3229999999748543
313374.1157,-2.684478828170571,-1.7515977586277118,-4.566487538992203,-2.6322299034709147,1.3240000000223517
313374.1167,-4.274854481621964,-3.116558763842311,-6.471343251034171,-3.3164856076711406,1.3250000000116415
313374.1177,-5.906506940296708,-4.556685038304189,-8.367648533958192,-4.046941446887305,1.3260000000009313
313374.1187,-7.3170033479525225,-5.81675150798355,-9.989492602783544,-4.606720863094531,1.3269999999902211
313374.1197,-8.250916394912213,-6.646870769724111,-11.080255541766702,-4.786753824230409,1.327999999979511
313374.1207,-8.487041751605554,-6.82904402480452,-11.419431321099204,-4.40890674697852,1.3290000000270084
313374.1217,-7.86272248206289,-6.200993428940877,-10.846452119233305,-3.3463504489846216,1.3300000000162981
313374.1227,-6.292827712064896,-4.674882005885198,-9.279119871524333,-1.5390982788684084,1.331000000005588
313374.1237,-3.781441098017067,-2.2490138970805615,-6.724760903844492,0.9968889630070121,1.3319999999948777
313374.1247,-0.42501676434907465,0.9887159667931376,-3.2829174500013334,4.168010038222479,1.3329999999841675
313374.1257,3.5934119877377206,4.866053518626563,0.8607920306007183,7.80899708048293,1.3339999999734573
313374.1267,8.01851358719695,9.139883407156324,5.449153349822424,11.69605889756094,1.3350000000209548
313374.1277,12.54413953911554,13.516769161882026,10.174872707375062,15.565989837501832,1.3360000000102445
313374.1287,16.840007839935318,17.678619477419765,14.70713203319565,19.139448755273374,1.3369999999995343
313374.1297,20.581073073615187,21.31105665468493,18.720687605041732,22.1461945584661,1.3379999999888241
313374.1307,23.476794067207162,24.13179011702559,21.924757486445362,24.349861712799754,1.338999999978114
313374.1317,25.2975069049704,25.916286648491432,24.088951780720908,25.569891411625964,1.3400000000256114
313374.1327,25.895379577735312,26.51828116108423,25.06377491342612,25.69849925278956,1.3410000000149012
313374.1337,25.21793888865923,25.88316316773211,24.793744833814337,24.711032766533833,1.342000000004191
313374.1347,23.312870648957215,24.05295704378272,23.32188028506148,22.668706162077267,1.3429999999934807
313374.1357,20.323631625492393,21.162422130183206,20.785135536783585,19.71343346224716,1.3439999999827705
313374.1367,16.476294592319153,17.426653003456025,17.401231591838208,16.05524316628094,1.3449999999720603
313374.1377,12.058890120106438,13.121377476119497,13.44815913952171,11.953473270849855,1.3460000000195578
313374.1387,7.395228259197182,8.557850360724206,9.238330874015697,7.693544906086013,1.3470000000088476
313374.1397,2.8157098560974,4.054756415368699,5.089870750387875,3.561537366300107,1.3479999999981374
313374.1407,-1.3720804314011235,-0.09018400774867846,1.2977956217021662,-0.18100460120338926,1.3489999999874271
313374.1417,-4.910196718229943,-3.626195422612762,-1.8921555337832456,-3.319629087015298,1.349999999976717
313374.1427,-7.612029272427077,-6.370548819093583,-4.304557731373172,-5.704761366972598,1.3510000000242144
313374.1437,-9.376844508343561,-8.22280521127663,-5.848224039006046,-7.263045593788048,1.3520000000135042
313374.1447,-10.19584079756448,-9.170899371548833,-6.521741329362896,-8.001207944242221,1.353000000002794
313374.1457,-10.149226272193413,-9.288564613915241,-6.41016540643823,-8.002138140796559,1.3539999999920838
313374.1467,-9.39470370146475,-8.724448503504886,-5.6732891733451885,-7.413647242796317,1.3549999999813735
313374.1477,-8.148586264009518,-7.684081531891333,-4.526720757926501,-6.431074185723004,1.3559999999706633
313374.1487,-6.661484492264443,-6.4065565358708305,-3.217708460403746,-5.275511738719467,1.3570000000181608
313374.1497,-5.191028735603552,-5.13828784969042,-1.9981575818001773,-4.169845778086501,1.3580000000074506
313374.1507,-3.974371971802482,-4.106495912454737,-1.0975510013597565,-3.3150086339233282,1.3589999999967404
313374.1517,-3.2032274016842415,-3.4950783893035946,-0.698484843987732,-2.8688175854213687,1.3599999999860302
313374.1527,-3.0039332870403674,-3.4252815699525816,-0.9172629856691014,-2.929506396544986,1.36099999997532
313374.1537,-3.4245298946502496,-3.9431004414489497,-1.7914859531869027,-3.525587055848835,1.3620000000228174
313374.1547,-4.430130264280519,-5.0146603411815445,-3.275871055386558,-4.613046948222994,1.3630000000121072
313374.1557,-5.907037109961584,-6.530034112408972,-5.246720105153539,-6.080155716814508,1.364000000001397
313374.1567,-7.675184190413155,-8.315104983631162,-7.514589579337009,-7.759397986869226,1.3649999999906868
313374.1577,-9.507648044408427,-10.150280162322243,-9.843900285131012,-9.445337523941658,1.3659999999799766
313374.1587,-11.155267127088141,-11.794172802223407,-11.97753005152107,-10.916625256903679,1.367000000027474
313374.1597,-12.37389004296099,-13.009868439053415,-13.663931970603022,-11.959946377483062,1.3680000000167638
313374.1607,-12.951503710599862,-13.591125825792558,-14.684061729037968,-12.393501651207867,1.3690000000060536
313374.1617,-12.73249288234648,-13.38585785098341,-14.875406316541328,-12.087655057807194,1.3699999999953434
313374.1627,-11.636554799243761,-12.31449667172488,-14.15068233458606,-10.98065057593895,1.3709999999846332
313374.1637,-9.670310510291074,-10.381343289246878,-12.509288490251675,-9.087779043692239,1.371999999973923
313374.1647,-6.930367024434476,-7.677687104658638,-10.04030327037898,-6.503014888369326,1.3730000000214204
313374.1657,-3.597422304102897,-4.3762884310890255,-6.916646183641556,-3.3928796374089174,1.3740000000107102
313374.1667,0.07811390706929743,-0.7176673392304995,-3.3808883331793265,0.01694769039512553,1.375
313374.1677,3.797672693598228,3.0105479159122255,0.27597956515306815,3.4610387742368944,1.3759999999892898
313374.1687,7.241229058194705,6.499269929524978,3.7408169601319337,6.657812644300679,1.3769999999785796
313374.1697,10.096615882235113,9.446154091553204,6.707133803731466,9.335072505858072,1.378000000026077
313374.1707,12.08863906025614,11.583645014300988,8.903655426256764,11.255034888935082,1.3790000000153668
313374.1717,13.005187503233628,12.704159221664739,10.119896527599723,12.236442197543969,1.3800000000046566
313374.1727,12.717808741726753,12.679960680135846,10.226268227036297,12.17162364258721,1.3809999999939464
313374.1737,11.194744928292831,11.475789734678575,9.186763296851666,11.03685195340087,1.3819999999832362
313374.1747,8.505144329720709,9.15300029666582,7.0629770863526105,8.894987255293017,1.382999999972526
313374.1757,4.814009866520196,5.864777136858874,4.009055860754578,5.8901423085707405,1.3840000000200234
313374.1767,0.3683364618523869,1.842865191328045,0.258039014901889,2.234872455641534,1.3850000000093132
313374.1777,-4.524263858279675,-2.622938075058064,-3.8991084432248733,-1.8088859675445457,1.385999999998603
313374.1787,-9.522428611579702,-7.210578019232253,-8.139772573043045,-5.95330367124849,1.3869999999878928
313374.1797,-14.280857147497697,-11.594367679694168,-12.138766052086856,-9.910324273101885,1.3879999999771826
313374.1807,-18.4802440171379,-15.473713946144903,-15.597426689554135,-13.41705489544969,1.38900000002468
313374.1817,-21.854504593506242,-18.599212233914187,-18.26996729542857,-16.258462909494153,1.3900000000139698
313374.1827,-24.212734251205646,-20.793638078927607,-19.984578917733398,-18.285230151079514,1.3910000000032596
313374.1837,-25.453860375828697,-21.965865532578654,-20.657305477068032,-19.425094683937637,1.3919999999925494
313374.1847,-25.5726614497157,-22.116434835534868,-20.297415632048487,-19.686650749440894,1.3929999999818392
313374.1857,-24.656669413901547,-21.334307762224498,-19.003827968058804,-19.155317060450546,1.393999999971129
313374.1867,-22.87435802642691,-19.78520835782847,-16.953017049371283,-17.981949544382918,1.3950000000186265
313374.1877,-20.455864316625288,-17.69276539803556,-14.379655272451771,-16.36529193293502,1.3960000000079162
313374.1887,-17.668209959013815,-15.314370654182715,-11.551947939524652,-14.530055954003021,1.396999999997206
313374.1897,-14.787514218763295,-12.914175670739919,-8.744127957626148,-12.702843724344346,1.3979999999864958
313374.1907,-12.070968965416782,-10.735919546166361,-6.208842480743984,-11.088327133779176,1.3989999999757856
313374.1917,-9.731352178537968,-8.97828487882629,-4.152160923713921,-9.848062899712946,1.400000000023283
313374.1927,-7.916589233272862,-7.775218345059589,-2.713662725515817,-9.08405131371838,1.4010000000125729
313374.1937,-6.69635770885048,-7.183152116640802,-1.9535509653679315,-8.828668305403461,1.4020000000018626
313374.1947,-6.0570223426531555,-7.176371826060319,-1.848035032105892,-9.041961536220892,1.4029999999911524
313374.1957,-5.9053520804883215,-7.650964067620621,-2.293401302629189,-9.616564814663485,1.4039999999804422
313374.1967,-6.0805932892674175,-8.436921516145807,-3.1183263802347945,-10.389723800361523,1.404999999969732
313374.1977,-6.373638670140412,-9.317170851783876,-4.103167987806049,-11.161214811613963,1.4060000000172295
313374.1987,-6.551322532213665,-10.051597891412715,-5.004274785996769,-11.71534773398072,1.4070000000065193
313374.1997,-6.383359790617552,-10.40364376079142,-5.580856523213978,-11.84483190605658,1.407999999995809
313374.2007,-5.669179029854291,-10.166785039201676,-5.621699287194269,-11.374091245545756,1.4089999999850988
313374.2017,-4.261905687735791,-9.188215472186512,-4.96902257248868,-10.179661022157378,1.4099999999743886
313374.2027,-2.087029492464002,-7.3873168848056245,-3.5370543528816816,-8.205579364046661,1.411000000021886
313374.2037,0.8461864601372958,-4.76701605584933,-1.3234199911103637,-5.472174515944661,1.4120000000111759
313374.2047,4.441780506410774,-1.4168227320966662,1.5878503611290988,-2.077296363996712,1.4130000000004657
313374.2057,8.523036123644664,2.4928367689721367,5.032062841892665,1.810215613041538,1.4139999999897555
313374.2067,12.846798360909368,6.724516169100019,8.77784988775099,5.964268951597576,1.4149999999790452
313374.2077,17.1248315998827,10.994586039605986,12.54809019274364,10.121185600140295,1.4160000000265427
313374.2087,21.05018038640736,14.99902911340978,16.045747963519208,14.003433981433936,1.4170000000158325
313374.2097,24.325986362314627,18.44171293845898,18.982125096466373,17.34514804557362,1.4180000000051223
313374.2107,26.693954225667795,21.062400806240205,21.10476916386999,19.916965662981497,1.418999999994412
313374.2117,27.959674284624207,22.661771263749795,22.222299379580807,21.547769442572353,1.4199999999837019
313374.2127,28.012297770697813,23.120992767320207,22.223700607811818,22.14120012170016,1.4209999999729916
313374.2137,26.836596019790893,22.41391665772936,21.090164240764086,21.685308559957683,1.422000000020489
313374.2147,24.516164131783924,20.610658609171697,18.898273037548346,20.254369132437862,1.4230000000097789
313374.2157,21.227382890872676,17.872167379024265,15.81416481912788,18.002631238119193,1.4239999999990687
313374.2167,17.224646492932916,14.436249480041141,12.079185518793366,15.15056343110871,1.4249999999883585
313374.2177,12.818210838196263,10.5963446664199,7.988369991613828,11.96487064867916,1.4259999999776483
313374.2187,8.3467351105926,6.67504942031887,3.8637882785223416,8.73416842718464,1.4270000000251457
313374.2197,4.14710791317993,2.9948955386072083,0.025297296602876062,5.742620021191738,1.4280000000144355
313374.2207,0.5244175857464742,-0.15084124530381918,-3.2385060212392385,3.2440417543917035,1.4290000000037253
313374.2217,-2.2750819259314126,-2.5245280576494187,-5.696349485165233,1.4389391671940321,1.429999999993015
313374.2227,-4.0854426304839535,-3.9652512143519694,-7.1948731706294895,0.4566555853636932,1.4309999999823049
313374.2237,-4.834897490787754,-4.402587098910943,-7.671772599354846,0.34432279701006513,1.4319999999715947
313374.2247,-4.550834933164636,-3.8617761481694464,-7.160249725763691,1.063648306102229,1.4330000000190921
313374.2257,-3.355425182780963,-2.4598363978885405,-5.784364395635063,2.4958187300440393,1.434000000008382
313374.2267,-1.4523500345974392,-0.3930249140034766,-3.7457589440985197,4.454017617581271,1.4349999999976717
313374.2277,0.8940573293486186,2.0831133109067794,-1.3030624319568982,6.702324123106561,1.4359999999869615
313374.2287,3.3852281770233095,4.679159390769435,1.2540124732408202,8.979147589182872,1.4369999999762513
313374.2297,5.717765659393028,7.100227876855994,3.633356529572993,11.02292141311065,1.4380000000237487
313374.2307,7.612999279868847,9.074617971595902,5.56914669389735,12.597569335102186,1.4390000000130385
313374.2317,8.843837635866361,10.379946506783734,6.847743110594506,13.515288629990849,1.4400000000023283
313374.2327,9.256342872046416,10.8642557634137,7.328296024628475,13.654464214934718,1.440999999991618
313374.2337,8.78397207641462,10.460087043583554,6.956078965528837,12.971008804423782,1.4419999999809079
313374.2347,7.453151095863168,9.190202504305873,5.7672776693862495,11.502069756237074,1.4429999999701977
313374.2357,5.379694495599348,7.164455425818352,3.8848001195967945,9.361789981453748,1.4440000000176951
313374.2367,2.7564787519955645,4.568172894051311,1.5055501421241808,6.729585256574885,1.445000000006985
313374.2377,-0.16637296867190335,1.643240501333758,-1.1195604499537621,3.832127823205505,1.4459999999962747
313374.2387,-3.106809961653079,-1.3362143851995307,-3.710879359792571,0.9208353599116945,1.4469999999855645
313374.2397,-5.779162305879603,-4.0911247746272625,-5.98806702923658,-1.7529040162523415,1.4479999999748543
313374.2407,-7.92264068710194,-6.365074020139504,-7.698174078152588,-3.9623279518615346,1.4490000000223517
313374.2417,-9.327221771838206,-7.9494593513089225,-8.640984374350358,-5.527302168375531,1.4500000000116415
313374.2427,-9.854379896246458,-8.70376411786078,-8.689138025091669,-6.331578068625121,1.4510000000009313
313374.2437,-9.45064098671606,-8.568964406177924,-7.801064485165241,-6.333629379603711,1.4519999999902211
313374.2447,-8.152647356966753,-7.572778798837933,-6.025464207985017,-5.570029503582171,1.452999999979511
313374.2457,-6.08326215335618,-5.826278415716342,-3.496908328813224,-4.151069702147881,1.4540000000270084
313374.2467,-3.4391271394378933,-3.5122284587865593,-0.42299827582526556,-2.2490845699485282,1.4550000000162981
313374.2477,-0.47093028470000176,-0.866348330660328,2.9356445435411676,-0.0806701605119642,1.456000000005588
313374.2487,2.5416424971867895,1.8466251195394994,6.290585875970261,2.1154189832579657,1.4569999999948777
313374.2497,5.317774577044741,4.359676003770412,9.35350064273533,4.1024837206459175,1.4579999999841675
313374.2507,7.603431971677989,6.430380460504488,11.864063009685676,5.669789546158876,1.4589999999734573
313374.2517,9.196547661761633,7.8652312791220815,13.615062562715805,6.6537887535613836,1.4600000000209548
313374.2527,9.966973103390234,8.538991428566852,14.472278763150367,6.9545414884059715,1.4610000000102445
313374.2537,9.869211601122544,8.40714570908037,14.38716223696911,6.545698722790113,1.4619999999995343
313374.2547,8.946662653724706,7.510204403513365,13.401079382031478,5.477048970569352,1.4629999999888241
313374.2557,7.326946572051897,5.969420846718078,11.640706772469615,3.8693681548190435,1.463999999978114
313374.2567,5.208761961140158,3.974336715675929,9.305032447955327,1.9020758154765913,1.4650000000256114
313374.2577,2.841568148838775,1.763380689444981,6.645246964022776,-0.20508442186134362,1.4660000000149012
313374.2587,0.5000976850797054,-0.40056204850599886,3.9395070052650607,-2.2145269442135525,1.467000000004191
313374.2597,-1.543779644685911,-2.2571884301545793,1.4650597168011774,-3.895238609935065,1.4679999999934807
313374.2607,-3.0490512520269433,-3.5757376941238324,-0.529522950770616,-5.046697797561034,1.4689999999827705
313374.2617,-3.8306304256765835,-4.179185569274656,-1.8492593703909534,-5.519911898410454,1.4699999999720603
313374.2627,-3.7789951354502667,-3.963248815800533,-2.372360289259864,-5.233464147601461,1.4710000000195578
313374.2637,-2.8724200240627336,-2.9082798708110804,-2.0625752586653276,-4.182946243670384,1.4720000000088476
313374.2647,-1.180547560196354,-1.082825098268582,-0.9730521014970333,-2.442799867052238,1.4729999999981374
313374.2657,1.141107686481421,1.3615635379790845,0.7586891425673467,-0.16033469173833687,1.4739999999874271
313374.2667,3.865237607099795,4.20381458482126,2.9241935454705255,2.4575401631465197,1.474999999976717
313374.2677,6.7140729428533685,7.173854764183543,5.26461832188101,5.16361555766401,1.4760000000242144
313374.2687,9.38592352512258,9.978196291915518,7.496387262164329,7.693859436296133,1.4770000000135042
313374.2697,11.584361873813446,12.328126453213777,9.3394448861986,9.792800948134493,1.478000000002794
313374.2707,13.047216702069532,13.967766571802745,10.54534228160796,11.238354724355023,1.4789999999920838
313374.2717,13.572550215070356,14.699268504560322,10.922396981742088,11.863663151325156,1.4799999999813735
313374.2727,13.039076470370906,14.402684623412698,10.355449618099703,11.573816098479524,1.4809999999706633
313374.2737,11.41901023152226,13.048556179558746,8.818263267512064,10.355798939298428,1.4820000000181608
313374.2747,8.782065088403145,10.701965635940011,6.377326448082286,8.28067311361009,1.4830000000074506
313374.2757,5.290175208331176,7.5176228544624,3.1866578373761296,5.497745289538295,1.4839999999967404
313374.2767,1.1834135955859453,3.7264226398024003,-0.5259117591204862,2.221258080077039,1.4849999999860302
313374.2777,-3.2415664098676613,-0.3852625213538852,-4.4796726186610085,-1.289138572955367,1.48599999997532
313374.2787,-7.658513751515376,-4.5015862451529705,-8.367171645098257,-4.752271732972213,1.4870000000228174
313374.2797,-11.741406615456446,-8.306046485900549,-11.883027893937175,-7.891398127281533,1.4880000000121072
313374.2807,-15.194267060182227,-11.51036316453011,-14.752641881944976,-10.459736116402887,1.489000000001397
313374.2817,-17.778107062978933,-13.88065461778641,-16.758020195922615,-12.263128244677421,1.4899999999906868
313374.2827,-19.332427466299837,-15.258414797797913,-17.75821553807181,-13.177663957450195,1.4909999999799766
313374.2837,-19.78921933028564,-15.574298054516014,-17.70240475277132,-13.160581294880437,1.492000000027474
313374.2847,-19.178144058659846,-14.853416360688733,-16.63434260926686,-12.253418792707206,1.4930000000167638
313374.2857,-17.62242353082978,-13.211676873002729,-14.687767349652027,-10.577140789539618,1.4940000000060536
313374.2867,-15.325871040100623,-10.84355546474193,-12.073213405375231,-8.31973749935478,1.4949999999953434
313374.2877,-12.552350467543212,-8.00252968398639,-9.057521366682693,-5.717529653220757,1.4959999999846332
313374.2887,-9.599681394514283,-4.976101796522545,-5.938043759212625,-3.0320152143672705,1.496999999973923
313374.2897,-6.7705407187064255,-2.0578603001248736,-3.0140582863372396,-0.524523407677492,1.4980000000214204
313374.2907,-4.343195032010693,0.4806937617025082,-0.5581678901539388,1.568852538080811,1.4990000000107102
313374.2917,-2.544905134850535,2.4158180409496994,1.209536771376258,3.059607906113704,1.5
313374.2927,-1.5305742117042176,3.592216090251582,2.142051526448514,3.8243014580934593,1.5009999999892898
313374.2937,-1.368691036904991,3.9367569588686027,2.178787283457322,3.8154741829196457,1.5019999999785796
313374.2947,-2.0359002158478967,3.46393451547447,1.350382404881372,3.06498065452913,1.503000000026077
313374.2957,-3.4206834263062875,2.2725897080648556,-0.22543675977998104,1.6794491442249584,1.5040000000153668
313374.2967,-5.335741971390414,0.5342796885785176,-2.35650628023512,-0.1716395083068624,1.5050000000046566
313374.2977,-7.537819157041508,-1.525501175950211,-4.796112855940076,-2.274039719941931,1.5059999999939464
313374.2987,-9.752974374997873,-3.6513424431868944,-7.268140204641264,-4.3911769164977565,1.5069999999832362
313374.2997,-11.704790312764503,-5.584762837680884,-9.49498236059667,-6.288687725743325,1.507999999972526
313374.3007,-13.142712179604112,-7.09118845321865,-11.225465819278531,-7.7586174844124765,1.5090000000200234
313374.3017,-13.867710675729864,-7.984365332526726,-12.26002651214334,-8.640865257649718,1.5100000000093132
313374.3027,-13.752729096436871,-8.145766626361807,-12.47066193355882,-8.839741110096204,1.510999999998603
313374.3037,-12.755892887097463,-7.537053975327666,-11.813696336643103,-8.333985107467527,1.5119999999878928
313374.3047,-10.925176170601976,-6.20434365474422,-10.334106896725418,-7.179244829073462,1.5129999999771826
313374.3057,-8.394063866368848,-4.27384236912064,-8.160991393627382,-5.502754446066957,1.51400000002468
313374.3067,-5.3686371072955374,-1.9392752356496314,-5.4946315526190315,-3.4907303563726413,1.5150000000139698
313374.3077,-2.107356445618481,0.5576549631723017,-2.5864349635438546,-1.3697201163072545,1.5160000000032596
313374.3087,1.1044613103983196,2.9518431632076014,0.2862588874717281,0.6162579821114911,1.5169999999925494
313374.3097,3.9829516949996,4.981952973672872,2.8480154831827678,2.2305269704041555,1.5179999999818392
313374.3107,6.273998430819792,6.417479105659684,4.853029617998054,3.2680585016696386,1.518999999971129
313374.3117,7.778716194583399,7.082998444224885,6.109990248021687,3.576861723232012,1.5200000000186265
313374.3127,8.373593245536089,6.877174734877953,6.501617494752231,3.0743202619279337,1.5210000000079162
313374.3137,8.023288820862904,5.784590250721087,5.99692502326904,1.7568342892687727,1.521999999997206
313374.3147,6.784799733550032,3.879177214909394,4.654974494864824,-0.29822259210639657,1.5229999999864958
313374.3157,4.802557192222441,1.3188437967973894,2.6197242777673133,-2.938470620789743,1.5239999999757856
313374.3167,2.2949054956263177,-1.6682463014887357,0.10645018639880535,-5.949878055481911,1.525000000023283
313374.3177,-0.4667384187262017,-4.8044599988158545,-2.618954168001061,-9.076239877437041,1.5260000000125729
313374.3187,-3.1840247148009237,-7.788567573982307,-5.265787230650097,-12.042915711993492,1.5270000000018626
313374.3197,-5.56056618111223,-10.324216153702217,-7.54694299448524,-14.582540140046284,1.5279999999911524
313374.3207,-7.33077108405499,-12.148253163552459,-9.207131220191014,-16.460219905604013,1.5289999999804422
313374.3217,-8.28579577664858,-13.056152052584466,-10.04814890744362,-17.49577639011688,1.529999999969732
313374.3227,-8.294076297441807,-12.922063864706258,-9.948719875959954,-17.580874059255382,1.5310000000172295
313374.3237,-7.314424014885136,-11.711531557115975,-8.876945155751052,-16.68936899577864,1.5320000000065193
313374.3247,-5.400393886646689,-9.485609579158087,-6.894124977720363,-14.879868051221367,1.532999999995809
313374.3257,-2.6954844174518913,-6.395960523550829,-4.149553400163393,-12.29024454990796,1.5339999999850988
313374.3267,0.5803772408328107,-2.671372919684562,-0.8667669139306312,-9.124637123620927,1.5349999999743886
313374.3277,4.151760875502542,1.403025516026256,2.677437316092799,-5.634187908372384,1.536000000021886
313374.3287,7.714041462433095,5.51187754580172,6.1791911972782385,-2.0933837187363755,1.5370000000111759
313374.3297,10.962535939441656,9.338531954536613,9.336421115575536,1.2257104148703943,1.5380000000004657
313374.3307,13.62163752271374,12.594034703047027,11.87759345260425,4.0788334073694825,1.5389999999897555
313374.3317,15.471116182905313,15.043401042473276,13.587554034355978,6.272074487316354,1.5399999999790452
313374.3327,16.367030057916164,16.526658873580796,14.327956511155758,7.67941175038022,1.5410000000265427
313374.3337,16.255218363046925,16.972662067726088,14.050300292761559,8.253562009974432,1.5420000000158325
313374.3347,15.176070391593155,16.40437483760853,12.800317454087468,8.02911579094699,1.5430000000051223
313374.3357,13.260116692953252,14.935156075135723,10.713289801793007,7.117685577654785,1.543999999994412
313374.3367,10.71488419884137,12.756445149454285,8.000759822359313,5.695575424610007,1.5449999999837019
313374.3377,7.804309336718418,10.118082922979722,4.9299362932065725,3.9852094629275996,1.5459999999729916
313374.3387,4.822728665982326,7.303212605361892,1.797805147594048,2.2321643571124703,1.547000000020489
313374.3397,2.0659943517048314,4.600225324086311,-1.097530591067358,0.6800770111513966,1.5480000000097789
313374.3407,-0.19745973195735558,2.274494398723949,-3.4854914440562994,-0.45409780970870056,1.5489999999990687
313374.3417,-1.7527734749844424,0.5426533070649636,-5.14885840702586,-1.0020445410084216,1.5499999999883585
313374.3427,-2.4594843670275806,-0.44808551294768617,-5.944299895255595,-0.861101047516202,1.5509999999776483
313374.3437,-2.264990672001488,-0.6335750303233189,-5.815604999534351,-0.004661613810272681,1.5520000000251457
313374.3447,-1.209347323395386,-0.038040305031782254,-4.798355249234179,1.515047430758595,1.5530000000144355
313374.3457,0.5790622486616672,1.2294324690763128,-3.0156061535290744,3.5720841715406566,1.5540000000037253
313374.3467,2.8965411400431202,2.9868383634819726,-0.6650298534101171,5.979287547109425,1.554999999993015
313374.3477,5.48449299092929,4.99841478639963,2.001194903108448,8.506915600993276,1.5559999999823049
313374.3487,8.055223162177489,6.999102370952199,4.701751268034515,10.905583261013303,1.5569999999715947
313374.3497,10.320588754755374,8.721870254227623,7.154305264029534,12.93123438388626,1.5580000000190921
313374.3507,12.020681675651664,9.925193669113401,9.103607556704867,14.369682398429092,1.559000000008382
313374.3517,12.949727551218338,10.417961884643669,10.346810790321783,15.058295649057323,1.5599999999976717
313374.3527,12.976657992094433,10.079352083693292,10.753514953604338,14.902683336914466,1.5609999999869615
313374.3537,12.05833749401785,8.871704205727626,10.278574849983375,13.886728298822097,1.5619999999762513
313374.3547,10.244147685874507,6.8451238465244675,8.966417970632854,12.07496563756027,1.5630000000237487
313374.3557,7.671479924991753,4.133356872968576,6.946457745531601,9.607057387725442,1.5640000000130385
313374.3567,4.552579193023983,0.9413401854329109,4.420064118575775,6.684889299724686,1.5650000000023283
313374.3577,1.1540304147263665,-2.4743465374715923,1.6403845625579763,3.553540366354098,1.565999999991618
313374.3587,-2.229100420115156,-5.830203813030401,-1.1129875666124494,0.4779778610530314,1.5669999999809079
313374.3597,-5.301934260237804,-8.843275871937431,-3.5619931122491377,-2.282248632577261,1.5679999999701977
313374.3607,-7.798445189368605,-11.258650256105717,-5.457970330683943,-4.497842695105442,1.5690000000176951
313374.3617,-9.507314704257773,-12.874284793922271,-6.606646711142655,-5.991698632781727,1.570000000006985
313374.3627,-10.292440287037207,-13.560715389439652,-6.88778645587282,-6.655795619558218,1.5709999999962747
313374.3637,-10.106089129651096,-13.27370076488318,-6.267545423968376,-6.461395059643078,1.5719999999855645
313374.3647,-8.99340932563301,-12.058554144290596,-4.802301775628365,-5.46154202262068,1.5729999999748543
313374.3657,-7.0878583380411015,-10.045728696750796,-2.6335683811863566,-3.7856238435029286,1.5740000000223517
313374.3667,-4.597998980164548,-7.438083153672452,0.0255299192178311,-1.6265156171674584,1.5750000000116415
313374.3677,-1.786959227319946,-4.491071975024929,2.9109009559871697,0.7784326685498038,1.5760000000009313
313374.3687,1.0534289933395034,-1.4878004560894944,5.733236684290946,3.1707101925498344,1.5769999999902211
313374.3697,3.631275726203311,1.2886091050748414,8.206351756030681,5.295982525596314,1.577999999979511
313374.3707,5.6832548466079995,3.5826283003943673,10.075331708914435,6.928975913339747,1.5790000000270084
313374.3717,7.000395951596085,5.191199048411593,11.141727670235916,7.895476628167685,1.5800000000162981
313374.3727,7.448518255067827,5.983430601887795,11.283319799044179,8.089295444546723,1.581000000005588
313374.3737,6.981304064450462,5.913178838107891,10.466500119935526,7.482539711356074,1.5819999999948777
313374.3747,5.6447312031650405,5.023266781029212,8.750045284830858,6.128190154505448,1.5829999999841675
313374.3757,3.5724309604734645,3.4409248141055255,6.279890719193905,4.154732432064624,1.5839999999734573
313374.3767,0.972427770659168,1.3648905396203377,3.2753972803128373,1.7533709525010144,1.5850000000209548
313374.3777,-1.893438318116918,-0.9545727009899723,0.008433882205455809,-0.8409214919756599,1.5860000000102445
313374.3787,-4.7353879922542825,-3.240783307816362,-3.222696948714486,-3.3726611555370285,1.5869999999995343
313374.3797,-7.26433989541609,-5.218414280235861,-6.121957805386425,-5.591138670046271,1.5879999999888241
313374.3807,-9.220499888144,-6.6412061970180805,-8.424108047976631,-7.275253915059676,1.588999999978114
313374.3817,-10.39909778133709,-7.3168971599079535,-9.920290990036044,-8.25546523188376,1.5900000000256114
313374.3827,-10.67074598775973,-7.126915334149593,-10.478184519664783,-8.430699156300824,1.5910000000149012
313374.3837,-9.994420941674143,-6.03888907500371,-10.054751782999679,-7.778558961478502,1.592000000004191
313374.3847,-8.421790390755328,-4.110729864230095,-8.700349121180608,-6.357825109148151,1.5929999999934807
313374.3857,-6.092457049357579,-1.4858660156887138,-6.553790477919399,-4.302994236739665,1.5939999999827705
313374.3867,-3.2205786564728536,1.6199300459347528,-3.8288487422561777,-1.8113819349283586,1.5949999999720603
313374.3877,-0.07416911796275572,4.9388557183657325,-0.7935088863688674,0.8759577980512054,1.5960000000195578
313374.3887,3.050897561402889,8.176568605927013,2.2560061951777555,3.4976380253825523,1.5970000000088476
313374.3897,5.859639640587541,11.040380364795658,5.023907496682002,5.7973866727855725,1.5979999999981374
313374.3907,8.08666483796971,13.267413884807576,7.24341795432078,7.549052698546836,1.5989999999874271
313374.3917,9.522005527287556,14.64998387101883,8.702476091776617,8.578727846561796,1.599999999976717
313374.3927,10.031564480338387,15.05572850512978,9.264066792334553,8.78182095427059,1.6010000000242144
313374.3937,9.570170508795787,14.440528879464468,8.879206709115737,8.1334128412343,1.6020000000135042
313374.3947,8.185966036839138,12.852953668775736,7.591330136340816,6.6908742184499,1.603000000002794
313374.3957,6.015696450099343,10.429790647956526,5.531661546618023,4.588482931652844,1.6039999999920838
313374.3967,3.271361014442908,7.383093718028697,2.9060412616851217,2.024556564483245,1.6049999999813735
313374.3977,0.21953010700096576,3.9799994091766333,-0.025495208917023587,-0.7576541570264432,1.6059999999706633
313374.3987,-2.844649279193515,0.517269809483188,-2.974377290939998,-3.4934578052254475,1.6070000000181608
313374.3997,-5.626218528778458,-2.706969093476428,-5.651882469903963,-5.922320087914457,1.6080000000074506
313374.4007,-7.859131185644656,-5.421553513443809,-7.797462850461912,-7.813081974858957,1.6089999999967404
313374.4017,-9.332128577764921,-7.407928369229963,-9.204244558444712,-8.986350652985964,1.6099999999860302
313374.4027,-9.909239854792812,-8.520633770069614,-9.739209403420624,-9.3318919794582,1.61099999997532
313374.4037,-9.542905862847988,-8.700656295128697,-9.356091691306677,-8.819340597362844,1.6120000000228174
313374.4047,-8.278448847105098,-7.980367229684464,-8.099738616544053,-7.501194991514542,1.6130000000121072
313374.4057,-6.2494574606951545,-6.479591137235213,-6.101520100602854,-5.507815797867691,1.614000000001397
313374.4067,-3.664545954158715,-4.393212916380782,-3.5662512075846515,-3.034923240177703,1.6149999999906868
313374.4077,-0.7867906165478376,-1.9715552967395364,-0.7519214284414948,-0.32481773230913286,1.6159999999799766
313374.4087,2.0921371319304,0.5045388823378676,2.0557711919793564,2.3568445607070965,1.617000000027474
313374.4097,4.680603272196874,2.75147281323324,4.57157576003494,4.746461235197748,1.6180000000167638
313374.4107,6.7156020395943665,4.510790861370077,6.53876732166545,6.607611222561656,1.6190000000060536
313374.4117,7.988503328744922,5.574476890108722,7.754391974175745,7.7534673786067945,1.6199999999953434
313374.4127,8.36543495288713,5.805190116870257,8.08920183089125,8.064332310591364,1.6209999999846332
313374.4137,7.800305201669367,5.149473822226929,7.500326363121334,7.498617315489408,1.621999999973923
313374.4147,6.3391936792446115,3.64266472179191,6.035440977024828,6.096228872603353,1.6230000000214204
313374.4157,4.115685524645126,1.4050468093868214,3.828029252081906,3.97407127520058,1.6240000000107102
313374.4167,1.3376127970825116,-1.3703470528005597,1.084210108313546,1.3141446925880755,1.625
313374.4177,-1.7334900469248349,-4.437063821396665,-1.9375705122285622,-1.6545602797058967,1.6259999999892898
313374.4187,-4.808194690097333,-7.519769506069644,-4.951983282728126,-4.678568302038968,1.6269999999785796
313374.4197,-7.597712906889148,-10.341570681302027,-7.674890115699026,-7.504598035890237,1.628000000026077
313374.4207,-9.8423495641749,-12.651420364743823,-9.851287111209375,-9.90398244867342,1.6290000000153668
313374.4217,-11.337075751320812,-14.248905846595292,-11.28036598814207,-11.694434030753643,1.6300000000046566
313374.4227,-11.951705115663788,-15.003976925837069,-11.835226874462293,-12.75702847020504,1.6309999999939464
313374.4237,-11.643685452177047,-14.869673485939613,-11.47530024038197,-13.046758920293872,1.6319999999832362
313374.4247,-10.462241780877251,-13.886602181584065,-10.250251421303494,-12.5956526199519,1.632999999972526
313374.4257,-8.543455643601643,-12.178725325675359,-8.294977466895087,-11.5081791728731,1.6340000000200234
313374.4267,-6.096755069044429,-9.9408809946036,-5.816181013740314,-9.949442591778105,1.6350000000093132
313374.4277,-3.3841334331450708,-7.419267882736106,-3.0718337536018816,-8.12736219536164,1.635999999998603
313374.4287,-0.694130588932325,-4.886821581001359,-0.3455416913357647,-6.270640489716464,1.6369999999878928
313374.4297,1.6868739748338015,-2.615912681641764,2.0816728711373123,-4.604730994917185,1.6379999999771826
313374.4307,3.503239263399108,-0.8510619485847523,3.9594011915856977,-3.3282148653381665,1.63900000002468
313374.4317,4.555704348571145,0.2156323070804835,5.092933366105818,-2.5919529175306244,1.6400000000139698
313374.4327,4.721569449878039,0.46392460723870954,5.362927819473245,-2.4831035603044977,1.6410000000032596
313374.4337,3.9674239584756026,-0.14221543264726427,4.737721419525898,-3.0156143535219804,1.6419999999925494
313374.4347,2.353155807040239,-1.5505410122681804,3.2770551302202757,-4.128153058671741,1.6429999999818392
313374.4357,0.026828128337637466,-3.6251828229115697,1.1268292499521233,-5.689706285167727,1.643999999971129
313374.4367,-2.789098004969021,-6.159580016604707,-1.4946200504285514,-7.512312820418436,1.6450000000186265
313374.4377,-5.818869151007588,-8.896432429791432,-4.317400873387413,-9.369689405285976,1.6460000000079162
313374.4387,-8.759829871069106,-11.552726980175652,-7.046078769254346,-11.019918975473427,1.646999999997206
313374.4397,-11.31153571225984,-13.847389668233,-9.388295040527838,-12.229963217169429,1.6479999999864958
313374.4407,-13.204757983268742,-15.52885306520197,-11.083204857423556,-12.799573059378572,1.6489999999757856
313374.4417,-14.227557330014955,-16.3998334288318,-11.926964556513193,-12.58222124927104,1.650000000023283
313374.4427,-14.245886748376066,-16.33688146737953,-11.792782955896808,-11.500965806321819,1.6510000000125729
313374.4437,-13.216716484689252,-15.30278002389465,-10.643579918738252,-9.557644314962,1.6520000000018626
313374.4447,-11.192401363517344,-13.350560829389357,-8.536015123813865,-6.834448788256178,1.6529999999911524
313374.4457,-8.315864326352202,-10.61873259088799,-5.615490722994135,-3.4876756959711237,1.6539999999804422
313374.4467,-4.807064984436917,-7.318173709728868,-2.102611101530266,0.26578722671974614,1.654999999969732
313374.4477,-0.9420712960829858,-3.7119604599566363,1.7275846795623098,4.167961785863851,1.6560000000172295
313374.4487,2.9732269648456287,-0.09009528269139605,5.57159837222493,7.943401299679368,1.6570000000065193
313374.4497,6.632202941811888,3.2583981834033273,9.126130139704745,11.324657718857978,1.657999999995809
313374.4507,9.756544488728258,6.073286014971131,12.116632895681299,14.077130069225536,1.6589999999850988
313374.4517,12.122447476830056,8.148119894032053,14.322990716932123,16.02088313778073,1.6599999999743886
313374.4527,13.581406836786956,9.349970049739753,15.599832332710308,17.0473139062133,1.661000000021886
313374.4537,14.073591911800893,9.631960537521486,15.889517528931453,17.129039826111924,1.6620000000111759
313374.4547,13.632519710493128,9.03737543892081,15.226552691763208,16.322039390296712,1.6630000000004657
313374.4557,12.380592130594007,7.694929188302366,13.733031281057418,14.759827637336134,1.6639999999897555
313374.4567,10.515957692937462,5.805659470753837,11.605573527968765,12.640223817123287,1.6649999999790452
313374.4577,8.292007181212606,3.6227222361089386,9.095071039225694,10.205989743832932,1.6660000000265427
313374.4587,5.991532695537809,1.426064848744151,6.481244829495055,7.721214794293979,1.6670000000158325
313374.4597,3.8981004826112504,-0.5055430877371133,4.044530762248084,5.445738544290759,1.6680000000051223
313374.4607,2.2674585159735257,-1.9223805927671265,2.038064977566596,3.610093929251419,1.668999999994412
313374.4617,1.3017937072811767,-2.6288142841859767,0.662528341908704,2.393403617585377,1.6699999999837019
313374.4627,1.1293714932849777,-2.503046608130835,0.04632466753439273,1.906374706480869,1.6709999999729916
313374.4637,1.7915600766211852,-1.509630103153234,0.23304035598997005,2.181039821435543,1.672000000020489
313374.4647,3.2385148503979053,0.29648929430671755,1.1774149602554216,3.168234651517465,1.6730000000097789
313374.4657,5.333946789325282,2.7748090969364907,2.750213404255576,4.743047083944749,1.6739999999990687
313374.4667,7.868505374032936,5.7125280372341996,4.751513542428844,6.717695115679809,1.6749999999883585
313374.4677,10.58045952340999,8.844941443034713,6.931093444053609,8.860565614116576,1.6759999999776483
313374.4687,13.181642116014435,11.880991791051864,9.013902634851112,10.919544636289777,1.6770000000251457
313374.4697,15.38610540038229,14.531486333235248,10.728099263369892,12.647351192283871,1.6780000000144355
313374.4707,16.938666780502864,16.53723098641619,11.832880137622318,13.8263910286233,1.6790000000037253
313374.4717,17.640533427099157,17.694335734062115,12.143347926592572,14.29069435181315,1.679999999993015
313374.4727,17.36947909114369,17.874221113963387,11.549947971877632,13.942786837066802,1.6809999999823049
313374.4737,16.09257951455979,17.036371219261177,10.030537983675684,12.763838923445949,1.6819999999715947
313374.4747,13.870241748165812,15.232585652348668,7.653875472102284,10.816095875121905,1.6830000000190921
313374.4757,10.8511160839019,12.602311962626862,4.574149431803812,8.237346147763464,1.684000000008382
313374.4767,7.258373547487541,9.35951023583798,1.017062087994569,5.227964442893025,1.6849999999976717
313374.4777,3.3686793078859876,5.7723276213957035,-2.741202773257256,2.0317923246752345,1.6859999999869615
313374.4787,-0.5140901694325191,2.137561913544539,-6.400087711865485,-1.087277618874459,1.6869999999762513
313374.4797,-4.087821270601955,-1.2475987338720733,-9.663306782844264,-3.870727344020944,1.6880000000237487
313374.4807,-7.0809977344228185,-4.113807951082668,-12.267235289247916,-6.090364697769586,1.6890000000130385
313374.4817,-9.278575894560035,-6.245017157039868,-14.00627107392749,-7.57036219189938,1.6900000000023283
313374.4827,-10.542368743835258,-7.498679976022929,-14.752685369681624,-8.204228843095567,1.690999999991618
313374.4837,-10.823942893756366,-7.818744036541568,-14.46901552488053,-7.965055349531804,1.6919999999809079
313374.4847,-10.168764395151285,-7.240175087234619,-13.21177730425989,-6.908029802469878,1.6929999999701977
313374.4857,-8.71118556362146,-5.884586810639996,-11.12612007141134,-5.164976135834757,1.6940000000176951
313374.4867,-6.66076159338565,-3.9474195986193403,-8.431931328014196,-2.93144678149632,1.695000000006985
313374.4877,-4.281235020498837,-1.67793777364175,-5.402731439291907,-0.44762832973267197,1.6959999999962747
313374.4887,-1.864244786660575,0.6459835296093306,-2.339403280660339,2.0250767259766618,1.6969999999855645
313374.4897,0.2996657131179713,2.7458020146097963,0.45869390410531924,4.22950694024197,1.6979999999748543
313374.4907,1.9499014504312728,4.37023688834865,2.722421355970335,5.937753615364828,1.6990000000223517
313374.4917,2.8817015640146173,5.320440175071828,4.2385813607839475,6.973287403694943,1.7000000000116415
313374.4927,2.9665194800580843,5.469939981071897,4.870164745822606,7.2280425604165055,1.7010000000009313
313374.4937,2.164896689173687,4.777398574049481,4.569162605453712,6.672795004411699,1.7019999999902211
313374.4947,0.5305637129295012,3.29093328391762,3.3807052472903205,5.3598262701946044,1.702999999979511
313374.4957,-1.7946396256714952,1.1435758910130451,1.438137732155165,3.4176196745831544,1.7040000000270084
313374.4967,-4.594533570783119,-1.4596847191716154,-1.0504743182460479,1.0381137654143366,1.7050000000162981
313374.4977,-7.599715088745794,-4.2620064064360985,-3.8230792272004903,-1.5422348300871507,1.706000000005588
313374.4987,-10.513959179608865,-6.979972955568914,-6.589579191766249,-4.065722801050396,1.7069999999948777
313374.4997,-13.043323522498703,-9.331569602673847,-9.06043450406097,-6.278727086299651,1.7079999999841675
313374.5007,-14.925108870095464,-11.06411097842733,-10.975133377881683,-7.956609429087604,1.7089999999734573
313374.5017,-15.953839917862428,-11.979381380578326,-12.12774492332854,-8.925763960606254,1.7100000000209548
313374.5027,-16.001721130313673,-11.953519522062193,-12.3870611319661,-9.080654717452633,1.7110000000102445
313374.5037,-15.03156092233456,-10.949693845544914,-11.70936581985613,-8.394181994374053,1.7119999999995343
313374.5047,-13.100892987535225,-9.022319800239874,-10.142592151214131,-6.920370654244908,1.7129999999888241
313374.5057,-10.356883519252412,-6.312398058648537,-7.821474721321593,-4.7891258253922695,1.713999999978114
313374.5067,-7.022513466182192,-3.0344214597792543,-4.954184513974079,-2.193578098725718,1.7150000000256114
313374.5077,-3.3753777217463847,0.5438765752070364,-1.8017689756913027,0.6287346739421149,1.7160000000149012
313374.5087,0.27883516157136135,4.126959070285621,1.347576656777343,3.4189995548318532,1.717000000004191
313374.5097,3.635599118676792,7.419627718307312,4.206875642938224,5.922304509362958,1.7179999999934807
313374.5107,6.420691483291949,10.155125698451588,6.51858577684825,7.912390020574053,1.7189999999827705
313374.5117,8.416378790219078,12.120460777755312,8.079893894646183,9.213552091711039,1.7199999999720603
313374.5127,9.482096410743923,13.176480861150395,8.762605727090248,9.717553895854977,1.7210000000195578
313374.5137,9.567609105685662,13.270748079588873,8.525679382613058,9.393894660113787,1.7220000000088476
313374.5147,8.717374387557236,12.44196251364083,7.419173263710294,8.292437271073599,1.7229999999981374
313374.5157,7.06569015822236,10.815513671419577,5.57922199671803,6.538146480976561,1.7239999999874271
313374.5167,4.823108337778769,8.590605873746613,3.214534384596649,4.318463873531231,1.724999999976717
313374.5177,2.255449066197132,6.020227748435124,0.5857392009697092,1.8645679944179676,1.7260000000242144
313374.5187,-0.34252786169825145,3.385935429697521,-2.020393656159989,-0.5716325271713969,1.7270000000135042
313374.5197,-2.6762169618501903,0.9699253540206533,-4.31932626266427,-2.7425071704644344,1.728000000002794
313374.5207,-4.480180595149395,-0.9728637800828267,-6.056934819866115,-4.429251928111352,1.7289999999920838
313374.5217,-5.544246184817403,-2.239885019121549,-7.034733832396924,-5.463562977831357,1.7299999999813735
313374.5227,-5.734138518295101,-2.7008908068871116,-7.1296646216137125,-5.744303801226055,1.7309999999706633
313374.5237,-5.004634956852801,-2.3106656128604994,-6.306502614836113,-5.247526221113573,1.7320000000181608
313374.5247,-3.403964364413141,-1.113339283750152,-4.6216606386194465,-4.028858982105768,1.7330000000074506
313374.5257,-1.0690283382072439,0.7621369619241132,-2.218008093500471,-2.218027457285534,1.7339999999967404
313374.5267,1.7880780936730476,3.1149029639283667,0.6887941226723354,-0.006041288716227564,1.7349999999860302
313374.5277,4.90091769223203,5.692218601281809,3.8311119137263865,2.3736925548871524,1.73599999997532
313374.5287,7.974884522539392,8.214639174944583,6.915277525713231,4.668476363580989,1.7370000000228174
313374.5297,10.716130108626507,10.403861828462176,9.650116240282259,6.631377341231188,1.7380000000121072
313374.5307,12.860404365082237,12.010504988791231,11.77527203560784,8.045768742731207,1.739000000001397
313374.5317,14.198983253199795,12.839088474324225,13.086562834580414,8.746941504304264,1.7399999999906868
313374.5327,14.599141916198846,12.767755391648661,13.455885842000903,8.63865691160922,1.7409999999799766
313374.5337,14.017167708603425,11.760791494520188,12.843726069894329,7.703005425530423,1.742000000027474
313374.5347,12.502639544376148,9.872702963224208,11.303044338741174,6.002592016257407,1.7430000000167638
313374.5357,10.193556619449037,7.243440546452998,8.974164037555871,3.6748200986700046,1.7440000000060536
313374.5367,7.3027968907036,4.085225724121977,6.071156210897975,0.9188207929449054,1.7449999999953434
313374.5377,4.097235809712649,0.6622580242324108,2.86105394681091,-2.023704139275965,1.7459999999846332
313374.5387,0.8715754403326063,-2.734718799992041,-0.36207181882498,-4.891859439520989,1.746999999973923
313374.5397,-2.0805472546637187,-5.8165088006801815,-3.3056407214363057,-7.430871808480466,1.7480000000214204
313374.5407,-4.495337291513964,-8.323468790024819,-5.706907062858285,-9.416869539153154,1.7490000000107102
313374.5417,-6.164679073178873,-10.050687214363785,-7.3583497802941205,-10.678701942486082,1.75
313374.5427,-6.9564975552781,-10.867872313726808,-8.127628322313207,-11.114661296748723,1.7509999999892898
313374.5437,-6.827642902059628,-10.732000614355167,-7.970157009722263,-10.702466545011879,1.7519999999785796
313374.5447,-5.828030969280503,-9.691483389401503,-6.933073573636542,-9.501525340382049,1.753000000026077
313374.5457,-4.095628917729861,-7.881437122366152,-5.150220451672592,-7.64724503753179,1.7540000000153668
313374.5467,-1.8427726721172688,-5.510513194861232,-2.8286375619350848,-5.337940115035452,1.7550000000046566
313374.5477,0.6648470859437994,-2.840566969844893,-0.22789648711600546,-2.815607285267039,1.7559999999939464
313374.5487,3.1344744083374283,-0.16114644692300598,2.365693106452599,-0.3424393787334079,1.7569999999832362
313374.5497,5.275278916029627,2.238712762545372,4.66747206057216,1.8246337458330506,1.757999999972526
313374.5507,6.827207599754993,4.098635826388939,6.422628775985279,3.458895383985033,1.7590000000200234
313374.5517,7.586868999530208,5.212255370440497,7.4314373796100615,4.385850291335917,1.7600000000093132
313374.5527,7.427909914603389,5.447284903372903,7.569060020484849,4.500144879668787,1.760999999998603
313374.5537,6.313882275699174,4.7583625277444455,6.797969385848108,3.7757496403263895,1.7619999999878928
313374.5547,4.3023314793427065,3.1914147157303785,5.1717711282852585,2.2684120058493384,1.7629999999771826
313374.5557,1.5396955738035638,0.8791182308439155,2.830049138101499,0.11014271656157584,1.76400000002468
313374.5567,-1.7524967553878534,-1.9720923845404579,-0.015263125749199517,-2.5037232253626143,1.7650000000139698
313374.5577,-5.298790347556213,-5.102198993099113,-3.10065096299853,-5.333624850476815,1.7660000000032596
313374.5587,-8.796270455984052,-8.22298231474416,-6.136891704645981,-8.1191653716998,1.7669999999925494
313374.5597,-11.94375380328586,-11.046131786890278,-8.837497062882424,-10.604508212717121,1.7679999999818392
313374.5607,-14.47085812757394,-13.311337251423149,-10.946935922688425,-12.563297919746656,1.768999999971129
313374.5617,-16.164115587558225,-14.811620680280319,-12.265869335646022,-13.820672538403583,1.7700000000186265
313374.5627,-16.887583510298356,-15.413437949722281,-12.670921051822917,-14.270219498616827,1.7710000000079162
313374.5637,-16.595942957401125,-15.069593740288056,-12.12704113064185,-13.88422240426655,1.771999999997206
313374.5647,-15.338808913570684,-13.823716642485236,-10.691244692706539,-12.716202844629846,1.7729999999864958
313374.5657,-13.255833825862494,-11.805867497220385,-8.507351761065886,-10.895515127087918,1.7739999999757856
313374.5667,-10.563084826763214,-9.21972100944399,-5.792234756484595,-8.61452889016398,1.775000000023283
313374.5677,-7.5320263795770135,-6.322583886015909,-2.8149113298592146,-6.109658853846651,1.7760000000125729
313374.5687,-4.463161045781394,-3.400211642714978,0.12947953821801353,-3.63810165193596,1.7770000000018626
313374.5697,-1.6569011252422843,-0.738892494380894,2.7482794191367264,-1.4525580464189243,1.7779999999911524
313374.5707,0.6154877324117691,1.4024690235965853,4.779699172343866,0.22358600291791328,1.7789999999804422
313374.5717,2.1380393575881147,2.8175395398561056,6.018224169735855,1.2181929303431491,1.779999999969732
313374.5727,2.770791070896855,3.372556936107078,6.3345574805480895,1.4272797467484917,1.7810000000172295
313374.5737,2.4630286234809255,3.0191956655897245,5.688156800671184,0.8252485866131742,1.7820000000065193
313374.5747,1.2577930456844257,1.7990512693917333,4.1311453483032565,-0.5325518221908098,1.782999999995809
313374.5757,-0.7127738313077082,-0.16067923695594932,1.8032205494257916,-2.515175716578636,1.7839999999850988
313374.5767,-3.240771905741693,-2.659881081223347,-1.081935524699979,-4.928808315580495,1.7849999999743886
313374.5777,-6.063250674294354,-5.445310183169438,-4.257409525769399,-7.5356180748575925,1.786000000021886
313374.5787,-8.888240519568628,-8.235531916635516,-7.4289400592927395,-10.076880844031587,1.7870000000111759
313374.5797,-11.423546894763955,-10.748553102275228,-10.303396791308415,-12.29810754807843,1.7880000000004657
313374.5807,-13.405479587339771,-12.729429043793427,-12.617069784213351,-13.973713686020817,1.7889999999897555
313374.5817,-14.624699308068344,-13.97513335010383,-14.161004720435228,-14.928817120731614,1.7899999999790452
313374.5827,-14.946650144965037,-14.354250522605968,-14.800911773088028,-15.056035426315995,1.7910000000265427
313374.5837,-14.324580736207565,-13.819562982549291,-14.489710069543944,-14.325647369365006,1.7920000000158325
313374.5847,-12.80388684094077,-12.412305036833809,-13.271493535033601,-12.788136398222791,1.7930000000051223
313374.5857,-10.517361657596592,-10.257677357000313,-11.276546383001468,-10.568883102820832,1.793999999994412
313374.5867,-7.671833967301561,-7.552076214426157,-8.707914997836637,-7.855544920665369,1.7949999999837019
313374.5877,-4.527520267997761,-4.543307438363427,-5.8208712717322575,-4.879379183879712,1.7959999999729916
313374.5887,-1.3721325063850354,-1.5057457213104046,-2.8972993723697082,-1.8923594823368335,1.797000000020489
313374.5897,1.5077023678993966,1.2871023593825024,-0.21753508219760714,0.857653006522036,1.7980000000097789
313374.5907,3.854891475953155,3.589917322394762,1.9675644945198443,3.1512324722430463,1.7989999999990687
313374.5917,5.467387936620447,5.210064592658036,3.4615672961307453,4.818806961456259,1.7999999999883585
313374.5927,6.218249368046636,6.026845079098548,4.141969916622912,5.757061606253408,1.8009999999776483
313374.5937,6.068263465585378,6.003588442442656,3.972335955433187,5.938711384711733,1.8020000000251457
313374.5947,5.069892521001854,5.1913832433334575,3.005871838815585,5.414682735827337,1.8030000000144355
313374.5957,3.3621428924637597,3.7240616175221595,1.3800858423609839,4.308492498845671,1.8040000000037253
313374.5967,1.1568585030734726,1.8049179422574284,-0.696945969873967,2.803382788023884,1.804999999993015
313374.5977,-1.2822182508321804,-0.3135435002414799,-2.9673564073951524,1.123485837014207,1.8059999999823049
313374.5987,-3.665562178435574,-2.354847733338619,-5.149261591751356,-0.4891168139718659,1.8069999999715947
313374.5997,-5.706590626423355,-4.046296123090365,-6.96499466005849,-1.799169273056483,1.8080000000190921
313374.6007,-7.150172524634693,-5.146490253548116,-8.169015751597087,-2.602395083892474,1.809000000008382
313374.6017,-7.798113653138589,-5.469917657294081,-8.572744162182444,-2.7466323279727214,1.8099999999976717
313374.6027,-7.529104855850854,-4.906167074498432,-8.063858065683311,-2.147846433621796,1.8109999999869615
313374.6037,-6.3111611812632225,-3.4318627760926157,-6.618148123543854,-0.7994184517673909,1.8119999999762513
313374.6047,-4.2053152572386905,-1.1141176381280924,-4.302740699829316,1.2262336561342613,1.8130000000237487
313374.6057,-1.3601855892132235,1.894866316729598,-1.2703528324643216,3.7838896020583217,1.8140000000130385
313374.6067,2.0020641004948057,5.371554405238342,2.254878368331729,6.669032647875323,1.8150000000023283
313374.6077,5.607012678512389,9.041877626119092,5.99862095154681,9.637324754889962,1.815999999991618
313374.6087,9.154441724105336,12.607065487826523,9.662562285733733,12.428158071030452,1.8169999999809079
313374.6097,12.347382809349483,15.772009145793925,12.953053434963742,14.789983599915072,1.8179999999701977
313374.6107,14.920909303232866,18.27339812480881,15.609382281723702,16.504936502542932,1.8190000000176951
313374.6117,16.66785090572515,19.90489060304323,17.428905457751615,17.410339057263364,1.820000000006985
313374.6127,17.458906471592638,20.53686184785324,18.286572138058748,17.41496119948418,1.8209999999962747
313374.6137,17.255175677414073,20.128800364615582,18.14691780432094,16.508425871850058,1.8219999999855645
313374.6147,16.111869575088736,18.733135553464916,17.067340060519886,14.76281277905043,1.8229999999748543
313374.6157,14.172821838773649,16.490114514518964,15.192319821048887,12.32627456215337,1.8240000000223517
313374.6167,11.656322309849715,13.61421769902373,12.739136496210413,9.409259601709083,1.8250000000116415
313374.6177,8.833644260540357,10.37342817884885,9.976458588617795,6.264659322000818,1.8260000000009313
313374.6187,6.002353454509066,7.063366748712573,7.197889885433883,3.1637941437162564,1.8269999999902211
313374.6197,3.4570003881196696,3.978806667111049,4.693047744480296,0.37056264946931133,1.827999999979511
313374.6207,1.4600567116323933,1.385338476733447,2.7189951461063204,-1.8837372661396103,1.8290000000270084
313374.6217,0.21593720479649658,-0.5060581649726463,1.4748180634959882,-3.4224667697574715,1.8300000000162981
313374.6227,-0.14934844435120215,-1.55906117216545,1.08183703198577,-4.140434663258749,1.831000000005588
313374.6237,0.3990844266715224,-1.72472069770573,1.5713959431131452,-4.013775962407856,1.8319999999948777
313374.6247,1.8011610513364225,-1.0456056035135108,2.8814351837621333,-3.101949916519601,1.8329999999841675
313374.6257,3.907291152178695,0.3490193196668905,4.8622019893045225,-1.5416518988453707,1.8339999999734573
313374.6267,6.492580614278564,2.256512001174046,7.290561555031034,0.46678053053279156,1.8350000000209548
313374.6277,9.278446192693595,4.4213657715669985,9.891534761816356,2.6791568893905935,1.8360000000102445
313374.6287,11.959546882030676,6.560912572282146,12.364983999370166,4.831504495684596,1.8369999999995343
313374.6297,14.23342679598586,8.393706740823443,14.414866189333818,6.666089050262981,1.8379999999888241
313374.6307,15.829999054084102,9.667817564863272,15.778220689691281,7.956862136531567,1.838999999978114
313374.6317,16.538014076011468,10.186267048941668,16.251083785195497,8.531866417517534,1.8400000000256114
313374.6327,16.225947416038604,9.82712684587198,15.708818547965313,8.290422922004199,1.8410000000149012
313374.6337,14.85528330672813,8.556307960415534,14.118889967361742,7.213429762039047,1.842000000004191
313374.6347,12.484907594814734,6.431787912630844,11.544847585753445,5.365768786617123,1.8429999999934807
313374.6357,9.266185781608982,3.5988531773103736,8.141129997050488,2.890581136894628,1.8439999999827705
313374.6367,5.429204367654328,0.27680864585083714,4.1391943864744665,-0.00403994012094822,1.8449999999720603
313374.6377,1.2615087082015033,-3.2615645961903996,-0.17368678868830736,-3.0646569055442123,1.8460000000195578
313374.6387,-2.9186051156831176,-6.715817519538542,-4.480912515713673,-6.016505431464343,1.8470000000088476
313374.6397,-6.7916637080988504,-9.786411125007909,-8.465766817645282,-8.589605839974098,1.8479999999981374
313374.6407,-10.066602943929771,-12.203300479936289,-11.840545052771088,-10.544453030093928,1.8489999999874271
313374.6417,-12.507522066155406,-13.751762889695428,-14.37279524084846,-11.694814007766821,1.849999999976717
313374.6427,-13.955042828767537,-14.292978616287323,-15.90616526173004,-11.925446283503602,1.8510000000242144
313374.6437,-14.340243052878236,-13.777384809750382,-16.373878692345606,-11.203046130088492,1.8520000000135042
313374.6447,-13.689862077970778,-12.249527216220372,-15.803584979782814,-9.579394413796951,1.853000000002794
313374.6457,-12.122328533177605,-9.8439608552373,-14.313172626362725,-7.186425026463977,1.8539999999920838
313374.6467,-9.835055083160826,-6.772619411562434,-12.098014499385611,-4.223722938306404,1.8549999999813735
313374.6477,-7.084292869947619,-3.3048987714425753,-9.410946153836532,-0.9396893584482349,1.8559999999706633
313374.6487,-4.159557475244923,0.25759753637391114,-6.536979947482184,2.391780622064732,1.8570000000181608
313374.6497,-1.3551583109296381,3.6091925755322474,-3.7652613500255807,5.496836193337307,1.8580000000074506
313374.6507,1.058366060980813,6.468421985472149,-1.361030335696223,8.12694944349692,1.8589999999967404
313374.6517,2.860109035238836,8.603741249874663,0.4596644802465907,10.081497449260553,1.8599999999860302
313374.6527,3.899435097706858,9.854187881787036,1.5500361607292124,11.225486871361209,1.86099999997532
313374.6537,4.1094042568572835,10.143036439363833,1.8454773892811052,11.500746124957809,1.8620000000228174
313374.6547,3.5117090427227136,9.483178823537534,1.3681041368490148,10.929558140012988,1.8630000000121072
313374.6557,2.212694578133977,7.973778595577567,0.22253642653682745,9.610452678782128,1.864000000001397
313374.6567,0.39091558330695486,5.788605741656589,-1.4166029889037108,7.706647738425711,1.8649999999906868
313374.6577,-1.722479310641441,3.157273106368723,-3.3241712520427433,5.428349042969663,1.8659999999799766
313374.6587,-3.86853816737945,0.3412876458500285,-5.2489787468388265,3.0107144593979815,1.867000000027474
313374.6597,-5.787964735597825,-2.3926690854938304,-6.940770803936569,0.6897078493203985,1.8680000000167638
313374.6607,-7.248479094978078,-4.799555179681427,-8.176989965643699,-1.321736330732508,1.8690000000060536
313374.6617,-8.06932706346164,-6.680204693397192,-8.786615987435603,-2.854859389309828,1.8699999999953434
313374.6627,-8.140471827373856,-7.90058101343462,-8.66867360073271,-3.80143560494945,1.8709999999846332
313374.6637,-7.434531814500001,-8.404147371963507,-7.8035298778054845,-4.12372567618408,1.871999999973923
313374.6647,-6.010251245555304,-8.216147111156394,-6.255821399148426,-3.8570564618599663,1.8730000000214204
313374.6657,-4.0071328414144265,-7.439397595779367,-4.168685526626734,-3.104796974428869,1.8740000000107102
313374.6667,-1.6317427124042758,-6.242051518710027,-1.7498377067347652,-2.0262625613030374,1.875
313374.6677,0.8629713341899722,-4.838583690456234,0.749147711372309,-0.8187878644807207,1.8759999999892898
313374.6687,3.203307003204018,-3.465940680481271,3.0583126867583013,0.30420562284975716,1.8769999999785796
313374.6697,5.122839897931323,-2.3572776287312682,4.917023451342738,1.1369177263852244,1.878000000026077
313374.6707,6.390071527139316,-1.7159528530650316,6.101153241568135,1.5042413952772973,1.8790000000153668
313374.6717,6.832929167719185,-1.6924319332899502,6.44701882445693,1.2818433195274972,1.8800000000046566
313374.6727,6.357652549027698,-2.366470293848278,5.8696555255491045,0.4111901054240798,1.8809999999939464
313374.6737,4.960145085485781,-3.7364244897834533,4.373560348802977,-1.0920458911861,1.8819999999832362
313374.6747,2.7286012387450778,-5.716838303974481,2.054763861127707,-3.137112668229031,1.882999999972526
313374.6757,-0.16292524294956426,-8.14462960262877,-0.9060625675927075,-5.565001326187753,1.8840000000200234
313374.6767,-3.469458580481694,-10.793348423223394,-4.258879568268033,-8.162364287213025,1.8850000000093132
313374.6777,-6.897152708255359,-13.394170336671424,-7.706523937760658,-10.681218483450042,1.885999999998603
313374.6787,-10.130362897803149,-15.66161138789167,-10.93182619500461,-12.862540343108689,1.8869999999878928
313374.6797,-12.861142079085816,-17.321468992998618,-13.627016844711363,-14.461461126371502,1.8879999999771826
313374.6807,-14.818318569353405,-18.138255025807727,-15.5226005736436,-15.27159697151651,1.88900000002468
313374.6817,-15.793341022619048,-17.939417051433068,-16.41291572487176,-15.14611563166594,1.8900000000139698
313374.6827,-15.660380350191543,-16.633939085708853,-16.175905536540878,-14.013445317999134,1.8910000000032596
313374.6837,-14.388727847709047,-14.223446127731027,-14.78517811410883,-11.886041165294822,1.8919999999925494
313374.6847,-12.046270454341679,-10.804655455797718,-12.313170647217474,-8.861292135568414,1.8929999999818392
313374.6857,-8.793685776372792,-6.562852431005563,-8.925088294922713,-5.114410728955851,1.893999999971129
313374.6867,-4.869897249187698,-1.7569379904276137,-4.864176343262421,-0.8839255994171219,1.8950000000186265
313374.6877,-0.5701760245867025,3.3025857087986368,-0.42971928211729027,3.5488828894576674,1.8960000000079162
313374.6887,3.7810117324816552,8.280635973951934,4.0501389183264624,7.884672408245932,1.896999999997206
313374.6897,7.859805006120086,12.847029682431108,8.248161032243054,11.832516419732528,1.8979999999864958
313374.6907,11.37253330102229,16.705630428827043,11.867530077343348,15.135653215467544,1.8989999999757856
313374.6917,14.082248149424071,19.620395080367217,14.6682990414729,17.594053971792274,1.900000000023283
313374.6927,15.829660949298638,21.435845050987062,16.488266283151038,19.08166003983154,1.9010000000125729
313374.6937,16.546493537208345,22.090020571570058,17.256309531100438,19.556651003977564,1.9020000000018626
313374.6947,16.259987773201797,21.618697635729948,16.996944869156334,19.063775669847878,1.9029999999911524
313374.6957,15.088181768568367,20.15048715063367,15.825729037616906,17.72854296931297,1.9039999999804422
313374.6967,13.226459167639181,17.89331255722326,13.936010795376543,15.743854470460606,1.904999999969732
313374.6977,10.9267263955902,15.113590616074712,11.578373545170725,13.350388456707028,1.9060000000172295
313374.6987,8.471288214779078,12.110139682250756,9.034815531227453,10.812646567100554,1.9070000000065193
313374.6997,6.144004508294099,9.185342653817475,6.590217250494411,8.392989329053494,1.907999999995809
313374.7007,4.201570972414533,6.616349085380747,4.5038994959522896,6.326176212664062,1.9089999999850988
313374.7017,2.8477480974803706,4.629087853223038,2.9840552890094707,4.79687076460714,1.9099999999743886
313374.7027,2.213068369515069,3.3775797403459196,2.16754723296857,3.922277423055557,1.911000000021886
313374.7037,2.3420099352581163,2.9305160800521857,2.10702741509342,3.741572530903645,1.9120000000111759
313374.7047,3.1888890984914964,3.2663563528725885,2.7666124531935963,4.213127075002655,1.9130000000004657
313374.7057,4.62286598083611,4.277364063695929,4.026502693904689,5.219757665187287,1.9139999999897555
313374.7067,6.441561437978889,5.782127709888842,5.696054555513567,6.5814594352058595,1.9149999999790452
313374.7077,8.391936546620201,7.54528730237715,7.533984679862305,8.074346188654204,1.9160000000265427
313374.7087,10.196371494655699,9.30248726455983,9.273685090296691,9.453920157000077,1.9170000000158325
313374.7097,11.581368400024244,10.788071719486346,10.6511282533722,10.480374834849966,1.9180000000051223
313374.7107,12.306042560252427,11.762777214528086,11.432588582195859,10.943440162357614,1.918999999994412
313374.7117,12.187584329461533,12.038685993426013,11.439426976362054,10.684328529497805,1.9199999999837019
313374.7127,11.121167506628552,11.49897886598461,10.56747527075298,9.612627600713497,1.9209999999729916
313374.7137,9.09232108115914,10.110543216832895,8.799089320519073,7.7164834532335655,1.922000000020489
313374.7147,6.1805165203419845,7.928197905551833,6.206660608785301,5.065076154608499,1.9230000000097789
313374.7157,2.5535805924055013,5.090123391405012,2.9472159483178455,1.8031451387140012,1.9239999999990687
313374.7167,-1.546559878073422,1.804951293161209,-0.7513892898860103,-1.8619003465231865,1.9249999999883585
313374.7177,-5.82544756962918,-1.668212089240459,-4.61135280108343,-5.679025924957089,1.9259999999776483
313374.7187,-9.962909306521611,-5.044859341320833,-8.33085463951768,-9.376911770970315,1.9270000000251457
313374.7197,-13.642532867602537,-8.042783053389154,-11.612510170010701,-12.689309542379561,1.9280000000144355
313374.7207,-16.580961319695458,-10.409677118459351,-14.191573206684682,-15.379944617404556,1.9290000000037253
313374.7217,-18.55417598473242,-11.947920839734266,-15.861138137603842,-17.264539602761182,1.929999999993015
313374.7227,-19.41823075470836,-12.534105166081956,-16.491881578636487,-18.227820152097898,1.9309999999823049
313374.7237,-19.122439338267764,-12.13137645386799,-16.044416660675463,-18.233858177370067,1.9319999999715947
313374.7247,-17.7137504106002,-10.793377895516363,-14.573054191266811,-17.32876193292376,1.9330000000190921
313374.7257,-15.33190181021986,-8.659392970452622,-12.220603946612451,-15.635472926904168,1.934000000008382
313374.7267,-12.195840185889406,-5.941158102608667,-9.204724017825942,-13.34120253662688,1.9349999999976717
313374.7277,-8.582739377327437,-2.902628545814381,-5.797150762388032,-10.678760804865195,1.9359999999869615
313374.7287,-4.801666632639824,0.16532769542187872,-2.2978357317554186,-7.903625686450691,1.9369999999762513
313374.7297,-1.1644607115280208,2.9728360406303462,0.9934889666512416,-5.269014696037418,1.9380000000237487
313374.7307,2.0433501239547947,5.258795060354149,3.805547490911085,-3.001412062995522,1.9390000000130385
313374.7317,4.5887748049977635,6.815815817775445,5.920813318132705,-1.2789545519789012,1.9400000000023283
313374.7327,6.312202979524199,7.509885464942588,7.195404947983914,-0.21479313238493014,1.940999999991618
313374.7337,7.140871620662277,7.292836913415051,7.571663198328585,0.15294610296205613,1.9419999999809079
313374.7347,7.093689085985868,6.206411441686551,7.082209388506549,-0.13636863363377547,1.9429999999701977
313374.7357,6.277001586109624,4.377524877555789,5.845121155279118,-0.9711974404451701,1.9440000000176951
313374.7367,4.87177664481448,2.005209763056889,4.050734990674541,-2.1803962569439674,1.945000000006985
313374.7377,3.1135195672901106,-0.6594787638071292,1.9414062240893835,-3.5517667552879524,1.9459999999962747
313374.7387,1.2669497354507846,-3.338616614629582,-0.21375252083992624,-4.854734998823142,1.9469999999855645
313374.7397,-0.4020258727414274,-5.755151920521645,-2.146642097529808,-5.864896698443856,1.9479999999748543
313374.7407,-1.6542441188163433,-7.660508727939971,-3.617700494466458,-6.387980961876423,1.9490000000223517
313374.7417,-2.302339384246779,-8.859342224995183,-4.440450138862296,-6.280839466049017,1.9500000000116415
313374.7427,-2.2304257865606543,-9.229014108746282,-4.500635171296816,-5.4673586792187825,1.9510000000009313
313374.7437,-1.40644860617879,-8.731874519961778,-3.7680500331658693,-3.9476906875827162,1.9519999999902211
313374.7447,0.11402720179262077,-7.419142294662205,-2.29988266563943,-1.7998545763399467,1.952999999979511
313374.7457,2.1929750014084575,-5.425999061985411,-0.2352336571408715,0.8264891437148346,1.9540000000270084
313374.7467,4.6235080795323595,-2.9583743151250896,2.218655471071542,3.7235174636049266,1.9550000000162981
313374.7477,7.150584645901089,-0.2727136516704532,4.807111601368144,6.644687506632118,1.956000000005588
313374.7487,9.496770185153688,2.3492888788206665,7.253636067750676,9.328262488484796,1.9569999999948777
313374.7497,11.390506216825145,4.628518420052029,9.287878854012256,11.522633266800183,1.9579999999841675
313374.7507,12.594080311745135,6.316098367054586,10.6732128181233,13.01096382867013,1.9589999999734573
313374.7517,12.92851388722019,7.218166664664182,11.23117212052279,13.632746848682736,1.9600000000209548
313374.7527,12.292879996229164,7.215335343951388,10.860320338245495,13.3001495167595,1.9610000000102445
313374.7537,10.676104291531846,6.274917892338113,9.547654817657545,12.007531640957067,1.9619999999995343
313374.7547,8.160035757789883,4.4547154022405975,7.371381891631541,9.833178688782596,1.9629999999888241
313374.7557,4.913427921910747,1.8979774738872675,4.4947415221621965,6.933047490587352,1.963999999978114
313374.7567,1.1773624384419736,-1.1799831469753481,1.1514371667148864,3.5270980794915023,1.9650000000256114
313374.7577,-2.756512135324851,-4.5122266859593125,-2.3759486949892206,-0.12049417496051515,1.9660000000149012
313374.7587,-6.5728453941915,-7.805687571671004,-5.782481728526822,-3.7253567620445085,1.967000000004191
313374.7597,-9.961967118598972,-10.769258987664047,-8.76978402476819,-7.008867561158568,1.9679999999934807
313374.7607,-12.648945640833785,-13.14172537304461,-11.074521447714575,-9.723542907523964,1.9689999999827705
313374.7617,-14.419505312416966,-14.716821367189187,-12.493700848839632,-11.675431719289703,1.9699999999720603
313374.7627,-15.140284477456104,-15.36297569601111,-12.90431121185232,-12.74137234926063,1.9710000000195578
313374.7637,-14.771460288908171,-15.035817270880449,-12.275387147746171,-12.879468303663995,1.9720000000088476
313374.7647,-13.370504889916822,-13.782227574521713,-10.671305684930816,-12.131797982564814,1.9729999999981374
313374.7657,-11.086696943436522,-11.735549084715423,-8.245976646584584,-10.619127764685613,1.9739999999874271
313374.7667,-8.146909355743208,-9.102423235042707,-5.228470274498439,-8.528173438521183,1.974999999976717
313374.7677,-4.834040734237089,-6.14254869641069,-1.901456977565223,-6.092676462369348,1.9760000000242144
313374.7687,-1.4601719500465347,-3.1433415914117835,1.4254679581502236,-3.570158447730988,1.9770000000135042
313374.7697,1.6629595922919207,-0.39197601204078014,4.445005288410026,-1.2166314513459104,1.978000000002794
313374.7707,4.253316687067091,1.852462710345761,6.8811022421305825,0.7382671197168459,1.9789999999920838
313374.7717,6.08491788956195,3.383992977341258,8.51484359401202,2.1132963561847147,1.9799999999813735
313374.7727,7.008654770587577,4.069480732838067,9.204793044344422,2.7926581663049204,1.9809999999706633
313374.7737,6.9655758063213975,3.861191019341553,8.89983524394863,2.736430002760368,1.9820000000181608
313374.7747,5.991377948184076,2.8009323879780337,7.643298806852135,1.9833993717788132,1.9830000000074506
313374.7757,4.211705047689851,1.0154041027714695,5.567988702872814,0.6460639636379636,1.9839999999967404
313374.7767,1.8287485554135223,-1.2967813182996726,2.8826397156464605,-1.1016687233626874,1.9849999999860302
313374.7777,-0.8995073486831368,-3.8851118775293054,-0.14886502654506925,-3.042832304262599,1.98599999997532
313374.7787,-3.6853395502695987,-6.472248797852583,-3.233466285120679,-4.939961033388756,1.9870000000228174
313374.7797,-6.240069612918179,-8.781686011791228,-6.077547795071386,-6.559606066589743,1.9880000000121072
313374.7807,-8.302747618199575,-10.56527231328961,-8.415407530685268,-7.696368758621073,1.989000000001397
313374.7817,-9.665923413430912,-11.627887473866574,-10.034808954815027,-8.194063780608266,1.9899999999906868
313374.7827,-10.195984572035686,-11.846844893857781,-10.797133224431986,-7.961912275205405,1.9909999999799766
313374.7837,-9.84607899140035,-11.184112827233514,-10.650188199024946,-6.9841592142519735,1.992000000027474
313374.7847,-8.660372178011286,-9.690152882780872,-9.632454049210486,-5.322160890707685,1.9930000000167638
313374.7857,-6.76924298165279,-7.49899900787951,-7.868387202390558,-3.1087338892456557,1.9940000000060536
313374.7867,-4.375913047226,-4.815061591331363,-5.555281709372991,-0.5353225843065121,1.9949999999953434
313374.7877,-1.7358471028946472,-1.8929551446360666,-2.9430138896683324,2.166747123408498,1.9959999999846332
313374.7887,0.8690291414036387,0.9876656305424419,-0.3086913566157055,4.7490744216838765,1.996999999973923
313374.7897,3.158738785876091,3.549785075552272,2.0712767669653944,6.970794049311234,1.9980000000214204
313374.7907,4.883480047452909,5.5464963943158985,3.9489238471537083,8.622553321366757,1.9990000000107102
313374.7917,5.848877908348383,6.785556466958717,5.129543538442756,9.547477827525444,2.0
313374.7927,5.93576431148992,7.148604887846785,5.491134467624963,9.657041751193798,2.00099999998929
313374.7937,5.112529831507343,6.603149093678563,4.996558615852089,8.94025825878275,2.0019999999785796
313374.7947,3.438821723391388,5.206126673630373,3.6972215365775654,7.465261571500433,2.003000000026077
313374.7957,1.0602155246884561,3.0986822375831045,1.7279204362485756,5.37310073576654,2.004000000015367
313374.7967,-1.8056237759913827,0.492658533455537,-0.706621837116198,2.864332235052278,2.0050000000046566
313374.7977,-4.8899368967367485,-2.3498847234009754,-3.3521984522265273,0.17970903743381708,2.0059999999939464
313374.7987,-7.89896259284139,-5.142125444767858,-5.930509311252012,-2.423152426960862,2.006999999983236
313374.7997,-10.542565242031786,-7.600418548413693,-8.166985965185331,-4.694846009359231,2.007999999972526
313374.8007,-12.562584654871797,-9.471985419040697,-9.81829542616459,-6.418532610482692,2.0090000000200234
313374.8017,-13.758120294004728,-10.559640607922903,-10.69679856162516,-7.431186993953972,2.0100000000093132
313374.8027,-14.005261181817891,-10.741130664529779,-10.689538101366828,-7.639641363080568,2.010999999998603
313374.8037,-13.26931644353678,-9.981185513476087,-9.769869566176265,-7.029837964279578,2.011999999987893
313374.8047,-11.608336368759483,-8.335094699749646,-8.000572740677315,-5.668365035339291,2.0129999999771826
313374.8057,-9.16756801171365,-5.94344946408203,-5.528120495109705,-3.6961042651813876,2.01400000002468
313374.8067,-6.16537892178851,-3.0185558722291614,-2.5686533516665446,-1.314589812710114,2.01500000001397
313374.8077,-2.8720203437172285,0.17616050508469325,0.612973470025406,1.2336067387621306,2.0160000000032596
313374.8087,0.4166950448793383,3.351751414550497,3.7290191668204202,3.688564343152264,2.0169999999925494
313374.8097,3.408225160263922,6.221846909636784,6.497027714799605,5.798470572049195,2.017999999981839
313374.8107,5.84181626046569,8.530516905182106,8.667569758636084,7.3443699732870815,2.018999999971129
313374.8117,7.513910784710707,10.077171724009727,10.04882350302945,8.161787952472638,2.0200000000186265
313374.8127,8.29795218004944,10.736068301885185,10.525567879862265,8.15711647467355,2.0210000000079162
313374.8137,8.156640733086128,10.468515027273236,10.070705895678769,7.317155648120817,2.021999999997206
313374.8147,7.145432646692898,9.32658112810549,8.748166306405182,5.710870236287647,2.022999999986496
313374.8157,5.4069316786814525,7.4479463635309315,6.7068761506521515,3.483177456584175,2.0239999999757856
313374.8167,3.156714673508122,5.042392371485703,4.166372479111359,0.8413581175283997,2.025000000023283
313374.8177,0.6619718969925603,2.371253697104342,1.3954429771400263,-1.9645985424806427,2.026000000012573
313374.8187,-1.78495203892774,-0.2781655989191065,-1.314128510021364,-4.6658151917846675,2.0270000000018626
313374.8197,-3.8955297993267024,-2.6207120578143552,-3.676151704295091,-7.000205293915033,2.0279999999911524
313374.8207,-5.4137005236771705,-4.401294348803699,-5.438161312041628,-8.737523284015232,2.0289999999804422
313374.8217,-6.141390879602227,-5.419861638737034,-6.406336145913681,-9.701360610619837,2.029999999969732
313374.8227,-5.958406130038185,-5.551011316430075,-6.464761257862083,-9.785960463500187,2.0310000000172295
313374.8237,-4.834738230331292,-4.7563138815119155,-5.58713740332709,-8.966229472024805,2.0320000000065193
313374.8247,-2.8340781922891587,-3.0881549298675455,-3.8397774014213284,-7.299987916719242,2.032999999995809
313374.8257,-0.10817916720164603,-0.6847234471790551,-1.3755786694628256,-4.9222562161046115,2.033999999985099
313374.8267,3.117389120468262,2.2433590606948006,1.5804576298991644,-2.0321507323109205,2.0349999999743886
313374.8277,6.564712284963622,5.433457355621562,4.752763949825151,1.126319456503649,2.036000000021886
313374.8287,9.930140425493512,8.596389695065065,7.841712507759463,4.287671415762743,2.037000000011176
313374.8297,12.91344263616575,11.444451582814695,10.552514937102279,7.190292294311671,2.0380000000004657
313374.8307,15.246665535458323,13.719255638782874,12.623703723247498,9.60123492813964,2.0389999999897555
313374.8317,16.719882754563464,15.216666938858683,13.852421725463495,11.338050851364217,2.0399999999790452
313374.8327,17.20132566648014,15.806399212308328,14.114055065860043,12.285541701906794,2.0410000000265427
313374.8337,16.649934428427404,15.444361579396674,13.37429461131953,12.405812301632807,2.0420000000158325
313374.8347,15.119109013532626,14.17655671551172,11.692448605252462,11.740668739898984,2.0430000000051223
313374.8357,12.751299904240271,12.134159783162563,9.215681785098376,10.406157870852551,2.043999999994412
313374.8367,9.763973386770441,9.5202720313772,6.1647412747330215,8.5798169241546,2.044999999983702
313374.8377,6.428329326908685,6.589658927142516,2.81256019704243,6.4819177277401865,2.0459999999729916
313374.8387,3.0428574255629433,3.6234701066077113,-0.5421749011702608,4.352579188897354,2.047000000020489
313374.8397,-0.09567807237071652,0.9014299459497447,-3.6039150873474988,2.4270264245555033,2.048000000009779
313374.8407,-2.720984764085569,-1.3257650326252404,-6.108780840543623,0.9114555891738498,2.0489999999990687
313374.8417,-4.622906687567328,-2.8611266627199035,-7.849952130918936,-0.03809770647580519,2.0499999999883585
313374.8427,-5.667497206028429,-3.5807056045909813,-8.697441388728496,-0.3317854857412108,2.0509999999776483
313374.8437,-5.809538973156152,-3.445669410319838,-8.610322978494885,0.044727157041513727,2.0520000000251457
313374.8447,-5.096290579319792,-2.505938154528943,-7.6402301245440105,1.0285743262586744,2.0530000000144355
313374.8457,-3.6620998693323252,-0.8950169515169114,-5.925783851415186,2.4858216892717353,2.0540000000037253
313374.8467,-1.714419678455643,1.1834702278203104,-3.678504977812473,4.2248290224233775,2.054999999993015
313374.8477,0.48739484592488935,3.4762249779245846,-1.1615928705421106,6.015537873931784,2.055999999982305
313374.8487,2.6584196830730864,5.705689664986411,1.3363478985712174,7.612791501645838,2.0569999999715947
313374.8497,4.517034342710381,7.597935421435033,3.5300578588296188,8.781391627502625,2.058000000019092
313374.8507,5.813491066561456,8.910279018277954,5.166032556905119,9.320418774247699,2.059000000008382
313374.8517,6.3553666534879305,9.455907653340676,6.047807987632745,9.084407688276702,2.0599999999976717
313374.8527,6.02738644419666,9.123080413530008,6.055642935669057,7.999270532292789,2.0609999999869615
313374.8537,4.8036597896823725,7.8870034429950735,5.158667476235951,6.071368913642927,2.0619999999762513
313374.8547,2.751108459529159,5.813191086263391,3.4183035110017643,3.388801844640641,2.0630000000237487
313374.8557,0.0237313483972617,3.051957559548118,0.9826165706261607,0.11473538381971625,2.0640000000130385
313374.8567,-3.151753799278022,-0.17544836626187021,-1.9278552596284892,-3.5266231556552725,2.0650000000023283
313374.8577,-6.497505900381286,-3.5977345275737713,-5.04141623759971,-7.270083916014361,2.065999999991618
313374.8587,-9.711297528956436,-6.919461961543265,-8.061594311249815,-10.833651900979085,2.066999999980908
313374.8597,-12.49579214276787,-9.849434115396834,-10.696016328651396,-13.944503003342632,2.0679999999701977
313374.8607,-14.587508762813984,-12.128818554297728,-12.68496076076147,-16.364258371436655,2.069000000017695
313374.8617,-15.782648416731599,-13.556263116416646,-13.826802999729017,-17.911120015306444,2.070000000006985
313374.8627,-15.957259741273443,-14.007557827619115,-13.997871691191495,-18.47673109790199,2.0709999999962747
313374.8637,-15.079770613703039,-13.447922348545829,-13.164780148251031,-18.036133044626094,2.0719999999855645
313374.8647,-13.214654856717644,-11.935714713765107,-11.388031222149129,-16.649858889248215,2.0729999999748543
313374.8657,-10.516865419289422,-9.617190743765297,-8.816545191458856,-14.457963123239024,2.0740000000223517
313374.8667,-7.217563730863778,-6.712813387412419,-5.673645018332861,-11.66656856699431,2.0750000000116415
313374.8677,-3.6025214269557617,-3.4964324774337916,-2.2358652181552476,-8.528234388806748,2.0760000000009313
313374.8687,0.014717286736188795,-0.2693478170719753,1.1933516571270673,-5.318045857221028,2.076999999990221
313374.8697,3.3223161903333183,2.6682353735526783,4.312511386315226,-2.307737647496689,2.077999999979511
313374.8707,6.039419307268494,5.045598173916446,6.850672686391352,0.2596514490078037,2.0790000000270084
313374.8717,7.942386973525621,6.647003994487641,8.593024537445896,2.1921517306295586,2.080000000016298
313374.8727,8.885466776119834,7.331840900697009,9.400960813440523,3.366117629793754,2.081000000005588
313374.8737,8.813915557461694,7.0474762393758486,9.224718287431244,3.7367216316159304,2.0819999999948777
313374.8747,7.768326542496058,5.833601466444344,8.107373685532751,3.340706448695844,2.0829999999841675
313374.8757,5.87977395722497,3.8176751408750054,6.179841592822899,2.2911716216683864,2.0839999999734573
313374.8767,3.356282284089694,1.2019391087860076,3.6473947320959006,0.7649479674419034,2.0850000000209548
313374.8777,0.46197106289708256,-1.756697789498049,0.7690553058343919,-1.016164912522484,2.0860000000102445
313374.8787,-2.509063515304945,-4.771922604524881,-2.1681001903165744,-2.808426977886629,2.0869999999995343
313374.8797,-5.261561344203205,-7.555945520987032,-4.877187761357434,-4.371169003984483,2.087999999988824
313374.8807,-7.527781059978836,-9.847356372535037,-7.0995360672244825,-5.491316021881283,2.088999999978114
313374.8817,-9.093249460061891,-11.43619041301965,-8.629731084477296,-6.005006648748698,2.0900000000256114
313374.8827,-9.81707012080942,-12.183764513945533,-9.33523533511349,-5.81418307150192,2.091000000014901
313374.8837,-9.644824327712755,-12.035364403006847,-9.16867057822654,-4.896525413405733,2.092000000004191
313374.8847,-8.612829945997555,-11.024570113472992,-8.17157854639264,-3.3077620429644776,2.0929999999934807
313374.8857,-6.8433762355539445,-9.268831054085648,-6.469315507882521,-1.1761395133661576,2.0939999999827705
313374.8867,-4.531441191654475,-6.956763142216156,-4.2576105422138175,1.3103915100101622,2.0949999999720603
313374.8877,-1.9242356215299168,-4.328453835655281,-1.7821386487904576,3.9230005024358707,2.0960000000195578
313374.8887,0.7043772623796578,-1.6507469422723906,0.6868523911542581,6.4149457037845234,2.0970000000088476
313374.8897,3.0820354708693984,0.8100294002365503,2.882335559158595,8.546412812399181,2.0979999999981374
313374.8907,4.965802636303274,2.815179284396495,4.567954410754169,10.108764445665063,2.098999999987427
313374.8917,6.167085385413431,4.177905845786945,5.562398693317051,10.945797657610177,2.099999999976717
313374.8927,6.571063903666658,4.7823170637043795,5.758277664633766,10.969899428759527,2.1010000000242144
313374.8937,6.148697985818144,4.595279467998369,5.133604388514371,10.171490011072846,2.102000000013504
313374.8947,4.960103787488881,3.6699349167099684,3.754731611020149,8.620802317313908,2.103000000002794
313374.8957,3.1489483156632296,2.140518589271475,1.7704217711335055,6.461797670118235,2.1039999999920838
313374.8967,0.9283958123816687,0.20897528761944842,-0.6023923023492511,3.8987904561730677,2.1049999999813735
313374.8977,-1.4400244913597338,-1.8753182388727812,-3.099779150237357,1.1770708762223778,2.1059999999706633
313374.8987,-3.672558275864821,-3.8407344900877383,-5.436849932622767,-1.4405942054639667,2.107000000018161
313374.8997,-5.4918039719033445,-5.421001664465583,-7.336121673322985,-3.6992952521201334,2.1080000000074506
313374.9007,-6.654911926181365,-6.382512155762531,-8.55541971016646,-5.376678453665713,2.1089999999967404
313374.9017,-6.978617645683443,-6.548632009008823,-8.912573766039397,-6.304596435766967,2.10999999998603
313374.9027,-6.3586248629220545,-5.818597445999248,-8.304468341124874,-6.38559357623761,2.11099999997532
313374.9037,-4.781401334775146,-4.179108924852291,-6.718553731872012,-5.602609928303417,2.1120000000228174
313374.9047,-2.3271882683637486,-1.7074435564885304,-4.235655707146446,-4.020947711405139,2.113000000012107
313374.9057,0.8361190228374556,1.4342663138616358,-1.023768280921066,-1.7822980149045604,2.114000000001397
313374.9067,4.4676699340401305,5.0130777612706146,2.676607572657011,0.9086009378798514,2.1149999999906868
313374.9077,8.275548091905529,8.746280341832048,6.574191862883258,3.803384561826066,2.1159999999799766
313374.9087,11.943757746467199,12.327426717800288,10.353642705025258,6.633680121563924,2.117000000027474
313374.9097,15.161711571894084,15.454849376716558,13.704697033743482,9.136632354591011,2.118000000016764
313374.9107,17.653375455146346,17.859914822424624,16.350930959751643,11.079861725774718,2.1190000000060536
313374.9117,19.203254081821402,19.33228725484943,18.075370584141766,12.283437486102526,2.1199999999953434
313374.9127,19.676703990088892,19.73976032961851,18.740488645287673,12.63674073852731,2.120999999984633
313374.9137,19.032608844409133,19.040740243531424,18.300667029787746,12.108593087060253,2.121999999973923
313374.9147,17.32719157908365,17.288174987152964,16.805936748651316,10.749685135268935,2.1230000000214204
313374.9157,14.708597598169737,14.624553708408946,14.396653997293333,8.687091587799557,2.12400000001071
313374.9167,11.402778487949726,11.268465801616472,11.289650624391454,6.11143230096841,2.125
313374.9177,7.692049274770483,7.494027045391879,7.757223777500662,3.2579556799609355,2.12599999998929
