TimeStamp,ECR,FCR,ECU,FCU,time_index
313383.7917,10.201565984309477,9.704888139897152,6.366130643840538,8.565965348685335,11.0
313383.7927,9.086966539757057,7.779451241011227,5.120797640435727,6.85484340492399,11.00099999998929
313383.7937,7.147361754357979,5.047876129994355,3.0938482805644827,4.425918643828119,11.00199999997858
313383.7947,4.55880277005831,1.7087599815490704,0.4648518948507764,1.4624409795814375,11.003000000026077
313383.7957,1.561140104985727,-1.9780145779139986,-2.5247230793555704,-1.7997237756981561,11.004000000015367
313383.7967,-1.5654958521272804,-5.715022344807581,-5.5949600476617425,-5.094051220225631,11.005000000004657
313383.7977,-4.528154885105746,-9.194819553612499,-8.454742159886123,-8.148346140148211,11.005999999993946
313383.7987,-7.049766823571395,-12.12859886052469,-10.830124051588587,-10.710349012279918,11.006999999983236
313383.7997,-8.896260143095594,-14.273208663380613,-12.491044263364984,-12.571486564678262,11.007999999972526
313383.8007,-9.899434904301675,-15.453923679359505,-13.273758365971034,-13.586470178779422,11.009000000020023
313383.8017,-9.973344045737997,-15.580762494092356,-13.09679321913312,-13.686848390958927,11.010000000009313
313383.8027,-9.122576033168325,-14.656772054178989,-11.968859133037641,-12.887206975656397,11.010999999998603
313383.8037,-7.441628689516706,-12.777477917428289,-9.98794652831273,-11.2834247146984,11.011999999987893
313383.8047,-5.105440438368161,-10.12155646489504,-7.331699483644544,-9.043165160287954,11.012999999977183
313383.8057,-2.352015120617452,-6.933637465913721,-4.240015338053474,-6.389539031097303,11.01400000002468
313383.8067,0.5411454616006793,-3.500909104868062,-0.9915831653584569,-3.5795346411421978,11.01500000001397
313383.8077,3.2844775058536437,-0.12579819291224323,2.123330531635079,-0.879320211451057,11.01600000000326
313383.8087,5.604954618904219,2.902622894438993,4.831171667584953,1.461177385032687,11.01699999999255
313383.8097,7.27303020797423,5.335730999033218,6.901680765570376,3.2319472474487037,11.01799999998184
313383.8107,8.125264321611361,6.988327611764955,8.170151785928956,4.282527945597042,11.018999999971129
313383.8117,8.080399931603093,7.7552801064903765,8.553176504249445,4.535705129763398,11.020000000018626
313383.8127,7.147297313145448,7.620236107143978,8.056323540157608,3.9939629983099056,11.021000000007916
313383.8137,5.423935904282402,6.655595552228995,6.772994172270676,2.7380913285433324,11.021999999997206
313383.8147,3.087572264707842,5.013781243321882,4.8745651930531295,0.9181193893330987,11.022999999986496
313383.8157,0.37701420565519606,2.910700093851147,2.592787091886235,-1.2625001019590596,11.023999999975786
313383.8167,-2.4312507716741627,0.6030506334238654,0.19616957716139488,-3.567873400744451,11.025000000023283
313383.8177,-5.050726406947002,-1.6382670888455315,-2.0373191691873545,-5.753726650909002,11.026000000012573
313383.8187,-7.213653237049492,-3.5560039376753036,-3.8485465354768174,-7.592158574017276,11.027000000001863
313383.8197,-8.69799276292899,-4.932920572855451,-5.023707252057908,-8.894634047800993,11.027999999991152
313383.8207,-9.349981305387448,-5.6140464844477505,-5.416389010567276,-9.530944389157908,11.028999999980442
313383.8217,-9.10001401644845,-5.5226379776662675,-4.963017475740554,-9.442260288076033,11.029999999969732
313383.8227,-7.9702694031561565,-4.668254762973359,-3.6901315824829934,-8.646987562338447,11.03100000001723
313383.8237,-6.073291680105859,-3.146150603866055,-1.712738293699726,-7.238846828666295,11.03200000000652
313383.8247,-3.601633424472521,-1.1280282221081666,0.7761307894120906,-5.377366000273197,11.032999999995809
313383.8257,-0.8095377676236393,1.1549413482996,3.5236758128679786,-3.2717238293177195,11.033999999985099
313383.8267,2.0115781265177306,3.435172769128412,6.2416450219820865,-1.1595399311894796,11.034999999974389
313383.8277,4.5614649717397695,5.435532202685128,8.63436026054441,0.7172927041759133,11.036000000021886
313383.8287,6.560454738678546,6.897375313989273,10.427731717852572,2.1373419954461794,11.037000000011176
313383.8297,7.77707946122377,7.6069982450512486,11.396437956047448,2.9224872921498277,11.038000000000466
313383.8307,8.05119704827157,7.417892902828317,11.386618610965836,2.9566166078677965,11.038999999989755
313383.8317,7.310356963763235,6.266604009261857,10.331857452803234,2.1983052880350393,11.039999999979045
313383.8327,5.577791722747595,4.180607348490433,8.260880908181662,0.6861987703572542,11.041000000026543
313383.8337,2.971231461667891,1.2774057240696102,5.296198637796762,-1.4634638591408176,11.042000000015832
313383.8347,-0.3073706993756242,-2.245104661826764,1.6437902122413097,-4.066978614051717,11.043000000005122
313383.8357,-3.9902320274714653,-6.126093089405785,-2.4251902286011653,-6.889999894788134,11.043999999994412
313383.8367,-7.768492885386839,-10.065410396559056,-6.598945844416359,-9.669442629085,11.044999999983702
313383.8377,-11.320951290237318,-13.751092955048899,-10.553456070022607,-12.138347118166077,11.045999999972992
313383.8387,-14.344014889039764,-16.88810530031018,-13.982057859528975,-14.051296536815945,11.047000000020489
313383.8397,-16.579987861248554,-19.22555058319333,-16.623353974069026,-15.207918557642081,11.048000000009779
313383.8407,-17.84097256957524,-20.579726611267706,-18.284778344751214,-15.47218533220967,11.048999999999069
313383.8417,-18.026092555200023,-20.850809416839162,-18.85957313021799,-14.785632260528283,11.049999999988358
313383.8427,-17.1303929869422,-20.031566429781318,-18.3355743767879,-13.173205944269956,11.050999999977648
313383.8437,-15.244583468292674,-18.207276749006333,-16.795000315868418,-10.741167800651606,11.052000000025146
313383.8447,-12.545677202992243,-15.546890852508431,-14.405310363243625,-7.66725203755432,11.053000000014435
313383.8457,-9.279463147052663,-12.28631279861231,-11.4020684414144,-4.184029602709766,11.054000000003725
313383.8467,-5.736537852270494,-8.705451445916093,-8.065516864611222,-0.5570897705435928,11.054999999993015
313383.8477,-2.2242442571718586,-5.101288939967203,-4.693171411917559,2.93984623679858,11.055999999982305
313383.8487,0.9627446481553107,-1.759596036063007,-1.571125598955886,6.05046884771841,11.056999999971595
313383.8497,3.570336410424102,1.0719522965617947,1.0531339644267739,8.559609128878327,11.058000000019092
313383.8507,5.408719508579232,3.2066529497378657,2.9937595669815416,10.312861401942442,11.059000000008382
313383.8517,6.369569243965436,4.535434560765716,4.143198553484892,11.230211270808955,11.059999999997672
313383.8527,6.435117222375267,5.035708831709207,4.480885505196689,11.312368341694668,11.060999999986961
313383.8537,5.6782440825380265,4.771591242238402,4.073171455416036,10.639216896863282,11.061999999976251
313383.8547,4.253637195008247,3.8855186768082337,3.0645568256681446,9.360568408509844,11.063000000023749
313383.8557,2.380931194382475,2.582136954188,1.6611519464182356,7.680151698227915,11.064000000013039
313383.8567,0.3215336294893098,1.1060897409719046,0.10805359926069466,5.834436246211825,11.065000000002328
313383.8577,-1.6485460160207044,-0.284062467122357,-1.3370769816705215,4.0683871456842855,11.065999999991618
313383.8587,-3.2671583467992336,-1.3431871812061436,-2.431578265683922,2.610547325708892,11.066999999980908
313383.8597,-4.312940578131585,-1.8654617123091297,-2.973729739178679,1.649904912044745,11.067999999970198
313383.8607,-4.628038044285746,-1.7062127384447545,-2.8244696070649518,1.3168249228519582,11.069000000017695
313383.8617,-4.134370563497376,-0.7975359710478924,-1.922708922512322,1.6699224397176775,11.070000000006985
313383.8627,-2.841833917785487,0.8438658992541226,-0.2926981270351466,2.690168354194984,11.070999999996275
313383.8637,-0.8476250956105206,3.117419106969152,1.957309512974659,4.282806179877771,11.071999999985565
313383.8647,1.6732421387508924,5.847932772485738,4.64498957313093,6.286889055838782,11.072999999974854
313383.8657,4.485293601322214,8.802472257049478,7.531511651274745,8.491495338623642,11.074000000022352
313383.8667,7.316106355615468,11.71319824312991,10.345016792703753,10.657022673935353,11.075000000011642
313383.8677,9.8836490515981,14.303924936534113,12.807694929684834,12.539458736859853,11.076000000000931
313383.8687,11.924743076942761,16.317778260161308,14.663786139098438,13.915231180982344,11.076999999990221
313383.8697,13.221821768494147,17.543219531821865,15.705728588734864,14.604178832760917,11.077999999979511
313383.8707,13.62532776965128,17.835853427215707,15.795848385848393,14.488366882086119,11.079000000027008
313383.8717,13.06951334849798,17.133846218444372,14.881415596118789,13.524873204467518,11.080000000016298
313383.8727,11.580053579055027,15.465401641555067,13.001534701856137,11.751261539865931,11.081000000005588
313383.8737,9.27268457258281,12.947516557201672,10.285133829255916,9.283172519696272,11.081999999994878
313383.8747,6.342959823225762,9.776091022815313,6.940187341303931,6.304235509441593,11.082999999984168
313383.8757,3.048090855386616,6.208314032989325,3.2351656643008746,3.0492573577638376,11.083999999973457
313383.8767,-0.3173819009464996,2.53900406518037,-0.5255297111712666,-0.21769534595868062,11.085000000020955
313383.8777,-3.449732248206299,-0.9268216084801978,-4.02979419465093,-3.2282007399844637,11.086000000010245
313383.8787,-6.065269602663509,-3.902501490601047,-6.986993760232404,-5.734956670329001,11.086999999999534
313383.8797,-7.927790094607803,-6.146645725789214,-9.155266199237554,-7.53534939785226,11.087999999988824
313383.8807,-8.871574649170658,-7.485805093347858,-10.364305752255735,-8.490820650382503,11.088999999978114
313383.8817,-8.817679661952269,-7.8306941063142395,-10.531418894024368,-8.54014344026124,11.090000000025611
313383.8827,-7.781915124679432,-7.184393265139692,-9.66928719698452,-7.705307738989767,11.091000000014901
313383.8837,-5.873711881219173,-5.641733629465702,-7.884674462883823,-6.089435016170799,11.092000000004191
313383.8847,-3.285965360122403,-3.379923079387804,-5.368191636197293,-3.866915723044005,11.09299999999348
313383.8857,-0.27682115368240673,-0.6413243211232854,-2.3760989804646115,-1.2667203349322023,11.09399999998277
313383.8867,2.8548475709295302,2.289943250881216,0.7941038317111583,1.44950134352121,11.09499999997206
313383.8877,5.79790629828425,5.115306750082185,3.8319479044965927,4.012411147830358,11.096000000019558
313383.8887,8.258620086507348,7.550299603750343,6.443401252525941,6.170642428086648,11.097000000008848
313383.8897,9.98864354505158,9.351610631459623,8.378578998742515,7.714643710727281,11.097999999998137
313383.8907,10.808636674653172,10.340006232974849,9.455093610864063,8.49639966701418,11.098999999987427
313383.8917,10.625229110625739,10.41691592977359,9.574807981713692,8.443126458416414,11.099999999976717
313383.8927,9.43970274971841,9.573093341834642,8.73239822987556,7.563627531491044,11.101000000024214
313383.8937,7.347568630562653,7.888541060972312,7.014931463184376,5.946712792318603,11.102000000013504
313383.8947,4.5290995428495195,5.523742788405127,4.592538403252086,3.751858705378199,11.103000000002794
313383.8957,1.231758646228277,2.7030958354183334,1.7011262793654396,1.1930434931425484,11.103999999992084
313383.8967,-2.2537494416986728,-0.30780154910485263,-1.3811507418707012,-1.4826437113445643,11.104999999981374
313383.8977,-5.62146182074292,-3.2287550914983933,-4.361343427471142,-4.0195131493866665,11.105999999970663
313383.8987,-8.579444189316426,-5.7928417050512415,-6.9603862910905665,-6.1784963073140915,11.10700000001816
313383.8997,-10.877530771565885,-7.772790369751779,-8.940196925899162,-7.7606061697567235,11.10800000000745
313383.9007,-12.330825225439925,-9.0032792180415,-10.126553058213922,-8.626339473480089,11.10899999999674
313383.9017,-12.836691988825278,-9.396957478980418,-10.425526491119106,-8.709126149341039,11.10999999998603
313383.9027,-12.383610472476475,-8.952622087279995,-9.831891792312518,-8.02151803659561,11.11099999997532
313383.9037,-11.051065733080419,-7.7547539666073675,-8.42872015366082,-6.653523620238835,11.112000000022817
313383.9047,-9.000530130955076,-5.964472146377875,-6.378237445520382,-4.76326792034876,11.113000000012107
313383.9057,-6.458464599859599,-3.8028112091507302,-3.904884837248733,-2.5609110518272518,11.114000000001397
313383.9067,-3.693049830225475,-1.5279858821725196,-1.272286141114421,-0.2874214395432701,11.114999999990687
313383.9077,-0.986970279296441,0.5910986241104372,1.2435768377638268,1.8096947124861682,11.115999999979977
313383.9087,1.3910425455720072,2.3024591621204404,3.382309717779251,3.5013069081127024,11.117000000027474
313383.9097,3.213084170810194,3.397024713992765,4.9253939374855875,4.599752597594563,11.118000000016764
313383.9107,4.314706333089661,3.730414773843117,5.718207517906972,4.977822584058908,11.119000000006054
313383.9117,4.611062154003966,3.238328042092613,5.685591942158017,4.581757218314137,11.119999999995343
313383.9127,4.104971861330783,1.9439895341801638,4.839418673174349,3.4369593254726807,11.120999999984633
313383.9137,2.8861144231085984,-0.04311603630401761,3.2774010516056022,1.6458456314412464,11.121999999973923
313383.9147,1.1214297135084779,-2.5371397046617625,1.1732640549945652,-0.6219683511279158,11.12300000002142
313383.9157,-0.9623129561560294,-5.293457345298574,-1.2407596141920008,-3.146200246691484,11.12400000001071
313383.9167,-3.102046655134137,-8.032257108356154,-3.6973776473184605,-5.677537488109344,11.125
313383.9177,-5.02569858138442,-10.465834653972019,-5.921309916588164,-7.962261781018058,11.12599999998929
313383.9187,-6.480524386371333,-12.32693382907788,-7.657300509606837,-9.767446565644601,11.12699999997858
313383.9197,-7.25965829074382,-13.39535881834135,-8.696287780678974,-10.904251246970704,11.128000000026077
313383.9207,-7.224221340425202,-13.520243671332237,-8.897125410968998,-11.247017158943247,11.129000000015367
313383.9217,-6.318761574328806,-12.635781173830555,-8.201679780636544,-10.746276517259263,11.130000000004657
313383.9227,-4.578451537427747,-10.768844905594301,-6.641776156016922,-9.434377416952602,11.130999999993946
313383.9237,-2.1272767728830115,-8.03772446465768,-4.337264959927515,-7.4231474834257085,11.131999999983236
313383.9247,0.8326654650344514,-4.642057549261319,-1.4853514755416626,-4.893795791872876,11.132999999972526
313383.9257,4.039761828218701,-0.8448995365421564,1.6578077719876991,-2.080011173107419,11.134000000020023
313383.9267,7.197596551734068,3.051362350490747,4.801475392188253,0.7541191634550006,11.135000000009313
313383.9277,10.003398218589734,6.732942174763087,7.648311947500668,3.3392387939652486,11.135999999998603
313383.9287,12.177458016351801,9.903750815355195,9.92324295741219,5.426466768010713,11.136999999987893
313383.9297,13.49065063761272,12.3128533546262,11.400397492019113,6.8112622547010915,11.137999999977183
313383.9307,13.787362057488437,13.77764469051458,11.925480820091165,7.353093643602667,11.13900000002468
313383.9317,13.001565371089672,14.200513978772843,11.431380890051242,6.98900252972346,11.14000000001397
313383.9327,11.164444394620933,13.577399705212892,9.945461546862177,5.73974523607034,11.14100000000326
313383.9337,8.402780817812916,11.997423777139039,7.58780073473466,3.707915249530237,11.14199999999255
313383.9347,4.928214875969317,9.633658265278033,4.560510981244076,1.068228811054353,11.14299999998184
313383.9357,1.0183746272281429,6.7259379129086865,1.1291464221340395,-1.9490831221925387,11.143999999971129
313383.9367,-3.008341356742418,3.5574014350564735,-2.4020291403050744,-5.080164505024043,11.145000000018626
313383.9377,-6.821925812065441,0.42704991912360013,-5.718540384029202,-8.052581960320042,11.146000000007916
313383.9387,-10.111082488390949,-2.3790076111208984,-8.525224217346453,-10.61110300080523,11.146999999997206
313383.9397,-12.611802833854552,-4.614830242690019,-10.573937089087684,-12.541709632854518,11.147999999986496
313383.9407,-14.131465949919876,-6.0978025977318575,-11.686778736314498,-13.69152801327277,11.148999999975786
313383.9417,-14.566160519141372,-6.725441520916219,-11.772599511157921,-13.982756392692432,11.150000000023283
313383.9427,-13.909582919146828,-6.48424502950483,-10.83520970110299,-13.419261532482086,11.151000000012573
313383.9437,-12.252680483307103,-5.44975733428037,-8.972514027378239,-12.085230530690856,11.152000000001863
313383.9447,-9.774103490558513,-3.777883786355994,-6.366674295315516,-10.136040409857348,11.152999999991152
313383.9457,-6.722416852581941,-1.6883447617977514,-3.26627220139423,-7.782266113163117,11.153999999980442
313383.9467,-3.391816260992644,0.5580758077361925,0.03778212104784811,-5.268414680599766,11.154999999969732
313383.9477,-0.09371658875254195,2.686228158569266,3.2402474522482385,-2.8484842715405274,11.15600000001723
313383.9487,2.873027852505357,4.434600292950967,6.050733007163005,-0.7607516359187959,11.15700000000652
313383.9497,5.250388872877846,5.581864934103336,8.221234659787628,0.7957389350450297,11.157999999995809
313383.9507,6.8451913881311475,5.969355975730554,9.56936451245705,1.680684723160566,11.158999999985099
313383.9517,7.546600198056285,5.517265155363385,9.995039694707573,1.8261287172190868,11.159999999974389
313383.9527,7.335410869791627,4.232970321643965,9.489040629397056,1.2428388256620908,11.161000000021886
313383.9537,6.284294745586391,2.2106823503400097,8.132647259400205,0.018853758131796378,11.162000000011176
313383.9547,4.54903463084503,-0.37754764666695234,6.088435685090743,-1.6896426610803328,11.163000000000466
313383.9557,2.351668330220607,-3.298569494582854,3.5831817823917502,-3.674203640829004,11.163999999989755
313383.9567,-0.04275418874268069,-6.280970694516303,0.8845881486572973,-5.6951801837241804,11.164999999979045
313383.9577,-2.3534745971159285,-9.041757201729279,-1.7258490450550261,-7.505875332671558,11.166000000026543
313383.9587,-4.312675289324038,-11.314249396037601,-3.9811445818318267,-8.877404567793628,11.167000000015832
313383.9597,-5.692635009057518,-12.87444535082829,-5.6555035309015445,-9.621807382474845,11.168000000005122
313383.9607,-6.32870809322575,-13.563254297048289,-6.58674549184662,-9.611128521182344,11.168999999994412
313383.9617,-6.1358634525352995,-13.302408916005126,-6.69226847024696,-8.79058480045057,11.169999999983702
313383.9627,-5.1171602436881045,-12.102485906742848,-5.976987770028019,-7.184515807430652,11.170999999972992
313383.9637,-3.3633366890970686,-10.06223921354105,-4.532478994624566,-4.894526904467676,11.172000000020489
313383.9647,-1.0435680247706607,-7.359303320998577,-2.527423018676377,-2.0900011650679415,11.173000000009779
313383.9657,1.6116773373801612,-4.233171436052177,-0.19030932285923724,1.0080922708818392,11.173999999999069
313383.9667,4.333973434455973,-0.962112041689513,2.2138818926977013,4.148506115400287,11.174999999988358
313383.9677,6.844142147548685,2.1637172058365604,4.4107038693175555,7.0740478341616235,11.175999999977648
313383.9687,8.880623330903065,4.870325385462356,6.144292089239901,9.54654761547985,11.177000000025146
313383.9697,10.226188239642132,6.926365600019596,7.203653234708235,11.370007601703128,11.178000000014435
313383.9707,10.730336478106821,8.165439311024734,7.4445809532364535,12.409655775223793,11.179000000003725
313383.9717,10.325140536878267,8.502042050802594,6.805013417804638,12.605028853423624,11.179999999993015
313383.9727,9.032946395916568,7.939588014800551,5.312291240297814,11.975793973170765,11.180999999982305
313383.9737,6.965140343077755,6.569727598297825,3.081569979107052,10.61973140371941,11.181999999971595
313383.9747,4.312072324945363,4.563025722327384,0.30551122346422277,8.703070087188678,11.183000000019092
313383.9757,1.325098309835554,2.1519160419786276,-2.7637653032700262,6.4441189064886695,11.184000000008382
313383.9767,-1.7075174392741097,-0.3923962683548641,-5.838723260099074,4.091795450649421,11.184999999997672
313383.9777,-4.48849116934473,-2.7868168260780815,-8.624106996191633,1.9011559555857995,11.185999999986961
313383.9787,-6.740472549955478,-4.764391696193838,-10.845593021388554,0.10832571358645605,11.186999999976251
313383.9797,-8.233224196926471,-6.100733863797736,-12.276594686360868,-1.09271051605427,11.188000000023749
313383.9807,-8.806358237888086,-6.636252940644787,-12.76059416050091,-1.5691796794711204,11.189000000013039
313383.9817,-8.385390433643924,-6.292005813385872,-12.226808204125765,-1.2625795308007104,11.190000000002328
313383.9827,-6.989522578076697,-5.077611262215965,-10.697641788134353,-0.1944407634476049,11.190999999991618
313383.9837,-4.7303706025382946,-3.0904496371097254,-8.287183016979197,1.5357777023276888,11.191999999980908
313383.9847,-1.8017400151930376,-0.5062232131767653,-5.190865877777137,3.7604589415313128,11.192999999970198
313383.9857,1.5385745967347957,2.4381998959760036,-1.6672886655272432,6.260310651643561,11.194000000017695
313383.9867,4.993209017740379,5.467978444673786,1.9860587419044682,8.785948456474983,11.195000000006985
313383.9877,8.253501867994173,8.297255116096274,5.460811139742758,11.082467265127281,11.195999999996275
313383.9887,11.028876178244564,10.657235798423363,8.466774754278077,12.914594029496671,11.196999999985565
313383.9897,13.07447628470395,12.322637896853282,10.759190851449471,14.089956924402712,11.197999999974854
313383.9907,14.21437527382926,13.133913205564555,12.161576557368798,14.47818913191573,11.199000000022352
313383.9917,14.358099668003485,13.013063797367716,12.581934884256174,14.02399214716454,11.200000000011642
313383.9927,13.508869782371027,11.971496136537276,12.020772995269219,12.752874032969272,11.201000000000931
313383.9937,11.762762473818904,10.10913782165989,10.570166916019947,10.768994526340856,11.201999999990221
313383.9947,9.298888793140424,7.604896725145469,8.403984067664071,8.245321191493135,11.202999999979511
313383.9957,6.361555702014781,4.699390056522172,5.760236794883474,5.407053303026808,11.204000000027008
313383.9967,3.2361627832663644,1.671628019819322,2.917306263528122,2.5099291492094196,11.205000000016298
313383.9977,0.2211952985956227,-1.1880708873041732,0.16637185199925528,-0.1844665569199515,11.206000000005588
313383.9987,-2.400945655402455,-3.606286292304465,-2.2172517038492607,-2.433984534777657,11.206999999994878
313383.9997,-4.391423853522239,-5.35306684488713,-4.00106441384262,-4.039313343072563,11.207999999984168
313384.0007,-5.578075134521616,-6.264267602864895,-5.01798495716828,-4.863217055111854,11.208999999973457
313384.0017,-5.87188687043838,-6.257469456075855,-5.182403961256007,-4.843729940930898,11.210000000020955
313384.0027,-5.275246043375477,-5.339923515389744,-4.49812643874687,-4.00002066441042,11.211000000010245
313384.0037,-3.8811594892404653,-3.607743228760092,-3.0574396332169447,-2.430355212265522,11.211999999999534
313384.0047,-1.8635347755928857,-1.236422973349528,-1.0314131642972073,-0.30236028744980536,11.212999999988824
313384.0057,0.5405138368276327,1.5363897499568362,1.3476020214672546,2.1634583672806076,11.213999999978114
313384.0067,3.054588569063298,4.434183648478686,3.8095449057893296,4.71532895004368,11.215000000025611
313384.0077,5.390804441100866,7.1686566719448725,6.0739603002526055,7.09484275929702,11.216000000014901
313384.0087,7.278723358005058,9.467924802519478,7.878367305906813,9.062190038024598,11.217000000004191
313384.0097,8.492579180336365,11.103107599945861,9.004885559901942,10.419534427447065,11.21799999999348
313384.0107,8.874114459080339,11.910690402351152,9.302495638763661,11.030240884296028,11.21899999998277
313384.0117,8.34877947176291,11.808476409298386,8.702738128288562,10.832078443636096,11.21999999997206
313384.0127,6.933694565509757,10.80356919269677,7.227299036622947,9.843109541112293,11.221000000019558
313384.0137,4.736583936063781,8.991606114724755,4.986724406552628,8.159693959793724,11.222000000008848
313384.0147,1.9457738389049484,6.547319360369699,2.1703762926578576,5.946807717836473,11.222999999998137
313384.0157,-1.1877757903193185,3.70735002376761,-0.9713994169162754,3.4216297722999967,11.223999999987427
313384.0167,-4.374656003379807,0.7469988597351446,-4.15115956858521,0.8320086174624606,11.224999999976717
313384.0177,-7.315049334198878,-2.0468092777822813,-7.071977389892086,-1.568077822268633,11.226000000024214
313384.0187,-9.727886430731294,-4.40369971907393,-9.456090172270992,-3.543661233666421,11.227000000013504
313384.0197,-11.378267993554388,-6.096401934091972,-11.07178578797782,-4.902054509137812,11.228000000002794
313384.0207,-12.10046905738897,-6.963082674665243,-11.75590419102694,-5.511972397125784,11.228999999992084
313384.0217,-11.814273133135986,-6.923270891648967,-11.42975807502335,-5.316624184167816,11.229999999981374
313384.0227,-10.533034725086548,-5.985814176559017,-10.106919590625829,-4.339491658442304,11.230999999970663
313384.0237,-8.362676565483987,-4.248086354420881,-7.892114490204978,-2.6822219046256057,11.23200000001816
313384.0247,-5.491713527837043,-1.8865221295172705,-4.9713334593595215,-0.5148366976431737,11.23300000000745
313384.0257,-2.173271934267996,0.8605964380034192,-1.5941276923931542,1.9407871816751119,11.23399999999674
313384.0267,1.2991449336278438,3.7164184447134136,1.9501819387915846,4.432553149386719,11.23499999998603
313384.0277,4.619783410890925,6.392590763343274,5.360060069348945,6.702780587478426,11.23599999997532
313384.0287,7.499916479436533,8.617464994136732,8.350389167707185,8.513431758102184,11.237000000022817
313384.0297,9.695417850265212,10.162685196497343,10.679389832367175,9.669461726848867,11.238000000012107
313384.0307,11.029947010624785,10.86555513427844,12.171210995201697,10.038005955384747,11.239000000001397
313384.0317,11.411489159968573,10.644996625741882,12.731999253225858,9.561526652612597,11.239999999990687
313384.0327,10.84064455973824,9.509537609405934,12.357898033844048,8.263629267538866,11.240999999979977
313384.0337,9.409869312743874,7.556548342588933,11.134220017066523,6.24697690348809,11.242000000027474
313384.0347,7.293754909234019,4.962800404843838,9.225902423471855,3.6835028288537015,11.243000000016764
313384.0357,4.731310353830699,1.9672720642532948,6.86020947695438,0.7978740741059942,11.244000000006054
313384.0367,2.0019925189293803,-1.1521180139974216,4.303405760073443,-2.154181318320756,11.244999999995343
313384.0377,-0.6021589680963567,-4.105573012426781,1.8337138523109409,-4.910569007234399,11.245999999984633
313384.0387,-2.8055462563527884,-6.619629527196702,-0.28676820732808056,-7.228135658830455,11.246999999973923
313384.0397,-4.376349484382016,-8.463759973006058,-1.8384149236810474,-8.906120141968415,11.24800000002142
313384.0407,-5.149494171327029,-9.472765484875461,-2.666085583389883,-9.80546198240189,11.24900000001071
313384.0417,-5.042998996981882,-9.562771584356954,-2.694628542313422,-9.86208605884067,11.25
313384.0427,-4.066103231111821,-8.739265528192215,-1.9363478470105207,-9.092871941749804,11.25099999998929
313384.0437,-2.3183797442979808,-7.096393574504711,-0.48969529072283013,-7.5937317926216314,11.25199999997858
313384.0447,0.020076213914541317,-4.80759207600234,1.4706836617575485,-5.529992330303832,11.253000000026077
313384.0457,2.706417074734925,-2.1084745677178356,3.711568744958688,-3.120028538139891,11.254000000015367
313384.0467,5.459026017448931,0.7263451802961337,5.964710505173583,-0.6137559565197043,11.255000000004657
313384.0477,7.985357990366062,3.410221004725431,7.953978402574885,1.7319098793670802,11.255999999993946
313384.0487,10.010905282065442,5.672589464282762,9.423429114044465,3.6782230775929956,11.256999999983236
313384.0497,11.306443809563643,7.285477071716705,10.16351815632109,5.027942427614838,11.257999999972526
313384.0507,11.710884578375214,8.085802797268743,10.032856265462254,5.6445493831387346,11.259000000020023
313384.0517,11.147485271212629,7.991291640128236,8.973345892561516,5.46547107055815,11.260000000009313
313384.0527,9.631827444044493,7.008441616582267,7.017180326150709,4.508018601709342,11.260999999998603
313384.0537,7.270771601144154,5.2317656084725375,4.284985007236809,2.8674652052321483,11.261999999987893
313384.0547,4.252486423821177,2.834384844784243,0.9752494961424933,0.7074590109021337,11.262999999977183
313384.0557,0.8285230138404254,0.050898573927194546,-2.653945888349842,-1.756283707593812,11.26400000002468
313384.0567,-2.710315523145794,-2.8457883211510775,-6.309146435052916,-4.277400932092529,11.26500000001397
313384.0577,-6.061950871720515,-5.571405588090835,-9.689333503995451,-6.6033182490210045,11.26600000000326
313384.0587,-8.942117525492774,-7.858381966289222,-12.514622994906444,-8.500293973247816,11.26699999999255
313384.0597,-11.111718028249655,-9.482279299131147,-14.553053187416147,-9.776617499196588,11.26799999998184
313384.0607,-12.399771275778363,-10.284001397491195,-15.642844761872597,-10.301683836858357,11.268999999971129
313384.0617,-12.719711604294627,-10.185596329353748,-15.70795373438081,-10.019071848620023,11.270000000018626
313384.0627,-12.077448000448967,-9.198098324006203,-14.765389807578414,-8.952341644920274,11.271000000007916
313384.0637,-10.570400235837594,-7.420635389282937,-12.923574632090325,-7.202980296441701,11.271999999997206
313384.0647,-8.377612912316957,-5.030884666221491,-10.371888314623595,-4.940694540651014,11.272999999986496
313384.0657,-5.741922632235467,-2.267805646649134,-7.362412725534157,-2.386999103963619,11.273999999975786
313384.0667,-2.9459320737351615,0.5916614347517882,-4.185642551051679,0.2062938436658685,11.275000000023283
313384.0677,-0.28415131356658996,3.2596526527270377,-1.1425249196933553,2.581579085853319,11.276000000012573
313384.0687,1.9659581952713832,5.465544595233898,1.4844520392414406,4.500558412008091,11.277000000001863
313384.0697,3.5711948265443523,6.9824678641590765,3.4583075126124823,5.767479967901783,11.277999999991152
313384.0707,4.365413063298174,7.649572598242367,4.610120216170771,6.2482430779970946,11.278999999980442
313384.0717,4.265668820636723,7.387863792876265,4.85489022167023,5.883500014905471,11.279999999969732
313384.0727,3.2801313140623147,6.208053104443873,4.199169526478701,4.694474513551203,11.28100000001723
313384.0737,1.506987956064953,4.209655036825328,2.7397248019952873,2.780930481227532,11.28200000000652
313384.0747,-0.8755461378476515,1.5714124157037783,0.6533723488767658,0.3114933679344459,11.282999999995809
313384.0757,-3.627128036579098,-1.46601507595981,-1.821011566569904,-2.4927243612621615,11.283999999985099
313384.0767,-6.469332332805769,-4.623407954643811,-4.4065365729133,-5.3795866958223435,11.284999999974389
313384.0777,-9.113472883807782,-7.610106182011667,-6.81603939058803,-8.090381743407978,11.286000000021886
313384.0787,-11.289459080246182,-10.15223867373602,-8.780797905858929,-10.38485756102176,11.287000000011176
313384.0797,-12.77284093585719,-12.019302282429496,-10.077400367241792,-12.064393899237642,11.288000000000466
313384.0807,-13.407372798649728,-13.046490956890691,-10.550132378715935,-12.991041915957364,11.288999999989755
313384.0817,-13.120863308159153,-13.150591839312552,-10.126682961723036,-13.100570665562996,11.289999999979045
313384.0827,-11.932736619865357,-12.337894968783276,-8.825624903650615,-12.40824844555028,11.291000000026543
313384.0837,-9.952542600886488,-10.703345344647742,-6.754929999409484,-11.006801075414305,11.292000000015832
313384.0847,-7.369542129054593,-8.421023789135385,-4.101657881024811,-9.056757850058476,11.293000000005122
313384.0857,-4.434370786057579,-5.726892345729789,-1.1138220332295292,-6.770143844275092,11.293999999994412
313384.0867,-1.4345641535019262,-2.8954976804813812,1.9237963158448748,-4.389131061616469,11.294999999983702
313384.0877,1.333665911781316,-0.21291789578245576,4.717521551109768,-2.1617564512284235,11.295999999972992
313384.0887,3.5946417850863184,2.051393679283524,6.993616315966794,-0.3171033951400825,11.297000000020489
313384.0897,5.1205523309777545,3.671105888082361,8.525249138664606,0.9576034936181583,11.298000000009779
313384.0907,5.754219506999686,4.485248774901072,9.154952658137745,1.5357278533142222,11.298999999999069
313384.0917,5.425052889868306,4.414011674320815,8.810366799409575,1.3639227668431984,11.299999999988358
313384.0927,4.156607176836535,3.466548738359247,7.51171599571731,0.4675432719534957,11.300999999977648
313384.0937,2.064975237888173,1.7400234604728582,5.370276388211698,-1.0517736613054054,11.302000000025146
313384.0947,-0.651856895409628,-0.590017457311769,2.5779690325289364,-3.026134815406777,11.303000000014435
313384.0957,-3.732683896469073,-3.2870002064350765,-0.6109175053251418,-5.238045859227808,11.304000000003725
313384.0967,-6.877989086417079,-6.076710606499276,-3.9041019628922116,-7.442065270586522,11.304999999993015
313384.0977,-9.77868017118275,-8.674419479063024,-6.999412398935709,-9.389331118700015,11.305999999982305
313384.0987,-12.145868919720916,-10.813086084466152,-9.613879424361478,-10.852547437236467,11.306999999971595
313384.0997,-13.738804342068761,-12.269870721428136,-11.510985917447316,-11.64896593710718,11.308000000019092
313384.1007,-14.38824393641027,-12.888350266610777,-12.523416542038428,-11.659089501592005,11.309000000008382
313384.1017,-14.01298731757347,-12.594248358265915,-12.569087921652452,-10.83923793710544,11.309999999997672
313384.1027,-12.627958308261887,-11.403124390704406,-11.65889469264642,-9.226713604424035,11.310999999986961
313384.1037,-10.343040983191058,-9.419250781300994,-9.8954140275979,-6.937026647416427,11.311999999976251
313384.1047,-7.352772420236926,-6.825769428571519,-7.4626927935034475,-4.153416099131037,11.313000000023749
313384.1057,-3.9178826299811536,-3.8670717456027526,-4.6081112352430535,-1.109658296960093,11.314000000013039
313384.1067,-0.34046381358271816,-0.8251087096485747,-1.618090042154205,1.9321861010137857,11.315000000002328
313384.1077,3.064830405057136,2.008066519204183,1.2099916117848084,4.706935294182695,11.315999999991618
313384.1087,6.0007700811910825,4.358849058068382,3.5969296351016102,6.97191764901746,11.316999999980908
313384.1097,8.215818608212693,5.998940493857363,5.3090399797796355,8.530576011735066,11.317999999970198
313384.1107,9.527955122072473,6.767890315426555,6.181049080625803,9.251740170388992,11.319000000017695
313384.1117,9.841751442212104,6.589113290853863,6.1322982494278255,9.082678016044525,11.320000000006985
313384.1127,9.157062264495986,5.477808494666768,5.174682586531269,8.054636271420788,11.320999999996275
313384.1137,7.5685034791360515,3.53999284750127,3.411551093726383,6.280308582516968,11.321999999985565
313384.1147,5.25578927231425,0.9627266166516777,1.0276761269400314,3.9434515827502743,11.322999999974854
313384.1157,2.4658867348034814,-2.0035339915923007,-1.7287289393352419,1.281632001069569,11.324000000022352
313384.1167,-0.5112595205512559,-5.06875493826213,-4.570189950354302,-1.4362443194518129,11.325000000011642
313384.1177,-3.371058066620644,-7.931009364797819,-7.197992570091137,-3.9354626301217963,11.326000000000931
313384.1187,-5.823892022736197,-10.305348400166556,-9.331312284805978,-5.961631237427326,11.326999999990221
313384.1197,-7.623146396564741,-11.95106048011494,-10.734616065981653,-7.304897700312774,11.327999999979511
313384.1207,-8.58891820855074,-12.69467828193187,-11.24066811089879,-7.819916212326748,11.329000000027008
313384.1217,-8.62511311749844,-12.446506109278161,-10.766902464819418,-7.4396441799514825,11.330000000016298
313384.1227,-7.728282678489209,-11.209071294779447,-9.323573788361355,-6.181643665766237,11.331000000005588
313384.1237,-5.9873665121356066,-9.07668937620933,-7.012900624720503,-4.146289415817055,11.331999999994878
313384.1247,-3.5743942132931767,-6.226197701301189,-4.019294710925186,-1.5070689159177912,11.332999999984168
313384.1257,-0.7270856304494023,-2.8997712802004223,-0.5916392193954042,1.5060750122909645,11.333999999973457
313384.1267,2.27492123248837,0.6184957633729862,2.980646645691031,4.628736654369417,11.335000000020955
313384.1277,5.13786527241817,4.029955034180106,6.395415198512533,7.587239093947271,11.336000000010245
313384.1287,7.582941709327623,7.050045946798635,9.366753823397554,10.124584416750226,11.336999999999534
313384.1297,9.373806996254007,9.435426003947144,11.652279664566485,12.024654692131994,11.337999999988824
313384.1307,10.339810467581147,11.006952811800563,13.07610825943606,13.132333201563206,11.338999999978114
313384.1317,10.39267856302172,11.666291460436748,13.545266376837949,13.367619198593108,11.340000000025611
313384.1327,9.535024632043855,11.404548218313181,13.05796452420357,12.732400181478637,11.341000000014901
313384.1337,7.859863387056976,10.3021145039459,11.702944179801477,11.309265271998498,11.342000000004191
313384.1347,5.541194793971861,8.519767031618807,9.649990323231204,9.252521299524014,11.34299999999348
313384.1357,2.816600552676299,6.281926400078702,7.132565404575837,6.772333420732294,11.34399999998277
313384.1367,-0.0364189144187206,3.853743302358905,4.424291649297684,4.113580213675018,11.34499999997206
313384.1377,-2.7280248829378073,1.5142838887394912,1.8116090224730594,1.531523923762721,11.346000000019558
313384.1387,-4.984812714994382,-0.47153530672264315,-0.43469249745748517,-0.7332998476146307,11.347000000008848
313384.1397,-6.576935725950794,-1.8794940375542502,-2.0862617159395698,-2.4785016340704162,11.347999999998137
313384.1407,-7.340904432915699,-2.5484812114137174,-2.97966105426482,-3.559271014817035,11.348999999987427
313384.1417,-7.195812603893149,-2.396568595806323,-3.0323206598941885,-3.901927877804008,11.349999999976717
313384.1427,-6.151390013416901,-1.429166255874008,-2.250409776310423,-3.5102830467889277,11.351000000024214
313384.1437,-4.30708743843586,0.26153851884511653,-0.7278610842436671,-2.464212908055328,11.352000000013504
313384.1447,-1.8422829645212182,2.5057982782891823,1.363344000758035,-0.9106235392906169,11.353000000002794
313384.1457,1.0014267336007638,5.073265598045226,3.790660004855362,0.9522679101604974,11.353999999992084
313384.1467,3.944106763559557,7.696021232782834,6.2844976755897255,2.895747187733675,11.354999999981374
313384.1477,6.695184439404207,10.095397633542227,8.565451132185533,4.684422631345404,11.355999999970663
313384.1487,8.982241159535079,12.00995119734953,10.372538077910981,6.100665495849047,11.35700000001816
313384.1497,10.57805839514391,13.221822659201509,11.489659288447543,6.967226090236192,11.35800000000745
313384.1507,11.323250639389228,13.578882278247512,11.767658482186922,7.165762714413695,11.35899999999674
313384.1517,11.142250594771012,13.010469438868103,11.139796214880864,6.64942578432798,11.35999999998603
313384.1527,10.051064086866608,11.535164429561748,9.629099097320536,5.44822858356475,11.36099999997532
313384.1537,8.156020159600784,9.259811825252507,7.3468447650025634,3.6666507728882625,11.362000000022817
313384.1547,5.643626212036925,6.369873379640704,4.482315118333778,1.4736907530380627,11.363000000012107
313384.1557,2.7625120553131675,3.112039406949028,1.2848097282030482,-0.9136676170307936,11.364000000001397
313384.1567,-0.20077540665446514,-0.22921219207931176,-1.960326453013531,-3.25195342456012,11.364999999990687
313384.1577,-2.9497599073497156,-3.358825389607451,-4.959316695581627,-5.295555651943319,11.365999999979977
313384.1587,-5.207065733115274,-5.99948917515511,-7.438502781965947,-6.821513974027659,11.367000000027474
313384.1597,-6.741645016253602,-7.918308811181156,-9.171032494832744,-7.652297085385205,11.368000000016764
313384.1607,-7.39153201481731,-8.949219864583117,-9.999064708004694,-7.674302444899744,11.369000000006054
313384.1617,-7.079890360139288,-9.008955211912875,-9.849309521905692,-6.850224937527549,11.369999999995343
313384.1627,-5.822774849394544,-8.105005300488022,-8.740372239698631,-5.224038602917856,11.370999999984633
313384.1637,-3.727839956017231,-6.3347948160226135,-6.781171807032758,-2.91805690810963,11.371999999973923
313384.1647,-0.9841134051156425,-3.876157827982973,-4.160578038910668,-0.12231241865428145,11.37300000002142
313384.1657,2.156171917429217,-0.9700442837750956,-1.1292718887013435,2.922749824439223,11.37400000001071
313384.1667,5.401916519598381,2.1028499614129106,2.02440511621233,5.948613259762069,11.375
313384.1677,8.451287412732341,5.049243946343649,5.002257023634185,8.683915810497513,11.37599999998929
313384.1687,11.020897666281586,7.591568148504586,7.524981321164066,10.880123548508417,11.37699999997858
313384.1697,12.873181113154699,9.494632380460633,9.359051704126198,12.335164155538324,11.378000000026077
313384.1707,13.839286907412156,10.588062160472123,10.339110818856302,12.912724674931265,11.379000000015367
313384.1717,13.835256637804537,10.782317135056408,10.383686991447677,12.555334666486266,11.380000000004657
313384.1727,12.869903869227876,10.076735668836163,9.502701991831293,11.289956255744665,11.380999999993946
313384.1737,11.04362801089309,8.558832503757941,7.796040100732117,9.22552821808378,11.381999999983236
313384.1747,8.538281811078747,6.394934678422714,5.443323508376611,6.542691400546246,11.382999999972526
313384.1757,5.599087676471242,3.8130905512133064,2.6858997354413443,3.476681353230746,11.384000000020023
313384.1767,2.5103766448329923,1.0799445067255884,-0.19719093698881845,0.2950370013434058,11.385000000009313
313384.1777,-0.4324710507697151,-1.5261385198408626,-2.9169107474841507,-2.7277231493035736,11.385999999998603
313384.1787,-2.952132576331411,-3.7430471606885494,-5.202866571929247,-5.336012452603012,11.386999999987893
313384.1797,-4.8166419816238415,-5.351237579232388,-6.830090234436331,-7.317174985718652,11.387999999977183
313384.1807,-5.862204722569032,-6.195791877586397,-7.64133051201911,-8.521259494945744,11.38900000002468
313384.1817,-6.009288010774314,-6.202043576205816,-7.562669584839209,-8.874668851387385,11.39000000001397
313384.1827,-5.270405776265903,-5.383224500434026,-6.6109300695008235,-8.386382752741477,11.39100000000326
313384.1837,-3.7488300366171363,-3.839370900185986,-4.892142366525593,-7.146174908275322,11.39199999999255
313384.1847,-1.6283489618042541,-1.7475851478897058,-2.5912172309616066,-5.315024992899098,11.39299999998184
313384.1857,0.8449310128692125,0.6554012031394494,0.04617039064313901,-3.1086842189098594,11.393999999971129
313384.1867,3.3869618647834288,3.0966600894088865,2.7377173767187597,-0.7760174559275296,11.395000000018626
313384.1877,5.703926063421623,5.294201804952439,5.192289517710477,1.4257502952177226,11.396000000007916
313384.1887,7.521447375951,6.985152324799671,7.138661640275526,3.25645873602261,11.396999999997206
313384.1897,8.611979969643023,7.952207490051157,8.352389288717317,4.51662463024689,11.397999999986496
313384.1907,8.817691388974065,8.04576342346559,8.678181987016345,5.066941114086007,11.398999999975786
313384.1917,8.066593615550559,7.199542270434056,8.045586802285179,4.841771062325725,11.400000000023283
313384.1927,6.380334835167857,5.438165848742445,6.476443902014675,3.855333663191397,11.401000000012573
313384.1937,3.872878385790368,2.8759151022444884,4.083379158480543,2.200001645162181,11.402000000001863
313384.1947,0.7401850667431171,-0.2932264300611611,1.0594740075599507,0.03690069732244222,11.402999999991152
313384.1957,-2.758106462445271,-3.8132957755815853,-2.3398858992280642,-2.4202433186215724,11.403999999980442
313384.1967,-6.323225013442956,-7.39013229356617,-5.821218454111389,-4.9264035843356515,11.404999999969732
313384.1977,-9.645653842339986,-10.7189180688969,-9.080853929298208,-7.229590464474465,11.40600000001723
313384.1987,-12.434600279986194,-13.512809671865314,-11.833829458598377,-9.095826810430255,11.40700000000652
313384.1997,-14.445683815487072,-15.52988734138124,-13.840959236805492,-10.332300524604886,11.407999999995809
313384.2007,-15.504153155779004,-16.59581200494271,-14.93145076647194,-10.806417924330676,11.408999999985099
313384.2017,-15.521380323560651,-16.619999833315944,-15.018874747898131,-10.458888258739925,11.409999999974389
313384.2027,-14.503037348834958,-15.603757175979014,-14.108947583934686,-9.309559808366872,11.411000000021886
313384.2037,-12.548174168956415,-13.639603735621824,-12.298387107475365,-7.455443275886188,11.412000000011176
313384.2047,-9.839305368608338,-10.901871856679357,-9.764975492921335,-5.061128346038346,11.413000000000466
313384.2057,-6.62449132772764,-7.629520632144882,-6.7498228387745405,-2.3425486894284777,11.413999999989755
313384.2067,-3.1931802609967757,-4.1028618957501815,-3.5335864382970468,0.454294288865338,11.414999999979045
313384.2077,0.15181490266451192,-0.616486851403846,-0.40898973800020333,3.077542315565052,11.416000000026543
313384.2087,3.123456272467296,2.548950779708922,2.3476562142779884,5.294230170685843,11.417000000015832
313384.2097,5.477883775910986,5.153332520359076,4.503132483260551,6.913125981219272,11.418000000005122
313384.2107,7.037402007452996,7.019455340956574,5.88957756396386,7.803401117066896,11.418999999994412
313384.2117,7.706809366475457,8.04901459030131,6.420160073171908,7.907279462463224,11.419999999983702
313384.2127,7.48148451579367,8.230642228131757,6.096631513679033,7.245408761125715,11.420999999972992
313384.2137,6.446457210648277,7.639236742791481,5.00803247199023,5.914413894001902,11.422000000020489
313384.2147,4.7665781456594845,6.4266795983961735,3.3206974591433323,4.076862997089842,11.423000000009779
313384.2157,2.6687786071103616,4.804881985954212,1.260561112109263,1.944626605210168,11.423999999999069
313384.2167,0.41818948277374585,3.0228617952940056,-0.9104724936533165,-0.24273604224421164,11.424999999988358
313384.2177,-1.709505810335814,1.3401399030195584,-2.9217496072937434,-2.2424350289232073,11.425999999977648
313384.2187,-3.4567380322059655,-0.0008907459244382292,-4.521972294764866,-3.833337485941564,11.427000000025146
313384.2197,-4.6108897765326144,-0.8008660235662785,-5.505396290338135,-4.838820772627261,11.428000000014435
313384.2207,-5.026632934093579,-0.9250313988620723,-5.733512297876279,-5.145318951798441,11.429000000003725
313384.2217,-4.6415348580554925,-0.3183344192186563,-5.150042858840699,-4.714705667973381,11.429999999993015
313384.2227,-3.483361682379196,0.9875038669641989,-3.787741438815659,-3.5892546647174974,11.430999999982305
313384.2237,-1.668321835126103,2.8756843972466943,-1.7662844382645984,-1.8886419231415215,11.431999999971595
313384.2247,0.6096172592928216,5.154676879238446,0.7185782562486526,0.20076969220147245,11.433000000019092
313384.2257,3.0973280529585008,7.57625049781641,3.4135884396272114,2.4433671323702364,11.434000000008382
313384.2267,5.507245511616864,9.859462458995687,6.032473640822895,4.576789185192397,11.434999999997672
313384.2277,7.5458152358487665,11.718286915497126,8.283995771042603,6.337337793180014,11.435999999986961
313384.2287,8.942895868223047,12.890200773456243,9.90082392414965,7.485851446299737,11.436999999976251
313384.2297,9.479241866020933,13.162938151131453,10.666411108025663,7.831539637414103,11.438000000023749
313384.2307,9.009370448640192,12.39679233737158,10.437240329075964,7.251466455321652,11.439000000013039
313384.2317,7.477557575226059,10.54026693408879,9.158248637083354,5.703785156973556,11.440000000002328
313384.2327,4.925369316674355,7.637515446832674,6.869895399116248,3.233423909994822,11.440999999991618
313384.2337,1.4899525676593859,3.8267989281835715,3.706149162514417,-0.03035225840891169,11.441999999980908
313384.2347,-2.6067969354325573,-0.6699425165361423,-0.11645278203093187,-3.8842973434313075,11.442999999970198
313384.2357,-7.077187966012438,-5.5654507845062975,-4.317652409394421,-8.06849097591343,11.444000000017695
313384.2367,-11.593020564735724,-10.531723960784852,-8.578439759858773,-12.28896124790569,11.445000000006985
313384.2377,-15.814804932687958,-15.22848476284292,-12.569762070479142,-16.24348030301834,11.445999999996275
313384.2387,-19.422130902150826,-19.33284960383058,-15.982230354963995,-19.648088109364952,11.446999999985565
313384.2397,-22.14229609529292,-22.56739086845064,-18.553984673604923,-22.261835522600542,11.447999999974854
313384.2407,-23.77447109684469,-24.72394310732535,-20.094059269546896,-23.907416197895493,11.449000000022352
313384.2417,-24.20711395126889,-25.68091821320628,-20.499026825130958,-24.485760403165074,11.450000000011642
313384.2427,-23.427001552587136,-25.412524648807405,-19.761354449908076,-23.983252692333508,11.451000000000931
313384.2437,-21.51905797693463,-23.989069869225652,-17.968708790411167,-22.470952063623177,11.451999999990221
313384.2447,-18.657050178833973,-21.568386679012377,-15.294325241595088,-20.09596761964046,11.452999999979511
313384.2457,-15.086102867948533,-18.379279363937798,-11.979420969925304,-17.065899296838243,11.454000000027008
313384.2467,-11.098770900328006,-14.698650750093847,-8.309398971356945,-13.627918227831733,11.455000000016298
313384.2477,-7.007022607082797,-10.824572442992615,-4.586185886452229,-10.04457007999962,11.456000000005588
313384.2487,-3.1128714239948647,-7.047939092216938,-1.0994118514900553,-6.568687982487701,11.456999999994878
313384.2497,0.3194910830493638,-3.6254671368508244,1.9007591208533416,-3.4198702903546345,11.457999999984168
313384.2507,3.087370968644526,-0.7566480095965746,4.22651428009254,-0.7648063277583971,11.458999999973457
313384.2517,5.0667923457290795,1.4331394460588491,5.7687906619619485,1.2966621170953685,11.460000000020955
313384.2527,6.2216444251947784,2.901772291386752,6.505631295794406,2.738435057118044,11.461000000010245
313384.2537,6.603939592060949,3.690970421428237,6.501740785103458,3.607401699911522,11.461999999999534
313384.2547,6.345246962196281,3.9183649567352763,5.899351896964158,4.015201060179709,11.462999999988824
313384.2557,5.64023680626655,3.761929268369731,4.901371824660713,4.123400248915522,11.463999999978114
313384.2567,4.724047515364233,3.438407536285387,3.748536746740054,4.123647566936559,11.465000000025611
313384.2577,3.8457921937955963,3.177965815796516,2.6928916114553787,4.214854244494703,11.466000000014901
313384.2587,3.24089712436904,3.197659097498942,1.9702710318725472,4.579750572041841,11.467000000004191
313384.2597,3.105072559880794,3.6764187244446966,1.7745516314101633,5.363220609331244,11.46799999999348
313384.2607,3.5725471244065123,4.734107087853709,2.2362669708307084,6.654639010255366,11.46899999998277
313384.2617,4.700767424506885,6.416776493577461,3.407741040776394,8.476031698427684,11.46999999997206
313384.2627,6.46311676851545,8.689647079310332,5.256248088347932,10.777298913853008,11.471000000019558
313384.2637,8.750405118140545,11.438546141494664,7.665909067584986,13.43903215269492,11.472000000008848
313384.2647,11.381005664721888,14.47970449818198,10.448166742819819,16.28269558583631,11.472999999998137
313384.2657,14.118648242234613,17.5769681868119,13.359827887332155,19.087202859087856,11.473999999987427
313384.2667,16.69611156800281,20.46473858984915,16.12690615673815,21.610274889568945,11.474999999976717
313384.2677,18.84246095514266,22.874374679332522,18.471917472997465,23.612477274862332,11.476000000024214
313384.2687,20.31111462997316,24.56143487823076,20.141928572125416,24.881555587518594,11.477000000013504
313384.2697,20.905926321784253,25.33103853036207,20.93457359161786,25.254641205451403,11.478000000002794
313384.2707,20.50265425606171,25.058798206492853,20.7194420213201,24.63609442997437,11.478999999992084
313384.2717,19.063629644725328,23.70519768080688,19.452685926311357,23.00916689428806,11.479999999981374
313384.2727,16.644098168524202,21.321925181586153,17.18335183291861,20.44026132414459,11.480999999970663
313384.2737,13.389521299829454,18.04945543620565,14.050748878503494,17.075285412059642,11.48200000001816
313384.2747,9.524011008146804,14.106030339306262,10.273040934032409,13.128367609296346,11.48300000000745
313384.2757,5.330944485488831,9.769032802931427,6.128110644009965,8.863950486239595,11.48399999999674
313384.2767,1.127579273021065,5.350498542819986,1.9285033750910092,4.5739285862805605,11.48499999998603
313384.2777,-2.763912588396146,1.169092414299005,-2.007155676450336,0.5519883878731833,11.48599999997532
313384.2787,-6.046209100488752,-2.4787679676668946,-5.383525065402408,-2.9324102731590163,11.487000000022817
313384.2797,-8.474526372634637,-5.345863567092088,-7.95585955502152,-5.657927152713429,11.488000000012107
313384.2807,-9.879542664699331,-7.256598377045186,-9.552630004133361,-7.470821671580036,11.489000000001397
313384.2817,-10.183321299394747,-8.122725299127378,-10.09125741800091,-8.298152699892942,11.489999999990687
313384.2827,-9.40666515023285,-7.950844612696429,-9.585430470419775,-8.153432752010882,11.490999999979977
313384.2837,-7.667159658741956,-6.840939285107558,-8.143288361849349,-7.134197195355293,11.492000000027474
313384.2847,-5.168059892944512,-4.9760775266232065,-5.956634315422421,-5.41172814995991,11.493000000016764
313384.2857,-2.1790625482579777,-2.6042678014379255,-3.2822132558649995,-3.2139291341163907,11.494000000006054
313384.2867,0.9892102795885385,-0.014211593836234866,-0.41685563288837874,-0.8030065047378978,11.494999999995343
313384.2877,4.014578920491242,2.492709596564573,2.3311169804675336,1.5498869674611788,11.495999999984633
313384.2887,6.593714800537305,4.631512044571124,4.671467848366444,3.5906011129109414,11.496999999973923
313384.2897,8.47067734632308,6.1609491931512075,6.359752713930554,5.1060323500344005,11.49800000002142
313384.2907,9.460846979367934,6.906479653638524,7.220492912778892,5.943955327211893,11.49900000001071
313384.2917,9.467967372390042,6.776656852928623,7.163590331589396,6.026749222074322,11.5
313384.2927,8.492676996590056,5.771373757774519,6.19241885382753,5.357723547666996,11.50099999998929
313384.2937,6.6317334796083145,3.9811884169279756,4.402836627495214,4.01947129486598,11.50199999997858
313384.2947,4.068034247986365,1.5778230355537923,1.973245595711141,2.1644547576297954,11.503000000026077
313384.2957,1.0524257501550383,-1.2032136007929637,-0.8533067810894559,-0.0012144513482716607,11.504000000015367
313384.2967,-2.120915216118321,-4.0861668492461405,-3.7932184525857586,-2.239178654871144,11.505000000004657
313384.2977,-5.143127797764633,-6.782430698798494,-6.5502542016805245,-4.3032966323363,11.505999999993946
313384.2987,-7.720558255998531,-9.019116544156153,-8.844569640178713,-5.964748319944531,11.506999999983236
313384.2997,-9.603001960788294,-10.566008325401723,-10.440010660987163,-7.035308308303951,11.507999999972526
313384.3007,-10.60757241574233,-11.258279646077675,-11.167037886537257,-7.386500497141424,11.509000000020023
313384.3017,-10.635908244950103,-11.012767715643145,-10.939060469328716,-6.962755618037,11.510000000009313
313384.3027,-9.683085391032677,-9.836232663323832,-9.76061368266398,-5.787286014377423,11.510999999998603
313384.3037,-7.83741523476838,-7.824816784465878,-7.7266162048674785,-3.9601098835698108,11.511999999987893
313384.3047,-5.271200253268345,-5.154779621895588,-5.0128172434868,-1.6484297436905873,11.512999999977183
313384.3057,-2.22340004312139,-2.0654371728968997,-1.8584050404624557,0.9296785260473,11.51400000002468
313384.3067,1.0240540150821251,1.1640063826242695,1.4574874220866652,3.526652720877852,11.51500000001397
313384.3077,4.1739440536975705,4.241452445693067,4.643051198040554,5.8897959763670755,11.51600000000326
313384.3087,6.942718387752111,6.890076063233383,7.422153365660122,7.786191156412165,11.51699999999255
313384.3097,9.08786652406816,8.874908155213936,9.560982774087043,9.025721596220087,11.51799999998184
313384.3107,10.431038233787378,10.025233428494555,10.890375924688382,9.479928615198212,11.518999999971129
313384.3117,10.874657465990376,10.250621627742152,11.321641591649708,9.094845831560825,11.520000000018626
313384.3127,10.41043064342636,9.549039295790916,10.854348667527226,7.896542516205453,11.521000000007916
313384.3137,9.118953280572532,8.006270185751717,9.575337586971871,5.988824875835172,11.521999999997206
313384.3147,7.160499635361303,5.786728132203826,7.649083194002218,3.543314913613532,11.522999999986496
313384.3157,4.757950577669397,3.1165925187929338,5.3003907470154425,0.7828757350961083,11.523999999975786
313384.3167,2.173589457722403,0.2609504065226928,2.791162958720475,-2.039993684628122,11.525000000023283
313384.3177,-0.31790159204596635,-2.502783050880646,0.39356022410942293,-4.667676388949979,11.526000000012573
313384.3187,-2.457540910083054,-4.912530686670209,-1.637768910131687,-6.862463100138906,11.527000000001863
313384.3197,-4.028433969292766,-6.747566661894762,-3.091619300953607,-8.4296298390099,11.527999999991152
313384.3207,-4.87781268232483,-7.850303510163396,-3.821737495113994,-9.236301874023775,11.528999999980442
313384.3217,-4.932526241395123,-8.141698342613132,-3.7617590773707983,-9.22425105967772,11.529999999969732
313384.3227,-4.206433525442169,-7.62875479864495,-2.9320772118965106,-8.415368383439946,11.53100000001723
313384.3237,-2.7989515439542383,-6.403378534082962,-1.4379426174139331,-6.9092720661657685,11.53200000000652
313384.3247,-0.8848928693213386,-4.632698549457622,0.5410368212967072,-4.873283396939497,11.532999999995809
313384.3257,1.303408999265093,-2.541810501127266,2.7689761397747517,-2.5257519266207336,11.533999999985099
313384.3267,3.499919226387498,-0.39064836079435883,4.977599323511958,-0.11436516543219882,11.534999999974389
313384.3277,5.432304464726089,1.552726388267614,6.893577980879776,2.108428618854622,11.536000000021886
313384.3287,6.8501948718904995,3.0397707904611693,8.266620541225578,3.91047099891789,11.537000000011176
313384.3297,7.551487175074339,3.867296560994348,8.895526349573244,5.102955562113019,11.538000000000466
313384.3307,7.404054356250375,3.898923281358508,8.649609400291244,5.5592329745072,11.538999999989755
313384.3317,6.360671390146177,3.080001027858731,7.483342415156453,5.2275060233655015,11.539999999979045
313384.3327,4.465627227115687,1.4444921061574019,5.442730151193491,4.136159501405901,11.541000000026543
313384.3337,1.8523062952861957,-0.8869115794012183,2.662726995789806,2.3911910720386613,11.542000000015832
313384.3347,-1.2680913922852124,-3.7172995777516857,-0.6441107214017785,0.16598340556181168,11.543000000005122
313384.3357,-4.625650711868357,-6.791698617699772,-4.206688346061218,-2.3155909334539717,11.543999999994412
313384.3367,-7.916849551400617,-9.821136166698855,-7.720344732606879,-4.801085750679964,11.544999999983702
313384.3377,-10.833264987869171,-12.510290466070495,-10.875341129802639,-7.034278674587552,11.545999999972992
313384.3387,-13.091105466702418,-14.586047172864472,-13.386124706270959,-8.78042516480401,11.547000000020489
313384.3397,-14.45870453230099,-15.824185553085137,-15.018539877472476,-9.84949694650983,11.548000000009779
313384.3407,-14.779298783212642,-16.071591090590516,-15.612351547350077,-10.115127167789694,11.548999999999069
313384.3417,-13.986861489775785,-15.261819660554853,-15.096892351026577,-9.527401994300288,11.549999999988358
313384.3427,-12.113430228620336,-13.422479441423722,-13.498307499358775,-8.11823799592293,11.550999999977648
313384.3437,-9.287187107258113,-10.673688062689513,-10.937681521688868,-5.99880793048428,11.552000000025146
313384.3447,-5.721443794808846,-7.2177269513614775,-7.620212125607364,-3.349253668701666,11.553000000014435
313384.3457,-1.695563540092945,-3.320868120107567,-3.816461706134017,-0.4016781230430586,11.554000000003725
313384.3467,2.4703671658008073,0.7108925195931285,0.16251759016205172,2.5819355268756987,11.554999999993015
313384.3477,6.444699771220107,4.559870875559265,3.993798495093244,5.334733494953285,11.555999999982305
313384.3487,9.91442995407579,7.925810685322895,7.372187427063083,7.610499976698898,11.556999999971595
313384.3497,12.613561799617479,10.553288347254073,10.037990170543658,9.207185941147339,11.558000000019092
313384.3507,14.346923576874936,12.254783867633094,11.800281122521373,9.986172777910122,11.559000000008382
313384.3517,15.007172466489056,12.927218889670694,12.553464483351858,9.885402030799188,11.559999999997672
313384.3527,14.583388582002431,12.56039984232375,12.28557185193086,8.925101453132198,11.560999999986961
313384.3537,13.160476185493422,11.236592373719033,11.077546961407828,7.205560410701284,11.561999999976251
313384.3547,10.909482269499067,9.121315332813413,9.093645910473269,4.897183487967727,11.563000000023749
313384.3557,8.069822538356696,6.44629436266624,6.563944429082158,2.223804091369103,11.564000000013039
313384.3567,4.9251864125084435,3.4862734643364734,3.7607081594304206,-0.5591037812988984,11.565000000002328
313384.3577,1.7754998017390127,0.531973690767774,0.9709730484791222,-3.189181820138749,11.565999999991618
313384.3587,-1.0923020309356422,-2.1381460991295196,-1.5319568272929867,-5.422491517937765,11.566999999980908
313384.3597,-3.4318353478456567,-4.284566204235782,-3.515292267464737,-7.056896589238669,11.567999999970198
313384.3607,-5.060482033749196,-5.729225632548573,-4.809201298280069,-7.9512466353411,11.569000000017695
313384.3617,-5.8760139080589235,-6.37170798908135,-5.322726256877366,-8.038500250005939,11.570000000006985
313384.3627,-5.865040408496607,-6.1975486630249765,-5.051641320625377,-7.331522961074476,11.570999999996275
313384.3637,-5.1025029833991775,-5.277899592835087,-4.077515909508722,-5.921015903971138,11.571999999985565
313384.3647,-3.7423240765179684,-3.7606424078694034,-2.5581198472874322,-3.965804215393944,11.572999999974854
313384.3657,-2.0001906186315535,-1.8538844521983069,-0.7101618300006725,-1.676463981465035,11.574000000022352
313384.3667,-0.13022586359034996,0.19647780283284128,1.2138904176307925,0.7060803594680678,11.575000000011642
313384.3677,1.6020966892923336,2.13286079488875,2.9525762164307565,2.934863996306622,11.576000000000931
313384.3687,2.9480764531950916,3.713136046385382,4.2631088702007975,4.78168772255963,11.576999999990221
313384.3697,3.70212679574213,4.736088615299205,4.947169882333128,6.059968074824014,11.577999999979511
313384.3707,3.7236946529320436,5.062638556882424,4.872242348953683,6.643372611797267,11.579000000027008
313384.3717,2.9525597268549486,4.630694994803217,3.986336361999056,6.478398229554987,11.580000000016298
313384.3727,1.41597165655785,3.4621458362323407,2.324612318406974,5.589648468469161,11.581000000005588
313384.3737,-0.7731067236184069,1.6612677823938677,0.0072090550530601386,4.0772862404352805,11.581999999994878
313384.3747,-3.4264995290290114,-0.5953058857562181,-2.7715460004509036,2.106910547816294,11.582999999984168
313384.3757,-6.299042628852374,-3.0760822177422726,-5.761513498178166,-0.10714624425829435,11.583999999973457
313384.3767,-9.112745750417426,-5.517948162932761,-8.68092079100956,-2.323453647536924,11.585000000020955
313384.3777,-11.584511232757817,-7.6528552039803435,-11.243978414662504,-4.29791501496648,11.586000000010245
313384.3787,-13.454669321972903,-9.235301693567589,-13.189222640678,-5.808581186080739,11.586999999999534
313384.3797,-14.513499857845611,-10.067876255006302,-14.305790613651771,-6.678388643877626,11.587999999988824
313384.3807,-14.623098718165599,-10.022305950113088,-14.455027195888105,-6.793564310655405,11.588999999978114
313384.3817,-13.732396276621518,-9.053885552904422,-13.585271022440761,-6.115860459409433,11.590000000025611
313384.3827,-11.883800645959251,-7.207807092217298,-11.73832777951859,-4.6873854798675865,11.591000000014901
313384.3837,-9.210755596932355,-4.61669908181821,-9.046946902384919,-2.6275205341736005,11.592000000004191
313384.3847,-5.926391829639811,-1.4895452693321742,-5.723494775821854,-0.12218760779386534,11.59299999999348
313384.3857,-2.304323704370667,1.9070009213531005,-2.0408773580631308,2.5935147979677375,11.59399999998277
313384.3867,1.3465839764455385,5.273140742685628,1.6924762053211682,5.25763959812664,11.59499999997206
313384.3877,4.711058783524839,8.303948958391492,5.161174254805455,7.606523662964053,11.596000000019558
313384.3887,7.497092231179779,10.718191504525423,8.072222365124697,9.400285982852123,11.597000000008848
313384.3897,9.463569615370712,12.285157170797808,10.182353591356335,10.446210411494054,11.597999999998137
313384.3907,10.443177944809392,12.84690068066551,11.320692758659085,10.617732099075504,11.598999999987427
313384.3917,10.358363808949173,12.33373069987804,11.404567392334707,9.867169762090167,11.599999999976717
313384.3927,9.228782901358136,10.771424227158489,10.44694019127958,8.230950703509237,11.601000000024214
313384.3937,7.169505477348701,8.27944560352995,8.55474898830638,5.826803069876735,11.602000000013504
313384.3947,4.3801371400862825,5.06031651913874,5.918320849008138,2.8431692590238797,11.603000000002794
313384.3957,1.1258947558018821,1.3811383767781364,2.7928914533770914,-0.4781503713763452,11.603999999992084
313384.3967,-2.287542873185166,-2.450973100517217,-0.5259751243641112,-3.8644570021767466,11.604999999981374
313384.3977,-5.54298677977518,-6.117192976338247,-3.7306821591740147,-7.037554274380271,11.605999999970663
313384.3987,-8.34170159248719,-9.316323429671822,-6.530870896010279,-9.739643943411114,11.60700000001816
313384.3997,-10.43149455392947,-11.792355195827483,-8.680835911728185,-11.757222837775481,11.60800000000745
313384.4007,-11.630227551021505,-13.357622722609918,-10.00244125646996,-12.9406836448764,11.60899999999674
313384.4017,-11.842497126314443,-13.909351617310113,-10.401336914796794,-13.217741500336935,11.60999999998603
313384.4027,-11.067893710742066,-13.438040219973749,-9.874932489637995,-12.59941030060106,11.61099999997532
313384.4037,-9.4000715914498,-12.026910910000915,-8.511391895880367,-11.177978265492317,11.612000000022817
313384.4047,-7.016755330957919,-9.842533589100247,-6.479790334143735,-9.117210661914346,11.613000000012107
313384.4057,-4.161689216819054,-7.117579131256841,-4.0124371139817265,-6.6357627483244555,11.614000000001397
313384.4067,-1.1203179056161803,-4.127421053347049,-1.3811307473676753,-3.985444202382827,11.614999999990687
313384.4077,1.8084074803343309,-1.1628951484137928,1.1302983629536945,-1.4264733509342944,11.615999999979977
313384.4087,4.341331980582117,1.498108204705132,3.2544448147509293,0.7978529844888909,11.617000000027474
313384.4097,6.238641390585894,3.6174412570371794,4.7669805438591455,2.484598185316686,11.618000000016764
313384.4107,7.326961393880122,5.019276377770303,5.508882083129947,3.4904493401638588,11.619000000006054
313384.4117,7.515765629778023,5.6062779081959535,5.402052547734902,3.744937038708471,11.619999999995343
313384.4127,6.8055079876411675,5.36781887114348,4.456811873923547,3.2563404390803714,11.620999999984633
313384.4137,5.286709545262548,4.37947990265648,2.770531736524671,2.1097277288382132,11.621999999973923
313384.4147,3.1301200349274168,2.7939278717221034,0.5175648350146322,0.45735616024549725,11.62300000002142
313384.4157,0.568950396093804,0.8241206032923137,-2.068523810006277,-1.497593025208534,11.62400000001071
313384.4167,-2.1250489796182546,-1.2794612986838207,-4.718657419514258,-3.52231482490638,11.625
313384.4177,-4.669286432742537,-3.255268232274509,-7.155529099352073,-5.378591825514773,11.62599999998929
313384.4187,-6.799056276435444,-4.858173045475608,-9.121760294845435,-6.847507473343541,11.62699999997858
313384.4197,-8.294448097229917,-5.8852524578426495,-10.406144100117814,-7.75220364729219,11.628000000026077
313384.4207,-9.002771030327992,-6.197281533098592,-10.865368168330821,-7.976417928411798,11.629000000015367
313384.4217,-8.85426765855791,-5.733788702015704,-10.439054756715988,-7.476951433172187,11.630000000004657
313384.4227,-7.869552408884506,-4.520155182873204,-9.156610915228681,-6.288815277877728,11.630999999993946
313384.4237,-6.158023320840603,-2.6660284395523135,-7.135185756193966,-4.522524156043734,11.631999999983236
313384.4247,-3.907384080083846,-0.3551774409743944,-4.568905347409928,-2.3537785728690905,11.632999999972526
313384.4257,-1.3652882517130787,2.172236255467299,-1.7104134464029768,-0.006527274064608131,11.634000000020023
313384.4267,1.1851060114869307,4.643246215897098,1.15349601676446,2.2689451345262475,11.635000000009313
313384.4277,3.45328093696727,6.779219550775214,3.7297853740504894,4.220767484329338,11.635999999998603
313384.4287,5.170446088089745,8.323881151732445,5.747897302415527,5.620646367062313,11.636999999987893
313384.4297,6.116711613511073,9.069463085947925,6.986489420515163,6.286976398244216,11.637999999977183
313384.4307,6.143673622990391,8.878393355773087,7.295561006473648,6.103621700655164,11.63900000002468
313384.4317,5.190180927726456,7.6983668274849935,6.611798455315039,5.03251093860012,11.64000000001397
313384.4327,3.289714386524769,5.569281712591222,4.965623950504444,3.1187873183917896,11.64100000000326
313384.4337,0.5686260259430796,2.6213150364808913,2.4792382625329,0.48797762609612044,11.64199999999255
313384.4347,-2.7646247855501263,-0.9357271107768145,-0.644175201846721,-2.664579953399497,11.64299999998184
313384.4357,-6.4382235307478,-4.830798344154937,-4.139057637100152,-6.0910565457428145,11.643999999971129
313384.4367,-10.14194778183509,-8.755998255036232,-7.702105525434321,-9.513552440431331,11.645000000018626
313384.4377,-13.555912064107227,-12.39462827103161,-11.020550831326394,-12.649470375165565,11.646000000007916
313384.4387,-16.380342470684116,-15.450229066220242,-13.801362180340668,-15.237409007762881,11.646999999997206
313384.4397,-18.36351246816676,-17.67381285618869,-15.798550025086264,-17.06109261603793,11.647999999986496
313384.4407,-19.325150150082166,-18.88667645041367,-16.835944984714956,-17.969044031168277,11.648999999975786
313384.4417,-19.173067910257362,-18.996607805702222,-16.823261063230124,-17.88812170597321,11.650000000023283
313384.4427,-17.91142491797498,-18.005938346532506,-15.7639109184496,-16.82963812242053,11.651000000012573
313384.4437,-15.639846319349038,-16.010683043068656,-13.753844571329518,-14.887497128609086,11.652000000001863
313384.4447,-12.543511176743177,-13.190873064699261,-10.971557202052544,-12.228561853136048,11.652999999991152
313384.4457,-8.87519697400065,-9.793037548054475,-7.660270457460986,-9.076216967933522,11.653999999980442
313384.4467,-4.931046516832861,-6.1065485557869,-4.104051046021032,-5.688745855908983,11.654999999969732
313384.4477,-1.0224273473145642,-2.436132832862674,-0.6002161601152851,-2.334640665616419,11.65600000001723
313384.4487,2.5533744600716726,0.9267818614823878,2.5692696775425823,0.7327470790111044,11.65700000000652
313384.4497,5.540781058700802,3.7311145347642576,5.164611887110881,3.298753714059572,11.657999999995809
313384.4507,7.74920012895715,5.788968414860304,7.010606602288674,5.206873654461963,11.658999999985099
313384.4517,9.069718411228154,6.992074221807199,8.012493524970656,6.3722864909615735,11.659999999974389
313384.4527,9.483630458904935,7.320288208198659,8.163720706194356,6.78816525403787,11.661000000021886
313384.4537,9.062028101338269,6.841376715268846,7.544900318666302,6.524204022236107,11.662000000011176
313384.4547,7.956556502344504,5.702174927616577,6.314103131983548,5.71757023570146,11.663000000000466
313384.4557,6.382310498386061,4.112052641827345,4.689492165396898,4.557232184768827,11.663999999989755
313384.4567,4.5946149306229405,2.320371387851758,2.9260491736699143,3.2632620334680356,11.664999999979045
313384.4577,2.8620294464397533,0.5902016027949867,1.2887273280745668,2.0632056635632945,11.666000000026543
313384.4587,1.4382833116833336,-0.8290713445715339,0.02471284791114239,1.1678944933650026,11.667000000015832
313384.4597,0.5359435153066363,-1.7275227002953488,-0.6624367988782237,0.7491235129089627,11.668000000005122
313384.4607,0.3044405179309776,-1.9562839920081816,-0.6341984185816956,0.921429444636674,11.668999999994412
313384.4617,0.814638239892055,-1.4428175945730568,0.16810521683077162,1.7297920836967664,11.669999999983702
313384.4627,2.051481576442665,-0.1983597646313901,1.7165721601317117,3.1444910671205455,11.670999999972992
313384.4637,3.9154503150310664,1.683199121574115,3.898751734559319,5.063637826458423,11.672000000020489
313384.4647,6.232672100460492,4.034877587366027,6.528256334125212,7.323138517482989,11.673000000009779
313384.4657,8.772685391515502,6.633651090389931,9.362922073991202,9.713103582435695,11.673999999999069
313384.4667,11.272081097521347,9.223282775673079,12.128736452576057,11.999076245232141,11.674999999988358
313384.4677,13.461663934696352,11.540658483046284,14.547176458317939,13.945969133200746,11.675999999977648
313384.4687,15.094419518262928,13.342996028707832,16.36325706973825,15.34232309563994,11.677000000025146
313384.4697,15.971485984308359,14.433206625428317,17.371511843407816,16.022462463172218,11.678000000014435
313384.4707,15.963518390935162,14.680862764390369,17.43732225233994,15.88432066473042,11.679000000003725
313384.4717,15.025281972945738,14.036654835674533,16.511461828916648,14.901129959002805,11.679999999993015
313384.4727,13.201972808301951,12.538856395079275,14.636381220121573,13.125768063102841,11.680999999982305
313384.4737,10.626576759621729,10.311102863369417,11.943566525336268,10.68727405146125,11.681999999971595
313384.4747,7.508460059158352,7.551643641711744,8.642176912729951,7.7798155303462,11.683000000019092
313384.4757,4.114251005305859,4.5150692487287785,5.000022973575572,4.645133254885166,11.684000000008382
313384.4767,0.7428368285540451,1.4882604862454563,1.3187007394604264,1.5501349441606511,11.684999999997672
313384.4777,-2.303112393167538,-1.2371174715137756,-2.0947261786171487,-1.2382064547487561,11.685999999986961
313384.4787,-4.746327863030847,-3.3929035538746426,-4.956759053907468,-3.478221105752529,11.686999999976251
313384.4797,-6.361986194650842,-4.760750627466105,-7.034395801997369,-4.976711579573131,11.688000000023749
313384.4807,-6.999960957418485,-5.193876839093995,-8.167343469362834,-5.6076617767959505,11.689000000013039
313384.4817,-6.6000845424634775,-4.632112738594903,-8.283345531065894,-5.324649899224271,11.690000000002328
313384.4827,-5.1988947355526,-3.1087432861860353,-7.405122693927877,-4.165735798332804,11.690999999991618
313384.4837,-2.927162629304318,-0.7484366945400532,-5.64823780768209,-2.2503201460777857,11.691999999980908
313384.4847,0.0016085364057448343,2.2435843230249604,-3.210075546968705,0.2317496633976543,11.692999999970198
313384.4857,3.310647412789719,5.600123155727309,-0.35098989218737403,3.0378000113647268,11.694000000017695
313384.4867,6.685500577275639,9.016582267504878,2.630567063154863,5.894998039440977,11.695000000006985
313384.4877,9.803302605115846,12.179185368652782,5.4265370739475545,8.525894887312809,11.695999999996275
313384.4887,12.362931168346199,14.794149040568497,7.748619390772796,10.674395282454979,11.696999999985565
313384.4897,14.113158552364066,16.615009508018804,9.355673336015721,12.129661946476938,11.697999999974854
313384.4907,14.876101768961506,17.46548704639242,10.07651905631185,12.745663807246697,11.699000000022352
313384.4917,14.563726196458814,17.255701498064028,9.825944619492901,12.454500157658213,11.700000000011642
313384.4927,13.185828388050055,15.990195571664891,8.612389595491715,11.272237394898513,11.701000000000931
313384.4937,10.848747067563481,13.767015309560383,6.536585605226237,9.296721804664921,11.701999999990221
313384.4947,7.7449471772991645,10.767962040865363,3.781313879393805,6.697610073928496,11.702999999979511
313384.4957,4.134502884469064,7.240982967874705,0.5933027453355191,3.6996128721777897,11.704000000027008
313384.4967,0.3202858816270971,3.4764251579891634,-2.7409500694790605,0.5606024141578073,11.705000000016298
313384.4977,-3.380730825553313,-0.22053362887872657,-5.923058676905356,-2.4532714881657136,11.706000000005588
313384.4987,-6.667274843905595,-3.558601360120048,-8.67160777036576,-5.093028780054534,11.706999999994878
313384.4997,-9.28180555062097,-6.287458225107961,-10.749175154601426,-7.1503956733709915,11.707999999984168
313384.5007,-11.034080428274484,-8.220605512479343,-11.984891657398675,-8.477151568686763,11.708999999973457
313384.5017,-11.818006868127961,-9.251792425351143,-12.290355668221505,-8.998425377731865,11.710000000020955
313384.5027,-11.620192233829977,-9.36347164661073,-11.667375833184321,-8.718679022247771,11.711000000010245
313384.5037,-10.51942058823315,-8.626519288590094,-10.206819878866906,-7.719836887388881,11.711999999999534
313384.5047,-8.677173257564009,-7.191312245786666,-8.078721218293964,-6.151792466301206,11.712999999988824
313384.5057,-6.320185318861429,-5.2711018997856405,-5.514652277807385,-4.216271611505446,11.713999999978114
313384.5067,-3.7168055746057416,-3.1193748008328663,-2.7841304133105793,-2.14568241071889,11.715000000025611
313384.5077,-1.1495278689873212,-1.0034748876499173,-0.16740478838622386,-0.17907104567630228,11.716000000014901
313384.5087,1.1135718221275903,0.8228789711216465,2.0726762690699974,1.4624167669141097,11.717000000004191
313384.5097,2.8456608087520485,2.1454467269913184,3.7169323629406157,2.5981253288027704,11.71799999999348
313384.5107,3.8835870570651037,2.8111282447209334,4.611655736486315,3.106282800674392,11.71899999998277
313384.5117,4.143719431148731,2.743289304995492,4.683800108173087,2.93637041451184,11.71999999997206
313384.5127,3.6296398567739616,1.9492419965501364,3.9480549895791435,2.1142358710066866,11.721000000019558
313384.5137,2.4309463766181945,0.5191489940682006,2.5051087851563016,0.7394386203139456,11.722000000008848
313384.5147,0.7133080481811079,-1.3835274586803208,0.531274250014619,-1.0249158881580758,11.722999999998137
313384.5157,-1.2992200730543937,-3.53907217235095,-1.739496975380723,-2.9688516139026797,11.723999999987427
313384.5167,-3.34784629557209,-5.694355648112979,-4.039431799099357,-4.857059569080352,11.724999999976717
313384.5177,-5.166288496640022,-7.5891853502293465,-6.094228669701953,-6.453165967766944,11.726000000024214
313384.5187,-6.508891320783487,-8.983539219757436,-7.651123771615061,-7.544324228332437,11.727000000013504
313384.5197,-7.176799009823598,-9.682959340088715,-8.50494767042638,-7.96368575484307,11.728000000002794
313384.5207,-7.039556677134688,-9.55956039585032,-8.51958280170366,-7.6085064308297135,11.728999999992084
313384.5217,-6.049960296086587,-8.566535468766649,-7.642680074996532,-6.4520685532764235,11.729999999981374
313384.5227,-4.2506385570003395,-6.744678875308194,-5.912151686467081,-4.548200227402063,11.730999999970663
313384.5237,-1.7716630534827875,-4.220229710767375,-3.453762527819913,-2.0278971416524896,11.73200000001816
313384.5247,1.1806327949544535,-1.194193636172126,-0.4700155027078936,0.911675581986244,11.73300000000745
313384.5257,4.342577834548086,2.075859550181205,2.7786188823322147,4.024776757376731,11.73399999999674
313384.5267,7.418015499970862,5.299781337371017,5.998324878784572,7.039604926325208,11.73499999998603
313384.5277,10.106679679785227,8.182297418995182,8.89003414291931,9.68357810338399,11.73599999997532
313384.5287,12.133334214397372,10.451264215353012,11.178261340335025,11.70894338346873,11.737000000022817
313384.5297,13.274830674053131,11.883977039186966,12.637875960052007,12.91624385827124,11.738000000012107
313384.5307,13.38243209529453,12.328959110137012,13.116198384216684,13.173372894144128,11.739000000001397
313384.5317,12.397203285502433,11.721093596501747,12.548258413923485,12.4283698412934,11.739999999990687
313384.5327,10.35693710430654,10.088603539157774,10.963716123130185,10.714715355043932,11.740999999979977
313384.5337,7.393905605413946,7.551174228491341,8.484753553563948,8.148609780557226,11.742000000027474
313384.5347,3.723615093862545,4.3093722653574895,5.315122434368739,4.91849369556887,11.743000000016764
313384.5357,-0.3743819196891373,0.6263611564982767,1.7213922026833903,1.2678200074824681,11.744000000006054
313384.5367,-4.5817925995655155,-3.196337779177666,-1.991799784269729,-2.5272612692983674,11.744999999995343
313384.5377,-8.57058707518081,-6.846711410811513,-5.5101117985492944,-6.1831548521357345,11.745999999984633
313384.5387,-12.032918878122516,-10.031067459975029,-8.538741127400687,-9.434578220253396,11.746999999973923
313384.5397,-14.709092941556493,-12.501022153129803,-10.829729874743082,-12.058352709085609,11.74800000002142
313384.5407,-16.410901522578726,-14.076069731740198,-12.204706696656029,-13.892952822508844,11.74900000001071
313384.5417,-17.03809907410053,-14.659571764597793,-12.570884587424315,-14.85195856492028,11.75
313384.5427,-16.586454449649164,-14.246645666282634,-11.928793328896848,-14.930155344810574,11.75099999998929
313384.5437,-15.146637669093943,-12.92322095669741,-10.371031156193325,-14.201746985050365,11.75199999997858
313384.5447,-12.894088810884234,-10.856391459143676,-8.072194743966516,-12.810918897383715,11.753000000026077
313384.5457,-10.070891467831062,-8.277037813042185,-5.27100428576389,-10.955734948027025,11.754000000015367
313384.5467,-6.961447193675142,-5.456444705554444,-2.246397437999888,-8.866999879847963,11.755000000004657
313384.5477,-3.864344961860418,-2.6792178773080457,0.7100516514901892,-6.7842059623853785,11.755999999993946
313384.5487,-1.0631826284405719,-0.21516060988005004,3.322680861600601,-4.930960300428176,11.756999999983236
313384.5497,1.200809508317981,1.7071364208510011,5.358463014714703,-3.492330972686856,11.757999999972526
313384.5507,2.751678549329687,2.922413306247507,6.649297698590098,-2.596352099444762,11.759000000020023
313384.5517,3.494973556366282,3.3444157531834455,7.10770887076907,-2.3015097953283012,11.760000000009313
313384.5527,3.4257282834919294,2.9736125293396873,6.734438557167674,-2.591434081820422,11.760999999998603
313384.5537,2.627458893129967,1.8962259924780502,5.617227156778344,-3.377305064131379,11.761999999987893
313384.5547,1.2623182332202478,0.2747011098767023,3.920939202398035,-4.507715600537244,11.762999999977183
313384.5557,-0.44658236393118356,-1.669420194682743,1.8700446601345317,-5.784992687355727,11.76400000002468
313384.5567,-2.2389039939594158,-3.6785070337304484,-0.27478351737390655,-6.9863386217453725,11.76500000001397
313384.5577,-3.8444910849193072,-5.485440984762815,-2.24361839979278,-7.88767371411725,11.76600000000326
313384.5587,-5.011730460721375,-6.841170786752578,-3.785091581634965,-8.287792005433442,11.76699999999255
313384.5597,-5.534036472397266,-7.540488446391898,-4.69230457288355,-8.030406672013916,11.76799999998184
313384.5607,-5.271827344874146,-7.443471588660806,-4.824265087670944,-7.021866015725107,11.768999999971129
313384.5617,-4.167804058231576,-6.490464468582557,-4.120718111386523,-5.2427441342291985,11.770000000018626
313384.5627,-2.254004256118989,-4.709106468433182,-2.608895017485439,-2.75211105940888,11.771000000007916
313384.5637,0.35008512564042016,-2.2126996360318008,-0.401502644943755,0.31599354954006187,11.771999999997206
313384.5647,3.4481912360170965,0.8099409324764357,2.313860366862492,3.7635916957508018,11.772999999986496
313384.5657,6.785663965047055,4.112171886310979,5.292825594193753,7.346271657902975,11.773999999975786
313384.5667,10.073834732711367,7.413017693510679,8.258135238470746,10.795493873137765,11.775000000023283
313384.5677,13.017941859260556,10.424181177812448,10.926930218267161,13.843548324374897,11.776000000012573
313384.5687,15.345884306290088,12.87792395874401,13.038755437355212,16.248745625686823,11.777000000001863
313384.5697,16.834979488793586,14.55308378602503,14.381516388561584,17.818392120571072,11.777999999991152
313384.5707,17.334091854646736,15.29667532834653,14.812817951355052,18.42730698925076,11.778999999980442
313384.5717,16.778948380298285,15.038951033804093,14.274565856560633,18.030066563939418,11.779999999969732
313384.5727,15.199121088825814,13.800437156003177,12.799369885724747,16.66576624859007,11.78100000001723
313384.5737,12.715970186434578,11.690244442143161,10.50809097672171,14.454814667114839,11.78200000000652
313384.5747,9.531724800604795,8.895806502018852,7.59874333031616,11.588047275653066,11.782999999995809
313384.5757,5.910745084840387,5.6650379206215025,4.327812146973231,8.309192246528374,11.783999999985099
313384.5767,2.154774731374232,2.282646533916351,0.9857943937621058,4.892367136831065,11.784999999974389
313384.5777,-1.4254182782081453,-0.9570928070359123,-2.1306593612957436,1.6167675866128017,11.786000000021886
313384.5787,-4.539260273405684,-3.7784483949369876,-4.747285669985428,-1.2590181585852502,11.787000000011176
313384.5797,-6.943611863435118,-5.950483646164119,-6.638642503538391,-3.5205994269462555,11.788000000000466
313384.5807,-8.465383201009466,-7.308889715289762,-7.649848729007176,-5.017013269399713,11.788999999989755
313384.5817,-9.017329170210662,-7.771269293894344,-7.711494781525369,-5.673755069649285,11.789999999979045
313384.5827,-8.605494597151814,-7.344382523311488,-6.846254612962063,-5.498374325006818,11.791000000026543
313384.5837,-7.3275947672667545,-6.1226523531810875,-5.166537923015278,-4.578124543473989,11.792000000015832
313384.5847,-5.362501718314245,-4.278082162559448,-2.863396451963728,-3.0699297478429477,11.793000000005122
313384.5857,-2.9518753850042296,-2.04257929944229,-0.1877532026688356,-1.183677407322734,11.793999999994412
313384.5867,-0.3757457290642986,0.31557793395359446,2.574224818947783,0.8395042294559069,11.794999999983702
313384.5877,2.0755575504031163,2.518818274839216,5.12921504193721,2.751840713271151,11.795999999972992
313384.5887,4.130375048228548,4.308240927915183,7.205552324872187,4.323958307911112,11.797000000020489
313384.5897,5.562747900590904,5.469717135880616,8.579955563365425,5.367924461333369,11.798000000009779
313384.5907,6.214859631762022,5.855563757123345,9.09955715633246,5.756024272206448,11.798999999999069
313384.5917,6.012690994305883,5.399655141285854,8.697079947058826,5.433437237631463,11.799999999988358
313384.5927,4.973354302600874,4.124481056225322,7.397672505667742,4.4235796934867695,11.800999999977648
313384.5937,3.2033889030352225,2.139446218295201,5.316725797239114,2.825599878725691,11.802000000025146
313384.5947,0.8881848628958993,-0.3694359244636745,2.6488731225280553,0.8042838178441282,11.803000000014435
313384.5957,-1.726428931359231,-3.15745994244105,-0.3507650961834156,-1.4266242848658095,11.804000000003725
313384.5967,-4.3586283274285424,-5.945014887281967,-3.3912735694189435,-3.626036683028453,11.804999999993015
313384.5977,-6.71867389857094,-8.44492394462522,-6.1741738518963185,-5.549936574768444,11.805999999982305
313384.5987,-8.537875204075632,-10.390671287071642,-8.42245216908333,-6.976181994379434,11.806999999971595
313384.5997,-9.595599429412225,-11.562761107601943,-9.90756176386775,-7.727249791410367,11.808000000019092
313384.6007,-9.741674602499987,-11.810633947071754,-10.471775067559989,-7.68867166997682,11.809000000008382
313384.6017,-8.911986863638347,-11.067997126480128,-10.043713801179676,-6.821335982184551,11.809999999997672
313384.6027,-7.13573577336844,-9.360067153419688,-8.645549556532266,-5.16642980878107,11.810999999986961
313384.6037,-4.533626350868447,-6.802009718939257,-6.391178554753939,-2.842516970140598,11.811999999976251
313384.6047,-1.3071617308517247,-3.588720322975769,-3.475552875306318,-0.03501836819784214,11.813000000023749
313384.6057,2.279930595206676,0.02306815548217216,-0.1562106682799303,3.020894022960736,11.814000000013039
313384.6067,5.926338047259387,3.7386179197231773,3.271194285578013,6.062332088400762,11.815000000002328
313384.6077,9.321475140162134,7.252648558330727,6.500981769668564,8.823513989438862,11.815999999991618
313384.6087,12.17471841109388,10.277767752416583,9.246422648384053,11.060958164958777,11.816999999980908
313384.6097,14.242725389073787,12.571117885024588,11.266792606281943,12.576595015363067,11.817999999970198
313384.6107,15.352188011881214,13.956663965925719,12.389882968548328,13.236544603215705,11.819000000017695
313384.6117,15.415819041417878,14.340977644017244,12.527797939185897,12.983731415233336,11.820000000006985
313384.6127,14.44003324105724,13.721010725876845,11.684527496881456,11.843109051724952,11.820999999996275
313384.6137,12.52359831665202,12.183136900497557,9.954591761831896,9.918989718784479,11.821999999985565
313384.6147,9.847414145809047,9.893595273271963,7.512926814747209,7.38474488058296,11.822999999974854
313384.6157,6.656446000710166,7.081310007220736,4.597038063643042,4.4658888031494355,11.824000000022352
313384.6167,3.235603286943957,4.014804428018695,1.483201483045722,1.4182029469877455,11.825000000011642
313384.6177,-0.11805530240563449,0.9755024289891169,-1.5409284106785937,-1.4969570943335468,11.826000000000931
313384.6187,-3.124054148058707,-1.769941386644953,-4.204598684281386,-4.037756581998704,11.826999999990221
313384.6197,-5.545348333349712,-3.9955527958321744,-6.280340746355284,-6.00492595128258,11.827999999979511
313384.6207,-7.210655491627964,-5.537640268626876,-7.605863631545261,-7.260505209977222,11.829000000027008
313384.6217,-8.030090558065728,-6.309969362548702,-8.09931354783445,-7.740462992087282,11.830000000016298
313384.6227,-8.002586155201415,-6.311029369369064,-7.766413632337238,-7.459967612626582,11.831000000005588
313384.6237,-7.214394414240381,-5.622697258351019,-6.6988016832050565,-6.510810081941567,11.831999999994878
313384.6247,-5.8288482025722885,-4.4004571927314355,-5.063754051754902,-5.051250632030981,11.832999999984168
313384.6257,-4.068424242837417,-2.8561715408473125,-3.086335344542447,-3.2893052011710973,11.833999999973457
313384.6267,-2.1909124147274146,-1.2351388993640415,-1.0257624154238982,-1.4611334317320805,11.835000000020955
313384.6277,-0.4620796139076666,0.21025668667005745,0.8516562966538139,0.19332826507374085,11.836000000010245
313384.6287,0.8724347005731093,1.2476595256411511,2.30030504218441,1.4550734887694323,11.836999999999534
313384.6297,1.6131752359951215,1.6898926775638357,3.1209937319161893,2.1486230503070005,11.837999999988824
313384.6307,1.6282628345351735,1.4156071093830498,3.182064341977339,2.160269527072734,11.838999999978114
313384.6317,0.8679622886449623,0.3833314234664474,2.433749245440624,1.4501530443914612,11.840000000025611
313384.6327,-0.6290617706333305,-1.3625281445917292,0.9143234369949835,0.05695793037127601,11.841000000014901
313384.6337,-2.738468841894901,-3.694395007268214,-1.252599179756796,-1.905254802759429,11.842000000004191
313384.6347,-5.2617266180852384,-6.412734364025742,-3.8694015849488763,-4.257790416404823,11.84299999999348
313384.6357,-7.94526699579749,-9.2647249623591,-6.683354217461076,-6.774603701922273,11.84399999998277
313384.6367,-10.505462144416743,-11.968602399796275,-9.41123366294446,-9.204441575187253,11.84499999997206
313384.6377,-12.656984881453898,-14.241316141374035,-11.76727117253008,-11.295682211048888,11.846000000019558
313384.6387,-14.141771259790222,-15.826802059346488,-13.491695206990629,-12.821437426110148,11.847000000008848
313384.6397,-14.755728916006982,-16.52209519718769,-14.37706221082335,-13.602452553995068,11.847999999998137
313384.6407,-14.370540208462328,-16.198701776575966,-14.289774628308301,-13.525547006992898,11.848999999987427
313384.6417,-12.94837494848132,-14.817096813504127,-13.184645142769291,-12.555768830869418,11.849999999976717
313384.6427,-10.54800855895973,-12.432870927940654,-11.111036623568266,-10.741045928138876,11.851000000024214
313384.6437,-7.321671636872217,-9.19385329565153,-8.209923041916053,-8.20884578538112,11.852000000013504
313384.6447,-3.5028553577117214,-5.3284091290719475,-4.702098149978557,-5.155133291645604,11.853000000002794
313384.6457,0.6138236049540414,-1.1259647904574102,-0.8686200094757794,-1.8266666080319038,11.853999999992084
313384.6467,4.698820708007446,3.0884316039936497,2.97466356666585,1.5016792617216534,11.854999999981374
313384.6477,8.417452052612912,6.98312498779881,6.506084860153626,4.552386012107077,11.855999999970663
313384.6487,11.46044693616454,10.249703406724906,9.427853641043312,7.071113540199486,11.85700000001816
313384.6497,13.572355728063703,12.630856616416933,11.493638878736636,8.850384628243516,11.85800000000745
313384.6507,14.575103957550064,13.943602918961423,12.531391962407742,9.748854160765013,11.85899999999674
313384.6517,14.384445309068516,14.095685326049765,12.45922550787831,9.704311987216196,11.85999999998603
313384.6527,13.01774543519675,13.093591622655651,11.292830711621066,8.739176102661828,11.86099999997532
313384.6537,10.592359166177093,11.041455023042733,9.143731968745865,6.957960837709456,11.862000000022817
313384.6547,7.314765151448832,8.130964974154585,6.208560678592256,4.536982144706629,11.863000000012107
313384.6557,3.461506704951628,4.623276572796141,2.750394863506127,1.7073129876560356,11.864000000001397
313384.6567,-0.6462301681670257,0.8246687777003898,-0.9260266683332364,-1.2673469152808021,11.864999999990687
313384.6577,-4.671966659268609,-2.941707563237313,-4.502821394848608,-4.115734582855446,11.865999999979977
313384.6587,-8.29440671852835,-6.365287828636172,-7.678465015392856,-6.584590392363221,11.867000000027474
313384.6597,-11.236140515253256,-9.17595331322804,-10.195446976671175,-8.462257296101699,11.868000000016764
313384.6607,-13.287862981291331,-11.167658954213426,-11.863438467497017,-9.598042484831813,11.869000000006054
313384.6617,-14.325841459509471,-12.215620756367807,-12.575777928940495,-9.915492583417418,11.869999999995343
313384.6627,-14.321031098872021,-12.285491836627113,-12.317737327087452,-9.418334006851225,11.870999999984633
313384.6637,-13.339053813699923,-11.43374265195667,-11.165838058374186,-8.188550949639952,11.871999999973923
313384.6647,-11.531146389755648,-9.799319908073851,-9.278359501112343,-6.376843936264903,11.87300000002142
313384.6657,-9.117058787665814,-7.587505905733831,-6.878040422760102,-4.186456474998787,11.87400000001071
313384.6667,-6.361659548302606,-5.047653035365744,-4.2287300219095805,-1.8520033057056997,11.875
313384.6677,-3.547606023955182,-2.4470535496455934,-1.6083276123965293,0.3845820687649428,11.87599999998929
313384.6687,-0.9468047689454361,-0.04356593487095862,0.7192987116138256,2.2985876080587717,11.87699999997858
313384.6697,1.2065134437706495,1.94027847367872,2.530637542047227,3.705118090610836,11.878000000026077
313384.6707,2.7384578001052216,3.3391307613836205,3.6645130249510323,4.47751248531052,11.879000000015367
313384.6717,3.5516721170481884,4.060500544874715,4.037566473641636,4.559769047941142,11.880000000004657
313384.6727,3.6335044036610618,4.092738136429355,3.6517404164895084,3.9717606465418114,11.880999999993946
313384.6737,3.055399766468758,3.5045815644129688,2.5930611835999247,2.8067388142175353,11.881999999983236
313384.6747,1.963640785626816,2.4363717053244796,1.021880158161661,1.221389785557256,11.882999999972526
313384.6757,0.562420483211015,1.0838707682553823,-0.8444195766480888,-0.5805559071172905,11.884000000020023
313384.6767,-0.9090054234480954,-0.3236431283203712,-2.754498522214596,-2.369519415087539,11.885000000009313
313384.6777,-2.2027530416014205,-1.5487621920064396,-4.449593336139363,-3.913956892489755,11.885999999998603
313384.6787,-3.0896424353605165,-2.372225865743481,-5.690840227655892,-5.004543435161314,11.886999999987893
313384.6797,-3.3846498789797206,-2.617408711477585,-6.284644594954495,-5.476237831804667,11.887999999977183
313384.6807,-2.9678898917755108,-2.170516307432187,-6.103545531342071,-5.226014009787504,11.88900000002468
313384.6817,-1.7989808429473046,-0.994411835281167,-5.10046932304599,-4.224469471045502,11.89000000001397
313384.6827,0.07669477044469529,0.865371344604554,-3.314920006515935,-2.5201226074099448,11.89100000000326
313384.6837,2.530518535019486,3.283098540621463,-0.8704531124243969,-0.2359305913156509,11.89199999999255
313384.6847,5.361761220938692,6.063606054370924,2.0363576235650283,2.441673063297444,11.89299999998184
313384.6857,8.316255591509485,8.96036898787021,5.154406560416578,5.280182539516166,11.893999999971129
313384.6867,11.110811931167826,11.699123755700864,8.20219975171524,8.023187457311995,11.895000000018626
313384.6877,13.460991885556554,14.004741492322944,10.895294129930983,10.415150639137803,11.896000000007916
313384.6887,15.109510544614585,15.628711151427304,12.974336156057621,12.22637680140803,11.896999999997206
313384.6897,15.852459222320633,16.374513119014225,14.230934235203314,13.275724386872943,11.897999999986496
313384.6907,15.560740211721637,16.118353934280414,14.528801679599438,13.44882401182139,11.898999999975786
313384.6917,14.194560905692018,14.82317226302374,13.818062071705617,12.709997895315972,11.900000000023283
313384.6927,11.809503770995281,12.544473060542705,12.141272249435799,11.10668331190871,11.901000000012573
313384.6937,8.553505485972686,9.427337935333744,9.630525015051369,8.765890251328152,11.902000000001863
313384.6947,4.654963269197626,5.6948178514594865,6.495865114183541,5.882998103122333,11.902999999991152
313384.6957,0.4030524541312602,1.6287555455862524,3.006102672339271,2.7039426176089996,11.903999999980442
313384.6967,-3.87789814666805,-2.455173041925842,-0.5361453132208507,-0.49751037511419216,11.904999999969732
313384.6977,-7.85754239104166,-6.235839241426087,-3.822785948772516,-3.4452271394019593,11.90600000001723
313384.6987,-11.229385360616313,-9.415763393829447,-6.569219040805289,-5.886457380346135,11.90700000000652
313384.6997,-13.738526913497925,-11.748157695873585,-8.541139770968952,-7.615396644518234,11.907999999995809
313384.7007,-15.204622627029444,-13.059320733400336,-9.576576953109477,-8.492291470755386,11.908999999985099
313384.7017,-15.537863179032502,-13.264237091505079,-9.601027443478888,-8.456249671334588,11.909999999974389
313384.7027,-14.74644617963981,-12.373887439856635,-8.634215755823002,-7.530527753906222,11.911000000021886
313384.7037,-12.93483620223077,-10.493572360147045,-6.7878206891461,-5.819796650317225,11.912000000011176
313384.7047,-10.292999166484323,-7.812419267716456,-4.254388502947966,-3.4996644931928196,11.913000000000466
313384.7057,-7.0776694560518125,-4.585091726823238,-1.2885091552745496,-0.7994853299997771,11.913999999989755
313384.7067,-3.587477119910743,-1.1074714507409076,1.817915391799291,2.0198677825983893,11.914999999979045
313384.7077,-0.13435320103915524,2.3113378680142644,4.763907372442751,4.69110124614513,11.916000000026543
313384.7087,2.9860139322641714,5.377985421362986,7.268410342560307,6.966032535674329,11.917000000015832
313384.7097,5.521813944737226,7.842039631908755,9.097231083078134,8.639080124677044,11.918000000005122
313384.7107,7.2881783423517605,9.518742052780524,10.085312317448274,9.566441803009845,11.918999999994412
313384.7117,8.183462929786643,10.305181140268223,10.152179511128825,9.679117559537612,11.919999999983702
313384.7127,8.197207440722659,10.188364672638704,9.309072646796675,8.988538659406506,11.920999999972992
313384.7137,7.409048584073139,9.244462966972625,7.657086648864852,7.584290047723445,11.922000000020489
313384.7147,5.978749784595199,7.6293577400292225,5.37652261541583,5.624187710414895,11.923000000009779
313384.7157,4.128380419242734,5.561479131351993,2.7085103214884363,3.3177203076389605,11.923999999999069
313384.7167,2.1184442872538862,3.2986632457004,-0.06928332637376111,0.9045121122490797,11.924999999988358
313384.7177,0.2203464128185498,1.1113413962456273,-2.6704688019157814,-1.3700512963318165,11.925999999977648
313384.7187,-1.3120585003334237,-0.7452763532499463,-4.828538084081732,-3.279619324357078,11.927000000025146
313384.7197,-2.2690080711803833,-2.0572708340949544,-6.323450302924945,-4.639642845358708,11.928000000014435
313384.7207,-2.5068299669822403,-2.673764151223488,-7.003590823361721,-5.325863210939558,11.929000000003725
313384.7217,-1.9632123788104967,-2.522210406303319,-6.800950771203033,-5.2867007667762245,11.929999999993015
313384.7227,-0.6642301843626618,-1.615727826533679,-5.738039550090908,-4.548323214597304,11.930999999982305
313384.7237,1.2775756176992248,-0.051761094624940565,-3.9258536985550956,-3.211896986420428,11.931999999971595
313384.7247,3.6738841990934326,1.9977806862739032,-1.5531021020341038,-1.4432961299231948,11.933000000019092
313384.7257,6.279000406746536,4.303923496787149,1.1322557039544237,0.5437126430794252,11.934000000008382
313384.7267,8.814170276419649,6.603834735926921,3.8473484552651267,2.509146124455294,11.934999999997672
313384.7277,10.995412295354983,8.627532647880132,6.3022240929813185,4.211198762228541,11.935999999986961
313384.7287,12.562120143107537,10.125448812975073,8.22844565030128,5.430941467234507,11.936999999976251
313384.7297,13.303612043321532,10.894108107180038,9.405650240197295,5.994878675541664,11.938000000023749
313384.7307,13.080998644469664,10.7973740305707,9.683468778082576,5.793124517353273,11.939000000013039
313384.7317,11.842196295190549,9.781141823559864,8.996658214759186,4.791386241916044,11.940000000002328
313384.7327,9.62858116400643,7.880004677519991,7.3719623025836,3.035548561570772,11.940999999991618
313384.7337,6.572596400925279,5.2152065223381525,4.92602616814579,0.6483770031183583,11.941999999980908
313384.7347,2.8865094427487596,1.9840510116655226,1.8545649379913354,-2.18136926990435,11.942999999970198
313384.7357,-1.1566170769845978,-1.5582235628859684,-1.5861583272628148,-5.216380040077597,11.944000000017695
313384.7367,-5.247914437975205,-5.1223520359325025,-5.1037387899536535,-8.193112910376394,11.945000000006985
313384.7377,-9.071245892654176,-8.412410979865191,-8.39753931371807,-10.84682913463641,11.945999999996275
313384.7387,-12.33253344985038,-11.153983111937457,-11.187381625817526,-12.936917674449427,11.946999999985565
313384.7397,-14.78703378960487,-13.120370170631896,-13.240223208376383,-14.270046597919688,11.947999999974854
313384.7407,-16.2619219535975,-14.154293766893923,-14.39222331809093,-14.718889204821279,11.949000000022352
313384.7417,-16.671997922268638,-14.182961447891788,-14.564054872894658,-14.234600606174128,11.950000000011642
313384.7427,-16.027001216163,-13.225021056577546,-13.767981711061848,-12.85182702111759,11.951000000000931
313384.7437,-14.429836661394946,-11.388717253846831,-12.106027876356366,-10.685755471994137,11.951999999990221
313384.7447,-12.065900365351807,-8.861422413379952,-9.75943795625397,-7.921484938472666,11.952999999979511
313384.7457,-9.184562042573484,-5.891555996917069,-6.970479593986982,-4.7967457849023525,11.954000000027008
313384.7467,-6.074623245132087,-2.764649560236391,-4.0183876323167596,-1.5796395456229742,11.955000000016298
313384.7477,-3.0361560803361263,0.2241140193411469,-1.1918206537660536,1.4564470547993371,11.956000000005588
313384.7487,-0.3514764115107625,2.798214626496127,1.2394609390320257,4.058328629371935,11.956999999994878
313384.7497,1.7419148129419326,4.72620721887249,3.050913759631772,6.016448461294787,11.957999999984168
313384.7507,3.0737862919413406,5.843664053973692,4.084946200509827,7.183992363839232,11.958999999973457
313384.7517,3.556847211018878,6.068516439195096,4.265941854545798,7.489859940210852,11.960000000020955
313384.7527,3.1941233668743774,5.408311845477785,3.607106622022457,6.944267156714219,11.961000000010245
313384.7537,2.0773445234673207,3.9586935383259765,2.208480356500084,5.6364758935048105,11.961999999999534
313384.7547,0.3765332367067123,1.893268822102081,0.24632415402520397,3.724915835986901,11.962999999988824
313384.7557,-1.6781495356004081,-0.5541255227602262,-2.0450563566276565,1.4207063070628232,11.963999999978114
313384.7567,-3.8204857116823745,-3.113008496155684,-4.39724647464376,-1.0337722515002652,11.965000000025611
313384.7577,-5.775809650587979,-5.503366948247653,-6.535043999788379,-3.3891282689670605,11.966000000014901
313384.7587,-7.289401021121993,-7.4636265937621316,-8.204460124750689,-5.413632190690913,11.967000000004191
313384.7597,-8.152839544896047,-8.776731604158675,-9.198624814346287,-6.915880969944501,11.96799999999348
313384.7607,-8.225701256191716,-9.291769517077334,-9.379026695750406,-7.763227609201688,11.96899999998277
313384.7617,-7.450434892245157,-8.939016618513918,-8.689975262940687,-7.894173583390692,11.96999999997206
313384.7627,-5.858928978970057,-7.736925765091638,-7.1648391119361765,-7.3235229001374735,11.971000000019558
313384.7637,-3.570099283683231,-5.790370479189556,-4.923422750123826,-6.139815100944272,11.972000000008848
313384.7647,-0.7787122708205588,-3.280318492088833,-2.1607169878753187,-4.495319975903655,11.972999999998137
313384.7657,2.2634738952444717,-0.44595050902976874,0.8718915477439915,-2.5896138369259596,11.973999999987427
313384.7667,5.272408428113804,2.4390167953061566,3.8911211292072196,-0.6483933307214919,11.974999999976717
313384.7677,7.959863762617864,5.0934735988370345,6.609608771252877,1.1003446730336015,11.976000000024214
313384.7687,10.062201039795553,7.256853050523458,8.764308081110809,2.4503662098430117,11.977000000013504
313384.7697,11.366945508219265,8.715107703123612,10.142677287397888,3.2390892317539266,11.978000000002794
313384.7707,11.734538253070784,9.322162988018553,10.604072919215906,3.3650940632757207,11.978999999992084
313384.7717,11.113095766965843,9.01472592413056,10.094227780021901,2.799481758867494,11.979999999981374
313384.7727,9.544687775016172,7.818977362936963,8.651363874972061,1.5899137237187309,11.980999999970663
313384.7737,7.162470251308328,5.84847123566073,6.403306268614416,-0.1431106688520696,11.98200000001816
313384.7747,4.178904004518589,3.293426633705585,3.555842831235077,-2.217412950954884,11.98300000000745
313384.7757,0.8661622059416472,0.40244362892585606,0.3734315215013217,-4.40666683256274,11.98399999999674
313384.7767,-2.469402678505701,-2.541581321241015,-2.8458926057540235,-6.462602132341252,11.98499999998603
313384.7777,-5.5162761035155885,-5.248992819496494,-5.798987627940318,-8.139711619672017,11.98599999997532
313384.7787,-7.987479027397065,-7.451676909605427,-8.206694045533302,-9.220033177923735,11.987000000022817
313384.7797,-9.648067680423695,-8.92935519975856,-9.840718551326354,-9.535559773887435,11.988000000012107
313384.7807,-10.337763479324177,-9.531295287599976,-10.545696765404195,-8.986050152068188,11.989000000001397
313384.7817,-9.986507944239769,-9.191304245418891,-10.25428380871149,-7.550452837228785,11.989999999990687
313384.7827,-8.621419838652384,-7.934525267120314,-8.99379616179295,-5.290772281470201,11.990999999979977
313384.7837,-6.364463229154535,-5.87535627674033,-6.883747338494036,-2.3479388395324876,11.992000000027474
313384.7847,-3.42103479938682,-3.2066753187236534,-4.124503682057057,1.0699777824175971,11.993000000016764
313384.7857,-0.060558910981372165,-0.18140625110134026,-0.978148908923011,4.706124860577061,11.994000000006054
313384.7867,3.4090461849781013,2.9117933261279725,2.2565971935964635,8.278062833016229,11.994999999995343
313384.7877,6.670573439817605,5.776365035935785,5.272983053812057,11.503595064255997,11.995999999984633
313384.7887,9.427590376932105,8.136501479915701,7.785587886328665,14.12676220287143,11.996999999973923
313384.7897,11.432465514252225,9.763832948840612,9.557604928090706,15.941508910198278,11.99800000002142
313384.7907,12.509661654193701,10.49955505665397,10.423410782295887,16.810749564201235,11.99900000001071
313384.7917,12.572060662858455,10.269846112314166,10.304245489174274,16.678999364917935,12.0
313384.7927,11.628761938900682,9.093075709445582,9.215498388605068,15.577355460779973,12.00099999998929
313384.7937,9.783625002874395,7.078104778321435,7.264911113359408,13.620349240341072,12.00199999997858
313384.7947,7.22472473948028,4.413844219902514,4.641891511867277,10.994974195803913,12.003000000026077
313384.7957,4.205768250483031,1.3510895962213232,1.5989948862199812,7.942947594010103,12.004000000015367
313384.7967,1.0212992634752047,-1.8215998155749311,-1.5726124258975644,4.737915275763195,12.005000000004657
313384.7977,-2.021886009809236,-4.80563124492226,-4.571311268489377,1.6597939445403653,12.005999999993946
313384.7987,-4.634326823984831,-7.321022648404807,-7.114067273843113,-1.031282813934783,12.006999999983236
313384.7997,-6.571616032212783,-9.13317982521215,-8.963526713342548,-3.1189161523456264,12.007999999972526
313384.8007,-7.657566122426387,-10.075210820299139,-9.950545890794377,-4.450002684681019,12.009000000020023
313384.8017,-7.80059335842445,-10.063620548717559,-9.989981473594066,-4.948047693401261,12.010000000009313
313384.8027,-7.0017592386014496,-9.105877159214266,-9.088232421922147,-4.618985688028775,12.010999999998603
313384.8037,-5.353728323436778,-7.299136774572584,-7.3418335260861545,-3.548994483323533,12.011999999987893
313384.8047,-3.030791769063161,-4.820277096019039,-4.927276692613396,-1.8945686827372963,12.012999999977183
313384.8057,-0.27097945836812026,-1.9082384503023262,-2.0830932674055154,0.1341294908148055,12.01400000002468
313384.8067,2.6479450069040755,1.1595797200255178,0.9140149816045223,2.294973007816411,12.01500000001397
313384.8077,5.436218361749236,4.0945413942845414,3.7766307777671027,4.338470821005244,12.01600000000326
313384.8087,7.820794312194754,6.624940752169453,6.234951750028489,6.032836030340918,12.01699999999255
313384.8097,9.572208143891729,8.522351432428158,8.063207386602985,7.187054215448698,12.01799999998184
313384.8107,10.52694509223921,9.62358014900652,9.101568776701376,7.66968972284582,12.018999999971129
313384.8117,10.603118159629805,9.846082617615219,9.271406936829429,7.421593945332377,12.020000000018626
313384.8127,9.80792602223236,9.195345367276945,8.58241504554928,6.461285148299966,12.021000000007916
313384.8137,8.236176175668636,7.763528772974596,7.130914496784156,4.882494672130309,12.021999999997206
313384.8147,6.060042388479852,5.719526841359388,5.089535213717201,2.8441481663066526,12.022999999986496
313384.8157,3.5110919613553775,3.291443522833862,2.689311599225266,0.5537969638895897,12.023999999975786
313384.8167,0.8563820852703506,0.7432308105317724,0.19598325125241733,-1.7538394242098339,12.025000000023283
313384.8177,-1.6289892804293162,-1.6521924746180119,-2.1171392821745805,-3.8410767484787485,12.026000000012573
313384.8187,-3.6901416951385615,-3.640676748878734,-3.9970449592506556,-5.491801615333146,12.027000000001863
313384.8197,-5.118662173756759,-5.012684474537178,-5.236857571435634,-6.5338922817821645,12.027999999991152
313384.8207,-5.774225728319187,-5.624678045121044,-5.697064995088233,-6.857285385296082,12.028999999980442
313384.8217,-5.599420334405361,-5.413929275790845,-5.320025106530663,-6.425877498461031,12.029999999969732
313384.8227,-4.626278764839591,-4.4052739788581095,-4.13629351829303,-5.2820570035963454,12.03100000001723
313384.8237,-2.9738365013621735,-2.709127349954595,-2.262124403661268,-3.5433873366191753,12.03200000000652
313384.8247,-0.836919696076648,-0.5109357355385823,0.11163367247383975,-1.3917359924854704,12.032999999995809
313384.8257,1.5327669257734227,1.9469165165667464,2.738175298542629,0.9441110283477213,12.033999999985099
313384.8267,3.851420257143009,4.3889826768635505,5.339092224076007,3.210665523646193,12.034999999974389
313384.8277,5.8313717506362694,6.534077850740534,7.632059261942449,5.154620563828379,12.036000000021886
313384.8287,7.21001043524966,8.123374861960679,9.35913333698578,6.547969258197093,12.037000000011176
313384.8297,7.776556295628203,8.94651387052745,10.312879193094954,7.210896518658124,12.038000000000466
313384.8307,7.394045334139089,8.863156864784152,10.35774082903046,7.030192123384696,12.038999999989755
313384.8317,6.014347289427971,7.8178588916516265,9.444536667348064,5.971364530414041,12.039999999979045
313384.8327,3.6847104829407358,5.846777205363329,7.6166240155363125,4.083244542806305,12.041000000026543
313384.8337,0.5451498903187559,3.075533949626765,5.007089348097757,1.4945965683500633,12.042000000015832
313384.8347,-3.1831159358268764,-0.2915901293404161,1.8271960510690457,-1.5969683072802037,12.043000000005122
313384.8357,-7.217102907413873,-3.9901083694951183,-1.652825048106032,-4.942734734829267,12.043999999994412
313384.8367,-11.237531660891051,-7.719659045604175,-5.128808290056446,-8.265590903848787,12.044999999983702
313384.8377,-14.91789957866689,-11.171872749649623,-8.291104279863054,-11.285528501790736,12.045999999972992
313384.8387,-17.954372616137018,-14.059089499804703,-10.853708242135276,-13.74548985032527,12.047000000020489
313384.8397,-20.093633959565025,-16.14115550789015,-12.581254778429518,-15.435083318256847,12.048000000009779
313384.8407,-21.15602383329196,-17.24771618743333,-13.311272338785516,-16.209895213933333,12.048999999999069
313384.8417,-21.051761026811494,-17.293860211173634,-12.969548773393779,-16.004554144566885,12.049999999988358
313384.8427,-19.788707293491207,-16.287616311328712,-11.577126559009518,-14.83831041744863,12.050999999977648
313384.8437,-17.4709551564622,-14.328596787010923,-9.248257566467474,-12.812619147109976,12.052000000025146
313384.8447,-14.288407838161126,-11.597941914305794,-6.179523375760505,-10.100990407575656,12.053000000014435
313384.8457,-10.498390352403705,-8.340563639790949,-2.631182679989055,-6.932117439099374,12.054000000003725
313384.8467,-6.4010984270649285,-4.841432704303701,1.097441168089247,-3.5679417064557732,12.054999999993015
313384.8477,-2.3112821353155963,-1.3982279953475,4.696145134696314,-0.2787984631850429,12.055999999982305
313384.8487,1.4710834197372695,1.7069854587399087,7.872875490936014,2.6819386639471494,12.056999999971595
313384.8497,4.6883016304303915,4.234296559192107,10.380797253881797,5.101257194542867,12.058000000019092
313384.8507,7.147984068375665,6.008135025131502,12.040798690196478,6.825694040442657,12.059000000008382
313384.8517,8.739406943674876,6.932966730442713,12.757277194995051,7.774478366648776,12.059999999997672
313384.8527,9.441657305054834,7.001000221471257,12.525713707812917,7.945394428077783,12.060999999986961
313384.8537,9.322842810505055,6.291193535184635,11.43134801701139,7.412848462283655,12.061999999976251
313384.8547,8.53051863949237,4.959705002184723,9.639137974044774,6.318391108953374,12.063000000023749
313384.8557,7.274347428142027,3.222770730756333,7.376036590520009,4.854687607297266,12.064000000013039
313384.8567,5.802768463278186,1.3337327700645527,4.907369019451592,3.2445695777110624,12.065000000002328
313384.8577,4.376036308732958,-0.4434869991664234,2.509663455324589,1.7172816881251947,12.065999999991618
313384.8587,3.2383394537965735,-1.8618272256836852,0.4426302307792749,0.48430703538262304,12.066999999980908
313384.8597,2.5917923150660993,-2.71671643108832,-1.0769412220962375,-0.2828097374101313,12.067999999970198
313384.8607,2.574901128646817,-2.867348716465033,-1.8967944425952186,-0.47042597967224037,12.069000000017695
313384.8617,3.247655137755185,-2.2514956699914777,-1.9442029131636087,-0.03475747275678706,12.070000000006985
313384.8627,4.584733379547784,-0.8923839957026493,-1.2328849043075412,0.993367307421564,12.070999999996275
313384.8637,6.477509485408925,1.1030475998311893,0.13883026285787067,2.511433657468523,12.071999999985565
313384.8647,8.744661825054036,3.5543474085387863,1.9983856598790912,4.355562583404398,12.072999999974854
313384.8657,11.150340239602002,6.225205756438482,4.11688597131523,6.317207058692956,12.074000000022352
313384.8667,13.428087851135247,8.846829546673435,6.232706822301869,8.164565974289387,12.075000000011642
313384.8677,15.308141189265822,11.144733783138244,8.078472992005887,9.666586718520152,12.076000000000931
313384.8687,16.545390887889557,12.866307818688439,9.408720504282414,10.617164578883038,12.076999999990221
313384.8697,16.945212213467563,13.806434002617964,10.025488377070655,10.857120154101267,12.077999999979511
313384.8707,16.38457709056863,13.82862389834479,9.79928800731005,10.29174760417035,12.079000000027008
313384.8717,14.826317419159134,12.879573949445328,8.683351934271425,8.902156299712082,12.080000000016298
313384.8727,12.325078507086294,10.99568557514682,6.719724507472469,6.749234265445471,12.081000000005588
313384.8737,9.024315784788808,8.300881099687546,4.036559882594957,3.9697844174166566,12.081999999994878
313384.8747,5.1445677117781,4.995899516934517,0.8368588971678473,0.7651531212685021,12.082999999984168
313384.8757,0.9640965211591591,1.3400912149327688,-2.6202793809983835,-2.61659037143612,12.083999999973457
313384.8767,-3.2062582326669906,-2.3725335047077833,-6.044076280809657,-5.903228113384821,12.085000000020955
313384.8777,-7.051594586852342,-5.840683170950992,-9.139785423247545,-8.823553576687482,12.086000000010245
313384.8787,-10.282075148195894,-8.783935064312818,-11.636992130438843,-11.132689055811491,12.086999999999534
313384.8797,-12.659841631199205,-10.96892314018799,-13.315731107751585,-12.635107917288902,12.087999999988824
313384.8807,-14.021100905647438,-12.231021337795276,-14.027861447611615,-13.20312522271985,12.088999999978114
313384.8817,-14.291231415084471,-12.489419201133838,-13.711597808665784,-12.789055137481494,12.090000000025611
313384.8827,-13.491434922830388,-11.754132191571514,-12.39776299463357,-11.429845029622415,12.091000000014901
313384.8837,-11.736279808222568,-10.124277171718152,-10.20713485984121,-9.243724626197858,12.092000000004191
313384.8847,-9.222368281418241,-7.77779704057698,-7.339130380170751,-6.419182902680832,12.09299999999348
313384.8857,-6.209224203137337,-4.953653744729854,-4.05291659409484,-3.1973298804375934,12.09399999998277
313384.8867,-2.994256056563807,-1.9282440146477968,-0.6427789102325345,0.15065758124908632,12.09499999997206
313384.8877,0.11577323619885072,1.0116448708136467,2.589860665226978,3.348830365537871,12.096000000019558
313384.8887,2.8339981376566596,3.5966863783884957,5.365054672606713,6.142061861982987,12.097000000008848
313384.8897,4.920583341636965,5.600944781398105,7.450788012073237,8.319476064862414,12.097999999998137
313384.8907,6.205105555566827,6.863347929021244,8.68471007646822,9.73345603074501,12.098999999987427
313384.8917,6.602018017936372,7.302607651218412,8.989031047905108,10.3124132362332,12.099999999976717
313384.8927,6.11770931385427,6.924139217192758,8.37714104642662,10.066109148237475,12.101000000024214
313384.8937,4.848491441333327,5.818319853550119,6.951320857114326,9.083048608832275,12.102000000013504
313384.8947,2.969740557696206,4.150279660007144,4.891784883179992,7.5202392018844355,12.103000000002794
313384.8957,0.7172804498552895,2.142252610716656,2.4381453789813845,5.5863558342545385,12.103999999992084
313384.8967,-1.6371413248750553,0.05024880546457759,-0.13487121008533182,3.5199924425044276,12.104999999981374
313384.8977,-3.8138559307027133,-1.8626302982233347,-2.5450625304989662,1.5651601631740475,12.105999999970663
313384.8987,-5.553984826978728,-3.3535794008383717,-4.531021993260319,-0.0535432026230023,12.10700000001816
313384.8997,-6.646021398275621,-4.225453633152614,-5.87826132206161,-1.1536399740790166,12.10800000000745
313384.9007,-6.947652462031894,-4.347579942260034,-6.4406129565679535,-1.6131160547483971,12.10899999999674
313384.9017,-6.400656349093583,-3.6699313484869465,-6.154804942418974,-1.3825940005380732,12.10999999998603
313384.9027,-5.03739360287752,-2.229230845850185,-5.046771434172908,-0.4901383186755398,12.11099999997532
313384.9037,-2.9782318029751442,-0.1463447343411934,-3.2290736875536554,0.9617772178157881,12.112000000022817
313384.9047,-0.42013688784081865,2.3848173952901126,-0.8896799753544649,2.8068370991545577,12.113000000012107
313384.9057,2.3824675230925587,5.115840923292253,1.7267973129681997,4.831939544979336,12.114000000001397
313384.9067,5.142709010270585,7.767991423906612,4.343566300408323,6.799051736896268,12.114999999990687
313384.9077,7.5696988705090895,10.059693356550174,6.679417906086587,8.469700779936858,12.115999999979977
313384.9087,9.397601463192146,11.734615838520472,8.477053850112076,9.629672614334913,12.117000000027474
313384.9097,10.412483597041374,12.587608498514989,9.529188023118504,10.111465466093899,12.118000000016764
313384.9107,10.4742965736584,12.485929423586215,9.699842031778394,9.812259588340153,12.119000000006054
313384.9117,9.531812126065013,11.383656840446111,8.938721871950913,8.705600127649838,12.119999999995343
313384.9127,7.6290158079003305,9.327832878262509,7.287236402957461,6.84560254012023,12.120999999984633
313384.9137,4.902290966889231,6.455687719127868,4.875533863012144,4.36322027935781,12.121999999973923
313384.9147,1.5686224097930173,2.9831577658414843,1.9108104161159247,1.4548911345611686,12.12300000002142
313384.9157,-2.0940761614883883,-0.8142422019177439,-1.3420011416621427,-1.6353743066529285,12.12400000001071
313384.9167,-5.772638280374553,-4.626388115457652,-4.585307402031065,-4.638754121204327,12.125
313384.9177,-9.14786459235683,-8.136981638277883,-7.517273244781789,-7.287039694908226,12.12599999998929
313384.9187,-11.924478271095245,-11.05273526446951,-9.860830810281762,-9.338270574183896,12.12699999997858
