TimeStamp,ECR,FCR,ECU,FCU,time_index
313393.7917,29.563569490030503,26.06866984683317,25.60402381825294,29.48191455343307,21.0
313393.7927,27.26980225033346,24.95008950515693,23.15548934029219,27.72573863809481,21.00099999998929
313393.7937,24.177276078861183,23.092675006074792,20.033484353985802,25.266853849996334,21.00199999997858
313393.7947,20.578250107931172,20.749913745215427,16.52768565748579,22.35418904705601,21.003000000026077
313393.7957,16.78342793067361,18.193426510281903,12.942308267749516,19.24983924503231,21.004000000015367
313393.7967,13.092488064121527,15.685727343657069,9.567267348877708,16.204007851920245,21.005000000004657
313393.7977,9.76642078372875,13.454598430436612,6.651270756913025,13.431833096564464,21.005999999993946
313393.7987,7.00433230187868,11.67158019892453,4.3794350407746325,11.094338140320836,21.006999999983236
313393.7997,4.926920675498073,10.436652853664642,2.8575600559439813,9.285320209594373,21.007999999972526
313393.8007,3.5681579898456235,9.770559902977578,2.1045327363076893,8.025394008644621,21.009000000020023
313393.8017,2.875896335814132,9.615458793797673,2.0535245319655475,7.263688031199817,21.010000000009313
313393.8027,2.7212312024233,9.843753984002129,2.5617787842105777,6.886929848545297,21.010999999998603
313393.8037,2.9155918671737604,10.274155277766658,3.427939058729107,6.734923035362159,21.011999999987893
313393.8047,3.2337688166040928,10.693288791610643,4.415129995563802,6.620786134568689,21.012999999977183
313393.8057,3.4405074342101383,10.880639627497755,5.277440875576851,6.3538549437501874,21.01400000002468
313393.8067,3.317951799567563,10.63427782127544,5.787133611092093,5.7628893028480785,21.01500000001397
313393.8077,2.6911459528109987,9.794744290737967,5.75983310864754,4.71719975902311,21.01600000000326
313393.8087,1.448999492183426,8.26465837184254,5.07516479277742,3.1435202129412216,21.01699999999255
313393.8097,-0.44142008529289134,6.022034644069172,3.6907608398484406,1.0368788947690288,21.01799999998184
313393.8107,-2.9287393895138445,3.1259219723457723,1.6482181653230803,-1.5356804075358106,21.01899999997113
313393.8117,-5.879934853795903,-0.28625962776713487,-0.929607806495349,-4.438961240284937,21.020000000018626
313393.8127,-9.091574519178135,-4.009483692738275,-3.8497279772693522,-7.480738426654508,21.021000000007916
313393.8137,-12.308572261803047,-7.78897687103323,-6.867480019659095,-10.42909347881129,21.021999999997206
313393.8147,-15.248630093657713,-11.34345877614835,-9.710510649401568,-13.03428793027628,21.022999999986496
313393.8157,-17.629972518378032,-14.391507651101362,-12.10591364476519,-15.053041137600408,21.023999999975786
313393.8167,-19.19964064339666,-16.67847857778982,-13.80783809098963,-16.27282866380841,21.025000000023283
313393.8177,-19.75954601070565,-18.001334801804088,-14.62282623450919,-16.533801205176477,21.026000000012573
313393.8187,-19.187691740394857,-18.228945901944325,-14.43035513570172,-15.746143970086159,21.027000000001863
313393.8197,-17.452431406201264,-17.315840269661557,-13.196520067190571,-13.901131095905916,21.027999999991152
313393.8207,-14.618308877492419,-15.308031329740874,-10.979464941348834,-11.074736650545734,21.028999999980442
313393.8217,-10.842839370574412,-12.34030533185385,-7.925970604790742,-7.423383652177949,21.029999999969732
313393.8227,-6.364473209826337,-8.625188180613529,-4.259476669094852,-3.1721749088882087,21.03100000001723
313393.8237,-1.4828430444383855,-4.434618428755957,-0.260651870990981,1.4033202951433414,21.03200000000652
313393.8247,3.466851632023985,-0.07606394067990696,3.7576405504983446,6.000023049874545,21.03299999999581
313393.8257,8.142895617346174,4.134638757725968,7.478584100800729,10.312882985333484,21.0339999999851
313393.8267,12.226780632300104,7.901123879971458,10.610140518340538,14.060584119751324,21.03499999997439
313393.8277,15.450767323541918,10.972349755417621,12.911502289257163,17.008988162965835,21.036000000021886
313393.8287,17.620662437232877,13.163995109655826,14.21471470439215,18.990104915244554,21.037000000011176
313393.8297,18.63165051123943,14.373361932869928,14.439383145945323,19.914814222852556,21.038000000000466
313393.8307,18.475693319296965,14.586381959982228,13.599052334102188,19.778171180227144,21.038999999989755
313393.8317,17.239828646049553,13.87609378958135,11.798653623698918,18.656846486472663,21.039999999979045
313393.8327,15.095582761363064,12.392789021806337,9.223284992604224,16.699016604815252,21.041000000026543
313393.8337,12.280571879555943,10.346837166623844,6.119431161115318,14.107749030334492,21.042000000015832
313393.8347,9.074122776104657,7.985911080195395,2.7704658814047822,11.119555109275124,21.043000000005122
313393.8357,5.769317838888682,5.568877672879947,-0.5311670245098687,7.980245214004868,21.043999999994412
313393.8367,2.6442090348631204,3.3389394973101876,-3.5123770586615883,4.9204735827965775,21.044999999983702
313393.8377,-0.06498441062181816,1.4986802283790732,-5.945683408984199,2.1333783001400737,21.04599999997299
313393.8387,-2.186085023336867,0.18947448026681907,-7.670749061236316,-0.2434957732752615,21.04700000002049
313393.8397,-3.6264235204990434,-0.5227111706547795,-8.609103351702606,-2.1402351814443445,21.04800000000978
313393.8407,-4.380083538858356,-0.6537311042331292,-8.770633556220021,-3.559404676723875,21.04899999999907
313393.8417,-4.526259492417246,-0.2992611139460817,-8.251234383529578,-4.573265769892401,21.04999999998836
313393.8427,-4.218940283383125,0.37541047641597414,-7.221871719987239,-5.313687537771684,21.05099999997765
313393.8437,-3.668987172385312,1.1527886546636625,-5.910158718293999,-5.955794925273453,21.052000000025146
313393.8447,-3.120423431505713,1.7860524696003424,-4.576275933916448,-6.697020654981524,21.053000000014435
313393.8457,-2.823322954422776,2.0251481174930097,-3.4856208950769174,-7.733682929102684,21.054000000003725
313393.8467,-3.0060189506239188,1.643513390448325,-2.8808920879662296,-9.237457629512805,21.054999999993015
313393.8477,-3.849419518698882,0.4627874032644023,-2.9563666301024893,-11.334126539008675,21.055999999982305
313393.8487,-5.4660079405455315,-1.6269459530415151,-3.8369146700981087,-14.086761025245911,21.056999999971595
313393.8497,-7.885642597881634,-4.653397327339392,-5.56382807771817,-17.48506552021765,21.058000000019092
313393.8507,-11.049600063644334,-8.556177610313998,-8.0888719814699,-21.4419997781901,21.059000000008382
313393.8517,-14.813491212443516,-13.189385025930992,-11.277160819882065,-25.79808279625412,21.05999999999767
313393.8527,-18.958804158327283,-18.3324596627995,-14.918594947829506,-30.333024786573894,21.06099999998696
313393.8537,-23.211975618046175,-23.70828349218524,-18.746754370592836,-34.78361099831193,21.06199999997625
313393.8547,-27.26914772269616,-29.00679607597527,-22.463415166260692,-38.86614345034587,21.06300000002375
313393.8557,-30.824203587971347,-33.91185784016149,-25.766303237149167,-42.30129438806837,21.06400000001304
313393.8567,-33.597347553251495,-38.12877667299695,-28.37738314536934,-44.83898289046375,21.06500000000233
313393.8577,-35.36143713618463,-41.40985057101587,-30.068927895423606,-46.28087729072431,21.065999999991618
313393.8587,-35.96348925669298,-43.57547512286118,-30.684833572181176,-46.498351773608995,21.066999999980908
313393.8597,-35.33925204008743,-44.52880038710524,-30.15510918120294,-45.4441635269995,21.067999999970198
313393.8607,-33.51940951716303,-44.26255427534501,-28.502140964342846,-43.15672421190281,21.069000000017695
313393.8617,-30.62680345640622,-42.85741670199369,-25.83813612903832,-39.75655677036395,21.070000000006985
313393.8627,-26.864934221539997,-40.47215514411173,-22.35401420964224,-35.43528549613474,21.070999999996275
313393.8637,-22.498854828875107,-37.3265367374028,-18.300850444604052,-30.438229804620352,21.071999999985565
313393.8647,-17.83031566970966,-33.678735682559946,-13.965702588981836,-25.042289638877392,21.072999999974854
313393.8657,-13.169578755254722,-29.799488552169382,-9.644199230763665,-19.531262650447097,21.07400000002235
313393.8667,-8.806644778164586,-25.945561777163494,-5.612580426358195,-14.17097612554256,21.07500000001164
313393.8677,-4.984691949953944,-22.335154682503923,-2.101929779088478,-9.186626522415102,21.07600000000093
313393.8687,-1.8783070022810076,-19.12766226747649,0.722883621960558,-4.7444956677234105,21.07699999999022
313393.8697,0.42138265572931677,-16.409784170370123,2.777502889989387,-0.9397771981369707,21.07799999997951
313393.8707,1.9132446682597146,-14.189333016672556,4.064239188499997,2.208357525825076,21.07900000002701
313393.8717,2.6837326447858034,-12.397328902527454,4.669508689456522,4.754038825029224,21.080000000016298
313393.8727,2.895797842584374,-10.898142464230537,4.752834352264273,6.814661951459042,21.081000000005588
313393.8737,2.7702394964484656,-9.506647873521066,4.528528801932626,8.554592338261783,21.081999999994878
313393.8747,2.56135442463015,-8.010647972333645,4.24189719969479,10.164286042200645,21.082999999984168
313393.8757,2.5293069325827817,-6.19630544885678,4.142340686376394,11.83694873381281,21.083999999973457
313393.8767,2.9119630710906024,-3.874008581078026,4.456048497611294,13.74509770399882,21.085000000020955
313393.8777,3.8989871966990304,-0.9020479399164842,5.361009907694976,16.019399670835,21.086000000010245
313393.8787,5.61077807381601,2.794312937614336,6.96685137700791,18.731931705357095,21.086999999999534
313393.8797,8.084347870639968,7.210344364748782,9.301531625103097,21.88557525578209,21.087999999988824
313393.8807,11.267566555464875,12.257265101904062,12.30625399973341,25.410646716691485,21.088999999978114
313393.8817,15.02237291222625,17.766120714936733,15.839147326627433,29.169151573149037,21.09000000002561
313393.8827,19.13667198623106,23.499849852148778,19.687402528026258,32.96629301160786,21.0910000000149
313393.8837,23.343783523950062,29.172454642298444,23.586717334612093,36.56814419452439,21.09200000000419
313393.8847,27.347560687643398,34.4734865104544,27.246177274562292,39.72377705715528,21.09299999999348
313393.8857,30.85073612737989,39.09552608769622,30.376158924834133,42.18969021453694,21.09399999998277
313393.8867,33.58372865040385,42.762028056525864,32.71653453768807,43.75413890831905,21.09499999997206
313393.8877,35.33109023279972,45.2528493367577,34.062416021312366,44.25896486043459,21.096000000019558
313393.8887,35.95299553003659,46.42498767097432,34.28490530096541,43.616754469816065,21.097000000008848
313393.8897,35.399652919740966,46.22650760352854,33.34479533506179,41.82159793796721,21.097999999998137
313393.8907,33.71720108784688,44.70227865389171,31.297845230296694,38.952336623909446,21.098999999987427
313393.8917,31.044481483577137,41.990933377954114,28.291067921388574,35.16791141443109,21.099999999976717
313393.8927,27.600963979081204,38.313294948696175,24.5503403401515,30.695190415441132,21.101000000024214
313393.8937,23.666964147476538,33.95334299953786,20.360488894337472,25.8103850652335,21.102000000013504
313393.8947,19.55804157967721,29.23350305910292,16.039735130557077,20.81578837949822,21.103000000002794
313393.8957,15.596036182813744,24.486589226049404,11.910936159514945,16.014026302842307,21.103999999992084
313393.8967,12.079527941085443,20.027048827109414,8.272368035401769,11.682258206816178,21.104999999981374
313393.8977,9.256563019045744,16.124220665572395,5.370847092583386,8.048771291476536,21.105999999970663
313393.8987,7.302269685552588,12.980119078073809,3.379759576370251,5.274184951547226,21.10700000001816
313393.8997,6.303512717424572,10.713813916075079,2.3840955829804065,3.439037193508634,21.10800000000745
313393.9007,6.252051040684867,9.35383494302604,2.373905535954638,2.5389091127524663,21.10899999999674
313393.9017,7.046837137453392,8.839250595534903,3.2467822144992997,2.4875152611099485,21.10999999998603
313393.9027,8.505208829464948,9.029231498184023,4.819098154782642,3.127418415422086,21.11099999997532
313393.9037,10.381861088538212,9.72009032355085,6.844882145568813,4.247291781051426,21.112000000022817
313393.9047,12.393731695910438,10.668071215032988,9.040481936336485,5.60402170612206,21.113000000012107
313393.9057,14.248363357964498,11.615613813975232,11.112604846324778,6.9474809036055225,21.114000000001397
313393.9067,15.672971895325695,12.31849203342995,12.787007661241578,8.045551027007258,21.114999999990687
313393.9077,16.441387665284264,12.571157314502004,13.835052998800526,8.706958554402705,21.115999999979977
313393.9087,16.396251315479127,12.227806512402038,14.09556618201524,8.799710548084379,21.117000000027474
313393.9097,15.464314152251818,11.21712662942938,13.489893075343023,8.26335501055279,21.118000000016764
313393.9107,13.663371764234066,9.549299598877484,12.028729454022706,7.113901238418367,21.119000000006054
313393.9117,11.100180584286363,7.314618105992983,9.810100576238138,5.44095893342998,21.119999999995343
313393.9127,7.959590416404165,4.6738926058546895,7.008736578684156,3.3974200374333727,21.120999999984633
313393.9137,4.4859851849889925,1.841638967946534,3.8579303162315215,1.1827394453622553,21.121999999973923
313393.9147,0.9588752942144407,-0.9362536830920698,0.6256971401552832,-0.9785016701297509,21.12300000002142
313393.9157,-2.334945333073825,-3.408133758065307,-2.412390657261265,-2.8606045203326507,21.12400000001071
313393.9167,-5.129931774747513,-5.34291519103837,-5.0010022778737335,-4.260937216587765,21.125
313393.9177,-7.208201031825221,-6.554493322638359,-6.930732025446556,-5.021883574789451,21.12599999998929
313393.9187,-8.421228040599267,-6.921810189288628,-8.059134652746438,-5.0483658203990105,21.12699999997858
313393.9197,-8.704693534727218,-6.402561152378085,-8.325041485429267,-4.319186759824436,21.128000000026077
313393.9207,-8.085026953701584,-5.039162309349264,-7.754751420903421,-2.891044874772825,21.129000000015367
313393.9217,-6.677004161879811,-2.9563609258764716,-6.459493147297779,-0.8947959883703851,21.130000000004657
313393.9227,-4.672638342613816,-0.35069422355671437,-4.624415573529258,1.4757029423409473,21.130999999993946
313393.9237,-2.3224569448977155,2.5271955776191666,-2.49019805368668,3.9811033611924898,21.131999999983236
313393.9247,0.08899572305336001,5.395678770331069,-0.32909867870259557,6.358738715071689,21.132999999972526
313393.9257,2.271024841002785,7.968441955117842,1.5821935377860914,8.347313548047177,21.134000000020023
313393.9267,3.955285378616147,9.981417381517387,2.9902219805764965,9.711710494455879,21.135000000009313
313393.9277,4.922120210172667,11.21771396031249,3.69020948110122,10.265503152301502,21.135999999998603
313393.9287,5.022153021286782,11.528120322059634,3.5467746786772003,9.888984303407417,21.136999999987893
313393.9297,4.191019363516203,10.845182741083407,2.507867813313473,8.54095456705315,21.137999999977183
313393.9307,2.4557930093326203,9.189488837648822,0.6105421459027545,6.263123600362853,21.13900000002468
313393.9317,-0.06752017577725025,6.667550001472177,-2.022020568475351,3.1766949013230397,21.14000000001397
313393.9327,-3.1851722767549937,3.4614966274144257,-5.191952498501472,-0.5285342897919247,21.14100000000326
313393.9337,-6.644447052212959,-0.18840006364946515,-8.645499351564409,-4.6114990031432175,21.14199999999255
313393.9347,-10.158173642646185,-4.006666068502369,-12.097342597539871,-8.80193611291749,21.14299999998184
313393.9357,-13.432574217271423,-7.708777689528455,-15.258065659767576,-12.825056815708749,21.14399999997113
313393.9367,-16.195713394151795,-11.027974123827555,-17.86207468119375,-16.42643284819345,21.145000000018626
313393.9377,-18.223759333044594,-13.740114213472559,-19.69323760932071,-19.39469271023002,21.146000000007916
313393.9387,-19.362482299188905,-15.684158891512126,-20.605727066456268,-21.57984474085345,21.146999999997206
313393.9397,-19.541885029459085,-16.776294961803266,-20.538021137026295,-22.905477788330753,21.147999999986496
313393.9407,-18.78253443280871,-17.01634446632457,-19.518685939997017,-23.373694689768502,21.148999999975786
313393.9417,-17.192979797661728,-16.48586522507086,-17.663369057359546,-23.062349402668293,21.150000000023283
313393.9427,-14.958518763283282,-15.338167368111709,-15.163294648775507,-22.114915117994496,21.151000000012573
313393.9437,-12.322422911089538,-13.78126732395179,-12.266384911900525,-20.724033769332497,21.152000000001863
313393.9447,-9.5614765003872,-12.055496501906333,-9.252856663016894,-19.110416083966513,21.152999999991152
313393.9457,-6.95824182349337,-10.408008414973123,-6.407685143932374,-17.49921501319862,21.153999999980442
313393.9467,-4.7727878876495495,-9.066733434862055,-3.9926363206439324,-16.096239558456134,21.154999999969732
313393.9477,-3.2166738239425805,-8.216384632619944,-2.2206134578119876,-15.066386776263954,21.15600000001723
313393.9487,-2.4317590561515736,-7.978915757934654,-1.234839075299203,-14.516446113022145,21.15700000000652
313393.9497,-2.4759401651727706,-8.400393059672185,-1.094921336159017,-14.48399421473371,21.15799999999581
313393.9507,-3.3172356591269048,-9.445609334240158,-1.7711805455944534,-14.93349285427941,21.1589999999851
313393.9517,-4.836820874002978,-11.001003365552114,-3.1478025727777723,-15.759987144964088,21.15999999997439
313393.9527,-6.840736129946721,-12.885625852812057,-5.034520770364961,-16.80004610184981,21.161000000021886
313393.9537,-9.079138134925117,-14.869094727486114,-7.18569105867521,-17.84886712565573,21.162000000011176
313393.9547,-11.271221052696793,-16.694786904241845,-9.324898240174965,-18.681851005693364,21.163000000000466
313393.9557,-13.133372556424764,-18.105988514180407,-11.17268654308081,-19.078505137424052,21.163999999989755
313393.9567,-14.407806681618217,-18.872423387691484,-12.474697361181489,-18.846294133686026,21.164999999979045
313393.9577,-14.888861270558976,-18.814530082521568,-13.027452689504441,-17.842052570420748,21.166000000026543
313393.9587,-14.444368823970889,-17.823066454599473,-12.699248413453326,-15.988804996755979,21.167000000015832
313393.9597,-13.0299843117184,-15.87206773016874,-11.44409553060633,-13.28628127473639,21.168000000005122
313393.9607,-10.695035795537644,-13.02382598686547,-9.307323414740532,-9.814027656541025,21.168999999994412
313393.9617,-7.579287124849564,-9.425333469313841,-6.422271430407379,-5.726735973982781,21.169999999983702
313393.9627,-3.900886201128345,-5.296463767386313,-2.9983642902801755,-1.2421743266726484,21.17099999997299
313393.9637,0.0633688950456491,-0.9109723889466477,0.6982923611043849,3.3771717598067568,21.17200000002049
313393.9647,4.0035640751688435,3.4278972894574786,4.3699287300264835,7.847019649699676,21.17300000000978
313393.9657,7.6055547670131585,7.414884313413173,7.715323298611274,11.886591463244674,21.17399999999907
313393.9667,10.580424579897876,10.770630255690918,10.458480173546423,15.243877330773437,21.17499999998836
313393.9677,12.691679672034764,13.267369469805107,12.3749927039904,17.718435013890815,21.17599999997765
313393.9687,13.777558043235567,14.749917014488846,13.31353758365557,19.179532151939178,21.177000000025146
313393.9697,13.766304451450356,15.149929588307332,13.210415613912273,19.577882485647407,21.178000000014435
313393.9707,12.682941993603913,14.49205995401662,12.095730305266898,18.94984308873748,21.179000000003725
313393.9717,10.64689427280293,12.891405193992208,10.090607640267441,17.413665985715035,21.179999999993015
313393.9727,7.860697268754016,10.542487923505787,7.395730322285146,15.158163799565408,21.180999999982305
313393.9737,4.590901251716128,7.700825702000247,4.272302761826379,12.424880586249541,21.181999999971595
313393.9747,1.1430164230869022,4.658857898501418,1.0172966427932515,9.485484481945036,21.183000000019092
313393.9757,-2.1670719074174136,1.7185416909446318,-2.0646203828950216,6.616557269046037,21.184000000008382
313393.9767,-5.042457485320094,-0.8367530635510156,-4.689752341013071,4.074202816556013,21.18499999999767
313393.9777,-7.232509430192753,-2.768357556549604,-6.621865997761134,2.0709075934594536,21.18599999998696
313393.9787,-8.555492826464011,-3.903932295928693,-7.693950502156901,0.7568611198546824,21.18699999997625
313393.9797,-8.914359582006416,-4.152556119897631,-7.823157774878692,0.2075044377044597,21.18800000002375
313393.9807,-8.304228362232463,-3.5118611774671815,-7.017505848277614,0.4184635105001229,21.18900000001304
313393.9817,-6.810888129504465,-2.0665744522743976,-5.3737347259041055,1.3083016794260887,21.19000000000233
313393.9827,-4.600538514742142,0.021337560375751685,-3.066569925568205,2.728761570413119,21.190999999991618
313393.9837,-1.9018358965374436,2.5299092421106413,-0.33048796282524745,4.481436790872885,21.191999999980908
313393.9847,1.0179370332425621,5.200074660909891,2.5641914612667542,6.339188684202247,21.192999999970198
313393.9857,3.8801914619313806,7.761953199034652,5.338511284088282,8.070164341203105,21.194000000017695
313393.9867,6.4231221145702175,9.961928305672023,7.732688835165082,9.462023763414463,21.195000000006985
313393.9877,8.427780405487967,11.587857611442343,9.531789179274732,10.343970667727856,21.195999999996275
313393.9887,9.739553437009842,12.489944914586761,10.586732879235363,10.60440405951133,21.196999999985565
313393.9897,10.28293282612973,12.59523803842256,10.828576099192258,10.202444426878873,21.197999999974854
313393.9907,10.068126730409968,11.914348577270234,10.274668184623241,9.172196312114343,21.19900000002235
313393.9917,9.18887969798852,10.53975802158594,9.026095605360018,7.61932843192872,21.20000000001164
313393.9927,7.8117382774523,8.635904304154385,7.256682476280532,5.710312862937771,21.20100000000093
313393.9937,6.157849802777353,6.422052130361419,5.194652192579713,3.6553914905338076,21.20199999999022
313393.9947,4.47912386601914,4.149660267069508,3.0987801099867482,1.6869596410863352,21.20299999997951
313393.9957,3.0311476879212833,2.0764997733610677,1.231412433106269,0.035512560000915086,21.20400000002701
313393.9967,2.0455725727346263,0.4400960568315715,-0.168962012149077,-1.0944546013206489,21.205000000016298
313393.9977,1.704746694607639,-0.5668665100085588,-0.9128532903179607,-1.5461924877628994,21.206000000005588
313393.9987,2.1211537073871933,-0.816732209054919,-0.8801132330717419,-1.2279139639827648,21.206999999994878
313393.9997,3.323748075247173,-0.26064244662382907,-0.033437064413609406,-0.12374608809483868,21.207999999984168
313394.0007,5.252602396947653,1.0654948437187297,1.5763480930531208,1.7027067519606822,21.208999999973457
313394.0017,7.762465498605312,3.0434476741562766,3.813773214535282,4.112590894651492,21.210000000020955
313394.0027,10.634952725445663,5.483299699663701,6.470698080006584,6.903462379073025,21.211000000010245
313394.0037,13.598237729685062,8.1412658698042,9.285629663434458,9.827287983396305,21.211999999999534
313394.0047,16.352371785224825,10.742956128577317,11.968529810710491,12.613076283650429,21.212999999988824
313394.0057,18.597795313855165,13.009821919833595,14.228709521609897,14.991969931959119,21.213999999978114
313394.0067,20.064282168601835,14.686204930927719,15.803097431677118,16.722384802551446,21.21500000002561
313394.0077,20.53750237933642,15.564345122389545,16.482125488137783,17.612771426200485,21.2160000000149
313394.0087,19.880609262918558,15.504901762997905,16.130699924827223,17.539800326609978,21.21700000000419
313394.0097,18.048730844298188,14.450977623528221,14.70219865018256,16.460213453614802,21.21799999999348
313394.0107,15.094927367120048,12.434269868599769,12.24411097312557,14.415195871603068,21.21899999998277
313394.0117,11.1669998644306,9.57273940159018,8.894746332236753,11.526845436913577,21.21999999997206
313394.0127,6.495419013015341,6.060018125583519,4.8713061612049575,7.987082703864896,21.221000000019558
313394.0137,1.373502498706674,2.147579628914878,0.45045243667183965,4.040074066534784,21.222000000008848
313394.0147,-3.868280994262031,-1.8785958188216003,-4.056764246321877,-0.04013317013673689,21.222999999998137
313394.0157,-8.891435502584754,-5.724595467709214,-8.333206343260585,-3.974605519520433,21.223999999987427
313394.0167,-13.379213709299869,-9.115807575315706,-12.084457140990462,-7.504740844953204,21.224999999976717
313394.0177,-17.064209594614784,-11.822173639027502,-15.06536366869496,-10.41528789341942,21.226000000024214
313394.0187,-19.751147956885276,-13.679016763062766,-17.101766560491285,-12.552969216168004,21.227000000013504
313394.0197,-21.332720975826255,-14.601440455117014,-18.105339815622564,-13.838944995819105,21.228000000002794
313394.0207,-21.797000354385876,-14.590924995450246,-18.080136725943017,-14.27396241719165,21.228999999992084
313394.0217,-21.22577386809713,-13.733515080063016,-17.120247866351445,-13.935753650095652,21.229999999981374
313394.0227,-19.78403712741242,-12.18981739010972,-15.398843750864716,-12.969004741392956,21.230999999970663
313394.0237,-17.70172880220164,-10.177829071512308,-13.14971375455201,-11.568943296550632,21.23200000001816
313394.0247,-15.249546719972527,-7.9503190717965655,-10.643142129810652,-9.960213692285299,21.23300000000745
313394.0257,-12.71125004889898,-5.769015112788214,-8.158510109551505,-8.373163959309748,21.23399999999674
313394.0267,-10.355183949024852,-3.878157748565705,-5.956326641460948,-7.019913947529417,21.23499999998603
313394.0277,-8.407825576223429,-2.4800392755865293,-4.252438680545751,-6.07258610979771,21.23599999997532
313394.0287,-7.031938457782839,-1.7149438321066286,-3.1969506128628016,-5.645857353016949,21.237000000022817
313394.0297,-6.3114572229944725,-1.64746577920774,-2.859913159920665,-5.785555087634874,21.238000000012107
313394.0307,-6.244552465991608,-2.2605496970356778,-3.22517118470669,-6.464415900172233,21.239000000001397
313394.0317,-6.7455124201027985,-3.4578294750523195,-4.192953122377239,-7.585410853698888,21.239999999990687
313394.0327,-7.655204180952722,-5.074021428677673,-5.590921534199353,-8.992287736874678,21.240999999979977
313394.0337,-8.759028385904386,-6.892328120867122,-7.192569310163221,-10.486261935987898,21.242000000027474
313394.0347,-9.81054096649266,-8.667114213285453,-8.74112131907577,-11.847174852746413,21.243000000016764
313394.0357,-10.558356545747849,-10.149591723434426,-9.976557991268036,-12.856992378489792,21.244000000006054
313394.0367,-10.77362510800992,-11.113951191215902,-10.663068770899494,-13.323279951171932,21.244999999995343
313394.0377,-10.275318346280422,-11.381327213485449,-10.614199893999581,-13.100288554631254,21.245999999984633
313394.0387,-8.950779882472634,-10.839196493527973,-9.713186811100956,-12.105518051733283,21.246999999973923
313394.0397,-6.769462808741126,-9.454253541870527,-7.9264346099882035,-10.330067797273479,21.24800000002142
313394.0407,-3.7884524454729034,-7.277449682883811,-5.308783564356046,-7.841696035093775,21.24900000001071
313394.0417,-0.14918541797383697,-4.440652244211671,-2.0000052837607583,-4.780229054471298,21.25
313394.0427,3.93435195465397,-1.1452070178843041,1.7871615077409786,-1.3457176964008446,21.25099999998929
313394.0437,8.194818233600932,2.3565128961757305,5.786292592964596,2.2195419281456448,21.25199999997858
313394.0447,12.33624228379594,5.784793598183094,9.702011897392346,5.65339560629282,21.253000000026077
313394.0457,16.06186573441569,8.859202142724046,13.23777186186248,8.698455681257848,21.254000000015367
313394.0467,19.10237405964295,11.32554640939537,16.123971001042516,11.126562655271524,21.255000000004657
313394.0477,21.241741466832764,12.980533234478036,18.143660428509072,12.760688363592381,21.255999999993946
313394.0487,22.338141357333633,13.691701085195378,19.153322000389917,13.492125713254557,21.256999999983236
313394.0497,22.33785162319639,13.410657737981644,19.096678631909658,13.291262323951361,21.257999999972526
313394.0507,21.280765749534588,12.178301468982177,18.010175531421186,12.2108556820007,21.259000000020023
313394.0517,19.29693982257787,10.121482963705871,16.01958317940952,10.381455064588769,21.260000000009313
313394.0527,16.594481793300833,7.441398434823213,13.328039319518517,7.999379379628128,21.260999999998603
313394.0537,13.439936772867453,4.394810827745259,10.196683147210301,5.3083854659145375,21.261999999987893
313394.0547,10.1330575901537,1.2698965907915944,6.919758381854321,2.5767773039745103,21.262999999977183
313394.0557,6.978401126391187,-1.6409583102735952,3.796602101066484,0.07215267944721147,21.26400000002468
313394.0567,4.256503894524176,-4.068789223984921,1.103240168959794,-1.9637836095530872,21.26500000001397
313394.0577,2.197434133951143,-5.79344183021209,-0.9336519894522983,-3.3379147558109192,21.26600000000326
313394.0587,0.9592878950570006,-6.664265946577938,-2.1578963626910284,-3.923729899499422,21.26699999999255
313394.0597,0.6137155464384147,-6.6141151363574675,-2.498019103521806,-3.672932575264021,21.26799999998184
313394.0607,1.1398798197371116,-5.66530243445831,-1.9731482262168527,-2.6195286620557576,21.26899999997113
313394.0617,2.4274238970059714,-3.9269434151416394,-0.6900463003903912,-0.8760123980260665,21.270000000018626
313394.0627,4.288148587020285,-1.5839541792338956,1.1684107543645406,1.3779645068412683,21.271000000007916
313394.0637,6.475247360295616,1.1212179364937673,3.362161303519368,3.9133269909148374,21.271999999997206
313394.0647,8.708210117611669,3.9123480575730762,5.618420776615473,6.473980572488735,21.272999999986496
313394.0657,10.700953282439553,6.50635785924629,7.659267885488701,8.801701215168169,21.273999999975786
313394.0667,12.190419323323797,8.640790575960217,9.229638459686564,10.661089962262581,21.275000000023283
313394.0677,12.962843971955577,10.099167459115145,10.122973045325732,11.862170108891114,21.276000000012573
313394.0687,12.875118679606114,10.731766443575689,10.201996213194567,12.278439814286168,21.277000000001863
313394.0697,11.869156903333996,10.46981364631465,9.412584488393977,11.858641299448298,21.277999999991152
313394.0707,9.977858644423076,9.33172380096432,7.789359083401704,10.631125219153681,21.278999999980442
313394.0717,7.322091227322381,7.420803720308067,5.452452704165533,8.700415007211893,21.279999999969732
313394.0727,4.09898505307604,4.914667333015918,2.5957669982422176,6.2363399127013786,21.28100000001723
313394.0737,0.5626948003758405,2.0474202182844774,-0.5321262164266984,3.45683233935246,21.28200000000652
313394.0747,-3.000484107204614,-0.9136232122205907,-3.652562928524609,0.606103868273366,21.28299999999581
313394.0757,-6.300199424202175,-3.6943945397978677,-6.484426886163347,-2.0696355304359533,21.2839999999851
313394.0767,-9.070566722286754,-6.041095610309566,-8.772130750599882,-4.346513118754509,21.28499999997439
313394.0777,-11.096329928023449,-7.745137400688824,-10.3111806691067,-6.0449802418927545,21.286000000021886
313394.0787,-12.234082556383289,-8.663546280954982,-10.968799805111104,-7.047281142520164,21.287000000011176
313394.0797,-12.426456497480793,-8.73283766375665,-10.69756734169407,-7.308681778470301,21.288000000000466
313394.0807,-11.70787269985149,-7.974999938965516,-9.540711193917275,-6.861353121716871,21.288999999989755
313394.0817,-10.201273863193375,-6.495007245884249,-7.628508543705826,-5.810528572496733,21.289999999979045
313394.0827,-8.10614260209583,-4.470112091114093,-5.166118606664692,-4.323317921374785,21.291000000026543
313394.0837,-5.678963087561902,-2.131976566726172,-2.414011648025022,-2.6112859420531844,21.292000000015832
313394.0847,-3.2080262986891417,0.2565951389500852,0.3371149624675415,-0.908521005285952,21.293000000005122
313394.0857,-0.9850360484779122,2.428029071141433,2.794500084464974,0.5526325604189409,21.293999999994412
313394.0867,0.7237097365933679,4.136858462156772,4.691822365733133,1.5657694018606716,21.294999999983702
313394.0877,1.7037416249475594,5.184453636019473,5.815266498169232,1.9721375775667576,21.29599999997299
313394.0887,1.8138536329719992,5.439161760221459,6.024607437611721,1.6777024575787245,21.29700000002049
313394.0897,1.000441802293631,4.849861613272414,5.2672492334402055,0.6638413982803495,21.29800000000978
313394.0907,-0.6966729612422802,3.4515827230678275,3.5838382044960735,-1.0094284535399354,21.29899999999907
313394.0917,-3.1475284356454933,1.3626153488993857,1.104888398961707,-3.2080567036719687,21.29999999998836
313394.0927,-6.1441144255161015,-1.22662818645628,-1.9612692314429985,-5.736000088007944,21.30099999997765
313394.0937,-9.420120120944235,-4.071930971133675,-5.348058963552629,-8.35356545008614,21.302000000025146
313394.0947,-12.676432439077484,-6.898992523776862,-8.755867474602383,-10.800302151786397,21.303000000014435
313394.0957,-15.609919962635098,-9.430245676767047,-11.880452114428138,-12.82023856865115,21.304000000003725
313394.0967,-17.94271457429241,-11.412154391153285,-14.44180569085508,-14.187019319018443,21.304999999993015
313394.0977,-19.44915173400053,-12.640325650501783,-16.21068980822918,-14.726499593138522,21.305999999982305
313394.0987,-19.97775559606446,-12.979977184621326,-17.030276837396624,-14.33459072120549,21.306999999971595
313394.0997,-19.466134872717802,-12.379751625152354,-16.83081767097564,-12.988604035776063,21.308000000019092
313394.1007,-17.947342746210865,-10.877513028059363,-15.63593184232776,-10.750964213415422,21.309000000008382
313394.1017,-15.547082176797984,-8.597540541550877,-13.55993193132563,-7.764897958978738,21.30999999999767
313394.1027,-12.472025905474931,-5.739370332995466,-10.796465777360277,-4.2424776511259505,21.31099999998696
313394.1037,-8.990381745106477,-2.559349082416204,-7.5996027583742,-0.4461370995447888,21.31199999997625
313394.1047,-5.4065844671393535,0.6533288621389258,-4.259222042365777,3.334593897932885,21.31300000002375
313394.1057,-2.032562634597192,3.60379234038329,-1.073109962892157,6.808929196953861,21.31400000001304
313394.1067,0.8416430108930799,6.019252520556494,1.681512910447809,9.710786766699409,21.31500000000233
313394.1077,2.975075295807757,7.674674328754897,3.7742671595361044,11.822407969042795,21.315999999991618
313394.1087,4.198254354009507,8.413888389991206,5.043147642881894,12.993403420500908,21.316999999980908
313394.1097,4.428625638713654,8.164116322900732,5.4092409666982,13.153438715597044,21.317999999970198
313394.1107,3.6775987163567816,6.9425236804693,4.883226969987267,12.317390900812942,21.319000000017695
313394.1117,2.048534688148461,4.854190338600831,3.563072506469678,10.582535894411617,21.320000000006985
313394.1127,-0.2740778900984438,2.0817218748745816,1.6231905879065716,8.118096823344885,21.320999999996275
313394.1137,-3.043162265574366,-1.132464005718982,-0.7038259133206923,5.148218416671996,21.321999999985565
313394.1147,-5.973464370490191,-4.5094337654256025,-3.151061249268176,1.930061571773572,21.322999999974854
313394.1157,-8.76942663474069,-7.760338006107977,-5.444345756097324,-1.270826096721299,21.32400000002235
313394.1167,-11.153787932207683,-10.613722825843302,-7.329848861544006,-4.205458140568285,21.32500000001164
313394.1177,-12.894113470774201,-12.840900837961406,-8.59946382999408,-6.6642559852282925,21.32600000000093
313394.1187,-13.82467307046193,-14.276929913989498,-9.111476462243653,-8.495597300616973,21.32699999999022
313394.1197,-13.861553401196996,-14.83518671457069,-8.80448109325973,-9.61830536811791,21.32799999997951
313394.1207,-13.009563119923897,-14.514156900813948,-7.7031784511751304,-10.026925961800579,21.32900000002701
313394.1217,-11.360303040420572,-13.395832047758308,-5.915495123879827,-9.789356134914899,21.330000000016298
313394.1227,-9.081646432744305,-11.635929196257619,-3.6213242608025222,-9.037147107302317,21.331000000005588
313394.1237,-6.399721443506679,-9.446951583301676,-1.0540170942192109,-7.9495266228475465,21.331999999994878
313394.1247,-3.5752252486812997,-7.0758096588555235,1.5235267808079251,-6.7328036341654105,21.332999999984168
313394.1257,-0.8764554851789408,-4.778251393141275,3.84578639297604,-5.597269394093119,21.333999999973457
313394.1267,1.4482357658272742,-2.79265827846409,5.6718787694757316,-4.733949820052821,21.335000000020955
313394.1277,3.1958079393150194,-1.315818398435704,6.8104297692402795,-4.293570913100807,21.336000000010245
313394.1287,4.229180636849713,-0.4830853533042584,7.139567944534848,-4.369871649638013,21.336999999999534
313394.1297,4.491098646647578,-0.3548918773302562,6.620031353985212,-4.988959768741211,21.337999999988824
313394.1307,4.009822183804046,-0.9109531605786164,5.3000545801602605,-6.105798725674549,21.338999999978114
313394.1317,2.8960640813524394,-2.0527297239926288,3.3115130466165104,-7.6081987946722,21.34000000002561
313394.1327,1.331466174955304,-3.6138986085621068,0.8576645490335615,-9.327932549819375,21.3410000000149
313394.1337,-0.45025049080741697,-5.377785514350069,-1.806341083304327,-11.05787909718925,21.34200000000419
313394.1347,-2.1875957630125598,-7.1000177753760285,-4.3982958267634595,-12.573493224582618,21.34299999999348
313394.1357,-3.6186669277048793,-8.53413691771245,-6.636689167805857,-13.656455255828678,21.34399999998277
313394.1367,-4.508827237329852,-9.45761138201271,-8.268667560069558,-14.118128534665887,21.34499999997206
313394.1377,-4.6759395512266275,-9.695644247460992,-9.09544923638984,-13.82045702445212,21.346000000019558
313394.1387,-4.010618521574547,-9.140382125339405,-8.992685197183645,-12.692175362111989,21.347000000008848
313394.1397,-2.489445478671127,-7.763579204786196,-7.923742815458311,-10.738654685486523,21.347999999998137
313394.1407,-0.1797744475844366,-5.621410917822522,-5.944573259570756,-8.044325736405355,21.348999999987427
313394.1417,2.764421296834785,-2.850902109741003,-3.1996410562039395,-4.7673457372885375,21.349999999976717
313394.1427,6.115335363316033,0.3417405555891341,0.09073616928916725,-1.126936403851985,21.351000000024214
313394.1437,9.59157242360882,3.6998038474294335,3.650452377637605,2.615457362948598,21.352000000013504
313394.1447,12.883940489489797,6.939969205070406,7.173173642520278,6.179425934600984,21.353000000002794
313394.1457,15.684330709526945,9.779137679980085,10.350947621695363,9.291065562539938,21.353999999992084
313394.1467,17.71491226074207,11.961579911198989,12.903114292805107,11.708226830745293,21.354999999981374
313394.1477,18.754827644755363,13.283769643304323,14.602736510569496,13.243113780218335,21.355999999970663
313394.1487,18.661805486651804,13.614474621806874,15.298005623456072,13.780049941774665,21.35700000001816
313394.1497,17.386591475545522,12.908131492809156,14.9265615480304,13.286683964598192,21.35800000000745
313394.1507,14.978786469829924,11.210177671235211,13.521351219671173,11.817532951530527,21.35899999999674
313394.1517,11.583507075932191,8.653790139701885,11.207467548126,9.509495390589972,21.35999999998603
313394.1527,7.429167757203724,5.448313084331216,8.190283190655093,6.569736443711836,21.36099999997532
313394.1537,2.807538658273001,1.8604620166710346,4.736034639126851,3.257081362040654,21.362000000022817
313394.1547,-1.9520234701065398,-1.8099070782328204,1.1467403633058832,-0.1413233895043196,21.363000000012107
313394.1557,-6.5117149835423,-5.257147449847783,-2.268118835837428,-3.3358678335133845,21.364000000001397
313394.1567,-10.555019274423813,-8.19767133561808,-5.220421463604728,-6.060401791268861,21.364999999990687
313394.1577,-13.814208143967246,-10.39563277258456,-7.4699520807884365,-8.095768303698973,21.365999999979977
313394.1587,-16.093008006937573,-11.683987604177936,-8.846125531710559,-9.288727027864793,21.367000000027474
313394.1597,-17.282304919248705,-11.9789247064506,-9.262817951952197,-9.56449749725468,21.368000000016764
313394.1607,-17.36744470509171,-11.286307247988972,-8.724911661905724,-8.931772887321761,21.369000000006054
313394.1617,-16.42650561428707,-9.699539589802926,-7.325973318778957,-7.479785845679879,21.369999999995343
313394.1627,-14.619800607762771,-7.389108428270297,-5.237351921009142,-5.367777744370394,21.370999999984633
313394.1637,-12.171718524132817,-4.5848546966197326,-2.6898206088999594,-2.8079563549553015,21.371999999973923
313394.1647,-9.34675474488908,-1.5527367301158501,0.05038816790895015,-0.04365298614079727,21.37300000002142
313394.1657,-6.42214016646976,1.4316234162502075,2.708761516055392,2.675152324273941,21.37400000001071
313394.1667,-3.659797898135509,4.110011645813011,5.030198933012308,5.116524274853483,21.375
313394.1677,-1.2804090283688336,6.2666599789011554,6.8044770317946535,7.089062820679962,21.37599999998929
313394.1687,0.5578527257562576,7.748806331339261,7.8869713910323345,8.459997609683102,21.37699999997858
313394.1697,1.7738306123095815,8.480776685575012,8.212594906066677,9.167135683204958,21.378000000026077
313394.1707,2.3697294772125357,8.470231328183598,7.801586304883367,9.223524631725475,21.379000000015367
313394.1717,2.428701880980696,7.805990181081457,6.756590645832323,8.714416308196252,21.380000000004657
313394.1727,2.10395549993326,6.647682283898086,5.251336238902585,7.786878185187313,21.380999999993946
313394.1737,1.6005067475158292,5.208269867305511,3.5120448042425343,6.633125749989257,21.381999999983236
313394.1747,1.1514393128890656,3.73119927862248,1.7934320480501575,5.469268783729198,21.382999999972526
313394.1757,0.9910764762893202,2.4644605061510574,0.3516934295505982,4.511616318890607,21.384000000020023
313394.1767,1.3277884113023066,1.6341422952185025,-0.5828281313379827,3.952925327882939,21.385000000009313
313394.1777,2.319199342529086,1.4201209125423597,-0.8305592396249503,3.9409833507550918,21.385999999998603
313394.1787,4.052329876359227,1.9363124450882212,-0.2826968038937362,4.561684960298668,21.386999999987893
313394.1797,6.530729357212931,3.2174714544860383,1.0857294062273524,5.828318895025588,21.387999999977183
313394.1807,9.66996864767003,5.213876590042053,3.211075958323007,7.678170405190214,21.38900000002468
313394.1817,13.302042253117353,7.794469256978666,5.9451185772183095,9.976821954820059,21.39000000001397
313394.1827,17.188350658404108,10.75818047760842,9.067565074615779,12.529775675261652,21.39100000000326
313394.1837,21.04008517264167,13.852375057303613,12.30588055897923,15.100297386013196,21.39199999999255
313394.1847,24.544101730115063,16.796640044128857,15.360535602086424,17.431765548192875,21.39299999998184
313394.1857,27.391819246164346,19.309615074351292,17.933250115488967,19.272359661594443,21.39399999997113
313394.1867,29.308366508925868,21.136257463950006,19.75550414489563,20.39968541363223,21.395000000018626
313394.1877,30.079160074655555,22.072884803760665,20.614551317617988,20.64293167163422,21.396000000007916
313394.1887,29.571328710241797,21.987547396603464,20.374404949870062,19.900387507688848,21.396999999997206
313394.1897,27.747885235992914,20.833731780607604,18.989748123960762,18.150593148451744,21.397999999986496
313394.1907,24.67323714500665,18.65604103229189,16.51140050191675,15.456013526295937,21.398999999975786
313394.1917,20.50945601739132,15.587274613144052,13.082789793638241,11.958846893635831,21.400000000023283
313394.1927,15.503611893230694,11.83716430961577,8.927745109219275,7.8693429984089125,21.401000000012573
313394.1937,9.967336162393012,7.6738318636214045,4.330768068331548,3.447731113138915,21.402000000001863
313394.1947,4.250521710854016,3.3997391706688256,-0.3883363045088327,-1.018523173840172,21.402999999991152
313394.1957,-1.2883704738034392,-0.6755654260235687,-4.90304400426139,-5.239962489708909,21.403999999980442
313394.1967,-6.31260775224345,-4.263293147309609,-8.90918017898401,-8.950474224652478,21.404999999969732
313394.1977,-10.53524384614655,-7.121187969146512,-12.151698545716618,-11.930305286326673,21.40600000001723
313394.1987,-13.742320887275032,-9.074767919188035,-14.446628480077187,-14.024571902003343,21.40700000000652
313394.1997,-15.809074765724962,-10.032020677450411,-15.696121995218997,-15.155524349479624,21.40799999999581
313394.2007,-16.707685839014328,-9.990180412586824,-15.89520888958731,-15.327438378753389,21.4089999999851
313394.2017,-16.505938985548557,-9.033986122219378,-15.129678335120984,-14.623725745750788,21.40999999997439
313394.2027,-15.357037628743665,-7.32565189732054,-13.565369744607953,-13.196615034829628,21.411000000021886
313394.2037,-13.481669677849673,-5.087585205064853,-11.429990279046487,-11.250476427110017,21.412000000011176
313394.2047,-11.144166065526644,-2.579591653074536,-8.989299235075427,-9.020479507294313,21.413000000000466
313394.2057,-8.625152374980004,-0.07283511576175151,-6.520040201063652,-6.748721361063214,21.413999999989755
313394.2067,-6.193416605583028,2.1768711692370135,-4.282307618060797,-4.660199308103935,21.414999999979045
313394.2077,-4.079770397720718,3.953813661295226,-2.494075625970971,-2.941005584800198,21.416000000026543
313394.2087,-2.4554623282305674,5.102743950906931,-1.3103901703469019,-1.7208900703027024,21.417000000015832
313394.2097,-1.4172322744111203,5.542879775325895,-0.8092529478835595,-1.0618946729558785,21.418000000005122
313394.2107,-0.9804219983772299,5.274197921861165,-0.9855546066864372,-0.9541529432030276,21.418999999994412
313394.2117,-1.0807457010131818,4.375443703606729,-1.7536108994698312,-1.3192310026014615,21.419999999983702
313394.2127,-1.584455469244864,2.994105653869153,-2.957998405690253,-2.0206316924377328,21.42099999997299
313394.2137,-2.3057960159631827,1.3294024912240332,-4.391560397066154,-2.8803672968372,21.42200000002049
313394.2147,-3.029913790429026,-0.38997636118650075,-5.818739757920442,-3.6998979681079223,21.42300000000978
313394.2157,-3.5388393615913025,-1.9311137435756713,-7.001864879369064,-4.283293158885198,21.42399999999907
313394.2167,-3.6378528701663053,-3.082530573642456,-7.727718474488055,-4.460245525881977,21.42499999998836
313394.2177,-3.1795009138439196,-3.6776696139185514,-7.831687579993014,-4.106573702965613,21.42599999997765
313394.2187,-2.0827637524837734,-3.613806023415355,-7.217028931642005,-3.1600917938070463,21.427000000025146
313394.2197,-0.3453517171616168,-2.8644444221166543,-5.867264447954341,-1.6301761147342808,21.428000000014435
313394.2207,1.9522078678975818,-1.483906144337641,-3.8503997033855555,0.40002044420004246,21.429000000003725
313394.2217,4.651214101419682,0.3964157774137723,-1.3144675398144618,2.7790296325151833,21.429999999993015
313394.2227,7.527814276958048,2.5798285378912675,1.5252400715755057,5.299765905913704,21.430999999982305
313394.2237,10.313210155877826,4.823032626074605,4.406060746137892,7.71829998756027,21.431999999971595
313394.2247,12.71912703710344,6.859936063661973,7.043066138075859,9.776934265315466,21.433000000019092
313394.2257,14.466082114193219,8.42827035076693,9.156948397832112,11.229364818480429,21.434000000008382
313394.2267,15.311686756485782,9.2963953555771,10.50196317644246,11.86548791550729,21.43499999999767
313394.2277,15.076185931289539,9.287642689482876,10.89117838458453,11.533419427580718,21.43599999998696
313394.2287,13.662681035850383,8.299769436913591,10.216522157184317,10.156543562475019,21.43699999997625
313394.2297,11.069977087368418,6.317555422376659,8.461614091587801,7.7438692640561175,21.43800000002375
313394.2307,7.396693996494129,3.4172330243246183,5.706053465599899,4.392604244239549,21.43900000001304
313394.2317,2.8361169218262825,-0.23777470136095408,2.1206599027497153,0.2825969843401216,21.44000000000233
313394.2327,-2.337848621344316,-4.409490656520064,-2.045964086345292,-4.336925476368959,21.440999999991618
313394.2337,-7.792391813651812,-8.805264545060975,-6.488338239251343,-9.167156923460722,21.441999999980908
313394.2347,-13.16321229348385,-13.10306072655178,-10.870540875169084,-13.884252265755942,21.442999999970198
313394.2357,-18.085110548612622,-16.979785293677352,-14.855699824442075,-18.166354426287224,21.444000000017695
313394.2367,-22.222912471034743,-20.139982082900246,-18.13575999111634,-21.72061114053512,21.445000000006985
313394.2377,-25.29984642181567,-22.342182735162226,-20.45871659985958,-24.30768194789911,21.445999999996275
313394.2387,-27.120727544881156,-23.420413959912878,-21.650742031303807,-25.761472358046127,21.446999999985565
313394.2397,-27.587795389386496,-23.298824940424474,-21.63112180508019,-26.002285705887992,21.447999999974854
313394.2407,-26.707749666279774,-21.998054894429277,-20.418604432745973,-25.042209639625497,21.44900000002235
313394.2417,-24.589367482220325,-19.632751463674452,-18.128593591594406,-22.982292809192867,21.45000000001164
313394.2427,-21.431982357005417,-16.40049809704393,-14.961489307499985,-20.001846578179894,21.45100000000093
313394.2437,-17.505973749852952,-12.56323060181818,-11.183332220389318,-16.34095103120193,21.45199999999022
313394.2447,-13.127171508928859,-8.422939722866218,-7.100639208266533,-12.277882220658658,21.45299999997951
313394.2457,-8.627649447930274,-4.29399838799733,-3.031868398342295,-8.10364700201847,21.45400000002701
313394.2467,-4.325711130237907,-0.47476660290884987,0.7217363491410158,-4.0960679227308905,21.455000000016298
313394.2477,-0.49792741525302336,2.778816447963414,3.9031270660262405,-0.49587928039610263,21.456000000005588
313394.2487,2.6441355048321,5.275149923287394,6.321692266302967,2.512924337228901,21.456999999994878
313394.2497,4.9703348129199805,6.902344163267348,7.8686656017828405,4.81668169992228,21.457999999984168
313394.2507,6.440037807711432,7.635641744318359,8.524289961387256,6.378404265347649,21.458999999973457
313394.2517,7.10122279042529,7.536261709589246,8.356138059897864,7.236386221815055,21.460000000020955
313394.2527,7.080824818027896,6.741882228482729,7.508859799485106,7.495373492853131,21.461000000010245
313394.2537,6.5674147097701105,5.449793211198279,6.186466312340697,7.31130991522561,21.461999999999534
313394.2547,5.7880464624598575,3.8944628238384627,4.628988406352,6.871303999820903,21.462999999988824
313394.2557,4.981671138161737,2.3218008243994865,3.0858919749777662,6.370919056662395,21.463999999978114
313394.2567,4.371839513519734,0.9627146364992066,1.7889416410856354,5.991138373183188,21.46500000002561
313394.2577,4.141470003370829,0.008610763851724981,0.9272465369561839,5.8773717232771485,21.4660000000149
313394.2587,4.412237829351298,-0.40871064140867314,0.6269948699653842,6.122648992690464,21.46700000000419
313394.2597,5.230668333362407,-0.23076601308180367,0.9379094741317328,6.756713509710325,21.46799999999348
313394.2607,6.562338766690089,0.5216560226492578,1.827781849418846,7.742125051047391,21.46899999998277
313394.2617,8.294776006267064,1.750877079753486,3.185633833780527,8.977770361037328,21.46999999997206
313394.2627,10.248763195293918,3.292799974426521,4.833193730074099,10.309428009601234,21.471000000019558
313394.2637,12.196922625043932,4.9344109495663275,6.543542393812756,11.546318923517429,21.472000000008848
313394.2647,13.887708751531092,6.436552868237457,8.065066393580905,12.481964815101792,21.472999999998137
313394.2657,15.072396498754744,7.559680054091027,9.148320705732134,12.917234354392694,21.473999999987427
313394.2667,15.532340196963808,8.090002593701444,9.573105279240776,12.683225201938823,21.474999999976717
313394.2677,15.103738406164435,7.863381168848978,9.173027764375476,11.661632105130455,21.476000000024214
313394.2687,13.697373735587542,6.784547647692698,7.855062173193598,9.800487297440482,21.477000000013504
313394.2697,11.311281907442241,4.839680890661539,5.612097193037165,7.123606512353003,21.478000000002794
313394.2707,8.034993329101374,2.101017082275107,2.5271510477474384,3.732688308439167,21.478999999992084
313394.2717,4.044815857147988,-1.2770442971895328,-1.2312546595903957,-0.1982641501698828,21.479999999981374
313394.2727,-0.40949168052611296,-5.070040681347639,-5.422201688299346,-4.43577207040459,21.480999999970663
313394.2737,-5.025455765036256,-9.002644475085095,-9.752766716751193,-8.705814671990655,21.48200000001816
313394.2747,-9.474099494633565,-12.773146984202787,-13.90378127971721,-12.717111321849005,21.48300000000745
313394.2757,-13.429145743043964,-16.080888338498344,-17.55850850361012,-16.18655540622058,21.48399999999674
313394.2767,-16.596421675799256,-18.653993421067856,-20.43148816280186,-18.86437583780356,21.48499999998603
313394.2777,-18.740638507120092,-20.27473127994846,-22.294772395605204,-20.5566108737085,21.48599999997532
313394.2787,-19.70696047751245,-20.800035102388733,-22.999016218658173,-21.142723604324456,21.487000000022817
313394.2797,-19.435269906734973,-20.175180479885313,-22.4873765262619,-20.58664572796364,21.488000000012107
313394.2807,-17.96573313174128,-18.439276675379265,-20.800863069820366,-18.940161864077293,21.489000000001397
313394.2817,-15.435107378863366,-15.72201497016592,-18.074607881607434,-16.338279946847408,21.489999999990687
313394.2827,-12.064119867493789,-12.231962971271468,-14.525395578976815,-12.987002835216835,21.490999999979977
313394.2837,-8.137110880940222,-8.237511584148422,-10.431640579116639,-9.14464718988837,21.492000000027474
313394.2847,-3.9758782934147625,-4.042292373790505,-6.107726213136526,-5.098476614151248,21.493000000016764
313394.2857,0.08978062329617592,0.04258217934270821,-1.875163959885753,-1.138866420954778,21.494000000006054
313394.2867,3.752017851913114,3.7267967121436,1.9666644500346098,2.4665468251174354,21.494999999995343
313394.2877,6.752517827833813,6.766922581305148,5.167383157420094,5.4962797049071925,21.495999999984633
313394.2887,8.90509268221409,8.987827518737586,7.5475533234052685,7.793768379050841,21.496999999973923
313394.2897,10.111154738629207,10.297371128646509,9.013580592617654,9.27972874411182,21.49800000002142
313394.2907,10.366625896044894,10.693006772644303,9.564206088484442,9.956975545951444,21.49900000001071
313394.2917,9.759676913699376,10.259698666462745,9.288008527717976,9.907298372973305,21.5
313394.2927,8.459580651399088,9.1594078467732,8.352219752269642,9.280762805709543,21.50099999998929
313394.2937,6.697825108033688,7.613219596196407,6.983999669664703,8.278537902158453,21.50199999997858
313394.2947,4.743380633979382,5.877898038788836,5.446046988161129,7.130975232994356,21.503000000026077
313394.2957,2.874578067966191,4.219191411486215,4.008968076115835,6.073119113507793,21.504000000015367
313394.2967,1.3503760922807924,2.884521621352618,2.9231346813933734,5.320068393972102,21.505000000004657
313394.2977,0.3838457019759362,2.0777440354017274,2.3928022820185575,5.0446139735413995,21.505999999993946
313394.2987,0.12047282713992669,1.9384531501474629,2.5550308201057508,5.359343078529072,21.506999999983236
313394.2997,0.6233993360686179,2.5278576567470914,3.4654713092766443,6.304954441529119,21.507999999972526
313394.3007,1.8670351922715513,3.8225988881100808,5.092402363330675,7.845911866036339,21.509000000020023
313394.3017,3.7396479204227218,5.717103415206982,7.319586769309029,9.873837860707628,21.510000000009313
313394.3027,6.054650799789677,8.034220398968774,9.957649625417218,12.218285306343123,21.510999999998603
313394.3037,8.569455025805496,10.543079480639483,12.762841383596074,14.663798361175376,21.511999999987893
313394.3047,11.010007293111295,12.98239526964132,15.461323447779387,16.97155522705502,21.512999999977183
313394.3057,13.098575643134243,15.086909308649222,17.776571792749795,18.90343555937735,21.51400000002468
313394.3067,14.58202760825267,16.614352095534006,19.457188389246316,20.24611820607454,21.51500000001397
313394.3077,15.257796788376119,17.370256427365213,20.302370860919627,20.832813728473756,21.51600000000326
313394.3087,14.994961580981226,17.22816393640907,20.18252146300256,20.560470772803416,21.51699999999255
313394.3097,13.74834042654279,16.14321849319341,19.052954400706884,19.400742672887475,21.51799999998184
313394.3107,11.564194409675213,14.157788818464775,16.959338706441077,17.403616653416908,21.51899999997113
313394.3117,8.57695299064524,11.398544562393813,14.03432575841912,14.693332101084982,21.520000000018626
313394.3127,4.997261093122469,8.065248626731828,10.485676354305006,11.456975401296866,21.521000000007916
313394.3137,1.0924991804361244,4.412341451374434,6.577037092163644,7.9268619992279215,21.521999999997206
313394.3147,-2.8383313839732485,0.7251007190919987,2.6032377667450346,4.358430548589859,21.522999999986496
313394.3157,-6.492910106443439,-2.7073068567922762,-1.1374802269890791,1.0058188634688365,21.523999999975786
313394.3167,-9.594323208281951,-5.6192584943470365,-4.371592627329818,-1.902476890157526,21.525000000023283
313394.3177,-11.917405773375965,-7.7939200550350325,-6.876030418350753,-4.185462601011173,21.526000000012573
313394.3187,-13.310122852653404,-9.083841159717085,-8.499013072756131,-5.7268690340629425,21.527000000001863
313394.3197,-13.707895187150566,-9.424891714401364,-9.173942630301902,-6.486032150197922,21.527999999991152
313394.3207,-13.139463496110055,-8.842179564632401,-8.925003599683153,-6.501346313736482,21.528999999980442
313394.3217,-11.723711440951702,-7.447370542474555,-7.8639256493074585,-5.88593338550565,21.529999999969732
313394.3227,-9.657750534986622,-5.427670056932363,-6.178231114686301,-4.815934329556529,21.53100000001723
313394.3237,-7.197423973721239,-3.027537651334304,-4.1121227185843425,-3.5125547779512236,21.53200000000652
313394.3247,-4.632127063966813,-0.5249132108546057,-1.94188693595882,-2.2196109353212843,21.53299999999581
313394.3257,-2.256397162279176,1.7957333250785448,0.05177536359977893,-1.178766928451279,21.5339999999851
313394.3267,-0.34104149288673863,3.6709098075809656,1.61177946405368,-0.6048855195154553,21.53499999997439
313394.3277,0.893383922239375,4.883497197384954,2.530302711848368,-0.6639082261769231,21.536000000021886
313394.3287,1.2981610604911162,5.283571861720934,2.6695345329987523,-1.455438699825489,21.537000000011176
313394.3297,0.8109617021508084,4.802643954735231,1.9754996983061937,-3.001748196343815,21.538000000000466
313394.3307,-0.5380489262298045,3.459946423320004,0.4836030605025786,-5.244298449806993,21.538999999989755
313394.3317,-2.629144475276254,1.3601871404240853,-1.684644800437575,-8.04814604259751,21.539999999979045
313394.3327,-5.26471117369188,-1.316989078696899,-4.333397721453163,-11.21382482256895,21.541000000026543
313394.3337,-8.188515206356351,-4.334772958493782,-7.211584667946053,-14.495573993362747,21.542000000015832
313394.3347,-11.110675666925102,-7.422437788326587,-10.037487257706543,-17.62416039366762,21.543000000005122
313394.3357,-13.735899650557634,-10.301770071522915,-12.52637550547257,-20.332094673499284,21.543999999994412
313394.3367,-15.79222001592254,-12.714087104625888,-14.418494357090132,-22.378806439050173,21.544999999983702
313394.3377,-17.05743039211872,-14.445193934337793,-15.504659922231154,-23.57334593344814,21.54599999997299
313394.3387,-17.380640483660844,-15.345840929082534,-15.646959050138575,-23.79241925813791,21.54700000002049
313394.3397,-16.696855128308606,-15.345690926809748,-14.792525969666457,-22.992017193246397,21.54800000000978
313394.3407,-15.033165737812633,-14.459447459896008,-12.979048072305,-21.21152016163349,21.54899999999907
313394.3417,-12.50596552658496,-12.784569711551335,-10.331463097643672,-18.56989307082313,21.54999999998836
313394.3427,-9.309479686289308,-10.49082954125723,-7.050172634883506,-15.254352311303304,21.55099999997765
313394.3437,-5.696752215381612,-7.802769616046246,-3.391927501576456,-11.50261808568861,21.552000000025146
313394.3447,-1.9549691553313886,-4.9768204463197225,0.35474214451383224,-7.580487155647678,21.553000000014435
313394.3457,1.6224487612660692,-2.2753592961913998,3.89714541647225,-3.7569133223747975,21.554000000003725
313394.3467,4.764236760917624,0.059706098250900334,6.966393691317938,-0.2790213705043799,21.554999999993015
313394.3477,7.247368143160761,1.8312008246475693,9.342970930680044,2.6505184382401876,21.555999999982305
313394.3487,8.918265560439457,2.9063788968928344,10.877409877669786,4.891564009020123,21.556999999971595
313394.3497,9.707060263670842,3.2300901709066614,11.504053543875882,6.378281668611269,21.558000000019092
313394.3507,9.633503582725872,2.8301021354512566,11.24656043124113,7.123511242396792,21.559000000008382
313394.3517,8.803957510118698,1.8140370527552099,10.214622592376777,7.2153231554285036,21.55999999999767
313394.3527,7.3997702710116,0.3582153489714457,8.592228451819114,6.806141594423079,21.56099999998696
313394.3537,5.658191915693759,-1.3105011227178271,6.618632675250724,6.0955373233983785,21.56199999997625
313394.3547,3.847720879919575,-2.938076361581336,4.563911817145785,5.308414541952101,21.56300000002375
313394.3557,2.240322817984033,-4.269567885895356,2.7015166733284546,4.670767384149057,21.56400000001304
313394.3567,1.08327369218086,-5.075690901418865,1.2805279325180825,4.385419070324679,21.56500000000233
313394.3577,0.5734194629528508,-5.177037399021001,0.5003517625147057,4.610157096315372,21.565999999991618
313394.3587,0.8364106378324349,-4.463531030376762,0.49035333334231884,5.440441169704205,21.566999999980908
313394.3597,1.9129841982368117,-2.9071596586060795,1.296442280418021,6.898410119173105,21.567999999970198
313394.3607,3.7536755203672287,-0.5666822148165809,2.8759421344501668,8.929293912024189,21.569000000017695
313394.3617,6.2225163725738355,2.416209088189134,5.101262617431195,11.405608041330785,21.570000000006985
313394.3627,9.109392864794364,5.828952817130175,7.772029137991452,14.138741367677131,21.570999999996275
313394.3637,12.14988579440964,9.40728212653646,10.634492595746373,16.89682014265061,21.571999999985565
313394.3647,15.050678641777779,12.859662054132226,13.406326257873292,19.427111798524674,21.572999999974854
313394.3657,17.518067817958375,15.894651453797183,15.80438529268018,21.480782833987135,21.57400000002235
313394.3667,19.28679970667116,18.248546686966765,17.572710686149254,22.837589766862187,21.57500000001164
313394.3677,20.14642007626524,19.710627796690158,18.50803162572969,23.32808369942256,21.57600000000093
313394.3687,19.96255753582403,20.143552995957208,18.480261819454515,22.851147373171454,21.57699999999022
313394.3697,18.69105092222607,19.496912193773504,17.44597207116639,21.385135318271068,21.57799999997951
313394.3707,16.383523210902535,17.812609767064977,15.453506141317948,18.99150858972168,21.57900000002701
313394.3717,13.183834115486325,15.221536617577977,12.639222484624055,15.81058485848196,21.580000000016298
313394.3727,9.31572897096585,11.931834713608515,9.215211044196948,12.049790953712963,21.581000000005588
313394.3737,5.062856319571246,8.209871553368313,5.449667068258361,7.965533420151571,21.581999999994878
313394.3747,0.7430673858828448,4.3557478569324415,1.6418213806227278,3.8404221117227837,21.582999999984168
313394.3757,-3.3205349425773196,0.6756904345739561,-1.9061415455820876,-0.04196813969465851,21.583999999973457
313394.3767,-6.829015962911467,-2.546017957173915,-4.917452044798169,-3.422375966609048,21.585000000020955
313394.3777,-9.534673023506086,-5.072878070075498,-7.166656654617836,-6.088749584176607,21.586000000010245
313394.3787,-11.263150406667293,-6.737309305031117,-8.500540033199838,-7.894573480190263,21.586999999999534
313394.3797,-11.92849615496859,-7.455067369525998,-8.852041628770104,-8.77088659000541,21.587999999988824
313394.3807,-11.539740385609203,-7.231587058128632,-8.24582580308234,-8.730869544600104,21.588999999978114
313394.3817,-10.19840053957055,-6.159679750896971,-6.7949794103467145,-7.8666034504085225,21.59000000002561
313394.3827,-8.087201443236303,-4.408856535990987,-4.689177176856275,-6.338364760291034,21.5910000000149
313394.3837,-5.4511508077742725,-2.2073613473428826,-2.175487853497982,-4.3575456072863785,21.59200000000419
313394.3847,-2.5728506215232567,0.18129521397814732,0.4662884191341899,-2.164905713202723,21.59299999999348
313394.3857,0.2555203194822793,2.4849804879893154,2.9513289410861496,-0.006310520923377295,21.59399999998277
313394.3867,2.760801714253212,4.4501393491267836,5.01782605613004,1.8916530781531804,21.59499999997206
313394.3877,4.715227632380081,5.866879754082087,6.45260736553361,3.3437899812395884,21.596000000019558
313394.3887,5.958013172938386,6.5894907644055145,7.111832464103507,4.223978071091987,21.597000000008848
313394.3897,6.410060658724253,6.550394873990426,6.934745406564269,4.476700201167447,21.597999999998137
313394.3907,6.080376542972896,5.766186719593009,5.949145041552797,4.121321239768883,21.598999999987427
313394.3917,5.063609405989556,4.33519156854433,4.268048983265902,3.248723323241569,21.599999999976717
313394.3927,3.5289949437905936,2.426812698869673,2.077891612673547,2.010668128729186,21.601000000024214
313394.3937,1.7018397921304442,0.2637449659957329,-0.38057258270106664,0.6029732047647075,21.602000000013504
313394.3947,-0.16059055998175975,-1.9011667187515016,-2.8367731890996515,-0.7558003050468438,21.603000000002794
313394.3957,-1.7963654933536621,-3.8111192972079544,-5.017817775197898,-1.8480087165043686,21.603999999992084
313394.3967,-2.96663945053541,-5.231990121534954,-6.676264219680605,-2.4805644975209717,21.604999999981374
313394.3977,-3.48109101001277,-5.976775532132852,-7.615432482004851,-2.5061839637555927,21.605999999970663
313394.3987,-3.218513307366961,-5.925400181540584,-7.709757702806587,-1.8401113333598234,21.60700000001816
313394.3997,-2.140498047297419,-5.037923992080846,-6.918172287789652,-0.47063271957466735,21.60800000000745
313394.4007,-0.29683761545077514,-3.3598237624079976,-5.289187695205705,1.5376938048197557,21.60899999999674
313394.4017,2.177912552998305,-1.018806670692247,-2.9571600880074085,4.048447280385166,21.60999999998603
313394.4027,5.076396538472275,1.7865533517697179,-0.13008814124534357,6.864993174277009,21.61099999997532
313394.4037,8.137788736715292,4.805260035328387,2.9298785306160324,9.748258620395681,21.612000000022817
313394.4047,11.072607810103024,7.757625693138883,5.93132695589686,12.43891289503005,21.613000000012107
313394.4057,13.590585429012961,10.361972384406316,8.581441408844713,14.681794750431095,21.614000000001397
313394.4067,15.42885669956393,12.361692307856318,10.61412158533071,16.250202334395972,21.614999999990687
313394.4077,16.3777029853503,13.55001789194767,11.815616242751773,16.967669633718998,21.615999999979977
313394.4087,16.301313849551338,13.790073613090765,12.045171943952004,16.72509502215989,21.617000000027474
313394.4097,15.151519996988014,13.028241570933288,11.248683020641504,15.491538973821658,21.618000000016764
313394.4107,12.9731358417866,11.299526231713566,9.46401242492102,13.31762510928385,21.619000000006054
313394.4117,9.900371315209533,8.724386484646573,6.817466816265449,10.331200980501306,21.619999999995343
313394.4127,6.1446472065389575,5.497338501769519,3.511773341019901,6.725671527209674,21.620999999984633
313394.4137,1.9749908438695045,1.8684389222200515,-0.19326452733879923,2.742134708739773,21.621999999973923
313394.4147,-2.307083457593269,-1.8805444818915449,-4.005540278588532,-1.3529449257166317,21.62300000002142
313394.4157,-6.395763507992779,-5.462946736131216,-7.628425961139128,-5.2923525801756455,21.62400000001071
313394.4167,-10.00945059612362,-8.614383533510454,-10.788849442357755,-8.832633726740298,21.625
313394.4177,-12.916813439652758,-11.117636498303018,-13.262928617337757,-11.776114305887269,21.62599999998929
313394.4187,-14.957845402909228,-12.822813908256599,-14.896666009580501,-13.988291253603313,21.62699999997858
313394.4197,-16.05787517494934,-13.66081816217285,-15.61969382432991,-15.408909077519224,21.628000000026077
313394.4207,-16.23317194472698,-13.648807836397015,-15.450742866242077,-16.055658711823156,21.629000000015367
313394.4217,-15.587610625339703,-12.887127818805924,-14.494321827081817,-16.02016004155674,21.630000000004657
313394.4227,-14.300740074965377,-11.548018817192268,-12.928956591448292,-15.45664823034024,21.630999999993946
313394.4237,-12.60844152254217,-9.857225433832687,-10.988167805387056,-14.56450190491567,21.631999999983236
313394.4247,-10.778092717986533,-8.07032078506437,-8.936077794958551,-13.56635789116136,21.632999999972526
313394.4257,-9.080694194124632,-6.44608676523114,-7.040065136386122,-12.683992961948064,21.634000000020023
313394.4267,-7.762714282078119,-5.219581300700457,-5.543175071354168,-12.114375049403614,21.635000000009313
313394.4277,-7.020439539144104,-4.57755847501666,-4.639018076426227,-12.008272604606564,21.635999999998603
313394.4287,-6.979373860808303,-4.638680598175953,-4.451644810002435,-12.453562343113745,21.636999999987893
313394.4297,-7.680736369332612,-5.440495082396658,-5.022397219913756,-13.464916564299957,21.637999999977183
313394.4307,-9.076413294707,-6.934488755652791,-6.305050585945393,-14.980926286752734,21.63900000002468
313394.4317,-11.032890368516355,-8.989742389788852,-8.169746746298703,-16.868986590782857,21.64000000001397
313394.4327,-13.343810765002685,-11.404865866630308,-10.415354471681349,-18.93750711545095,21.64100000000326
313394.4337,-15.749955596985576,-13.92708186927174,-12.78906356002724,-20.95428828907095,21.64199999999255
313394.4347,-17.964712441589565,-16.276622727924714,-15.01130599467641,-22.669293302185046,21.64299999998184
313394.4357,-19.70255402245707,-18.174079905989032,-16.803570359957206,-23.83960692309109,21.64399999997113
313394.4367,-20.707747338899537,-19.368050057788444,-17.916386369690343,-24.254148153028318,21.645000000018626
313394.4377,-20.780482948896633,-19.660384700528503,-18.15473330756541,-23.755716623045043,21.646000000007916
313394.4387,-19.79785801809306,-18.92657614514602,-17.398371827078307,-22.258201625868438,21.646999999997206
313394.4397,-17.727641546772205,-17.129278616789357,-15.615089046938825,-19.75724378601939,21.647999999986496
313394.4407,-14.633447754664939,-14.323625149571411,-12.865534381155905,-16.33326791363676,21.648999999975786
313394.4417,-10.67077597766223,-10.653793459364493,-9.299140952915392,-12.14654050840156,21.650000000023283
313394.4427,-6.074261451740709,-6.341120383216801,-5.141494926525878,-7.424675209658847,21.651000000012573
313394.4437,-1.1373346004421652,-1.664882169606248,-0.6743479043051349,-2.443739311603975,21.652000000001863
313394.4447,3.813776345252989,3.0624327439181798,3.789815700438685,2.4952667728881233,21.652999999991152
313394.4457,8.449215313042256,7.5229998913310725,7.93621373079706,7.09233775928037,21.653999999980442
313394.4467,12.465049147421446,11.422022520895219,11.476468488587164,11.074347522504924,21.654999999969732
313394.4477,15.6103711841451,14.513877299751986,14.174814593662122,14.218441888031098,21.65600000001723
313394.4487,17.70936848127795,16.62355473330075,15.869293939056963,16.37073501007932,21.65700000000652
313394.4497,18.676253965640626,17.661366551009714,16.48590741845574,17.45855931619099,21.65799999999581
313394.4507,18.521658807353003,17.629547905281964,16.04437890914216,17.49514300277535,21.6589999999851
313394.4517,17.349910178350324,16.620169789562617,14.65500330650984,16.576321023034982,21.65999999997439
313394.4527,15.347504096555697,14.804619651514164,12.506917413775026,14.86965401470364,21.661000000021886
313394.4537,12.763935911937244,12.415723509887544,9.848965442519974,12.597059751123215,21.662000000011176
313394.4547,9.88678890485618,9.724291484100133,6.9650483810978185,10.012682356732267,21.663000000000466
313394.4557,7.0135324803222865,7.012401539495827,4.1463784650486515,7.378175363422877,21.663999999989755
313394.4567,4.422791920136791,4.546041723100309,1.6633545425647935,4.9378120182170075,21.664999999979045
313394.4577,2.3478915348310654,2.549779801473917,-0.2601973663884691,2.895837336224497,21.666000000026543
313394.4587,0.9552387808222204,1.1859167631169514,-1.4679141407500385,1.3982416206360195,21.667000000015832
313394.4597,0.3296317624134263,0.5401284190306356,-1.8848970957015403,0.5206880270311368,21.668000000005122
313394.4607,0.4678843657305257,0.6149520831845515,-1.5234880087326408,0.2637114866605504,21.668999999994412
313394.4617,1.2813397759506868,1.3316968459005394,-0.48029498757536104,0.555583594660456,21.669999999983702
313394.4627,2.6069652353060992,2.540522859310219,1.0751937533199103,1.2624790447255778,21.67099999997299
313394.4637,4.225874819811087,4.037629199826833,2.9192417283391503,2.2048584586798095,21.67200000002049
313394.4647,5.887395795780368,5.587790369748228,4.7978623389759045,3.1783707828899357,21.67300000000978
313394.4657,7.336249506080813,6.94995695395047,6.4537768084851175,3.9771357890140795,21.67399999999907
313394.4667,8.340113135790146,7.903337735011014,7.653635380671114,4.417036952295002,21.67499999998836
313394.4677,8.71479394948483,8.27133780740677,8.212781046635662,4.356659515960772,21.67599999997765
313394.4687,8.344486012436292,7.940943925380381,8.015078951575086,3.713747225919341,21.677000000025146
313394.4697,7.195067516770688,6.875602979796522,7.025822687157751,2.4755003625030496,21.678000000014435
313394.4707,5.319086622814133,5.120287254039929,5.296412973514745,0.7016529498348019,21.679000000003725
313394.4717,2.851907375953174,2.798217109430478,2.9603175805918625,-1.4800122906858435,21.679999999993015
313394.4727,-0.0006362087309112058,0.0995414422407685,0.22068384264678587,-3.8852976023360464,21.680999999982305
313394.4737,-2.981886584319477,-2.7369231067717212,-2.6691979654431757,-6.291243803265408,21.681999999971595
313394.4747,-5.809391378028566,-5.447100529730083,-5.430672091144848,-8.458070718507683,21.683000000019092
313394.4757,-8.202857020816898,-7.767901353518849,-7.787304031305061,-10.153237098621693,21.684000000008382
313394.4767,-9.91227190090668,-9.463706898380806,-9.492560012910403,-11.17523171586035,21.68499999999767
313394.4777,-10.743416177962485,-10.35045961828766,-10.354844362316493,-11.374721649880358,21.68599999998696
313394.4787,-10.57822154867881,-10.31495369693193,-10.257410235087068,-10.670932351292333,21.68699999997625
313394.4797,-9.387940212817261,-9.3273841302425,-9.171153973789075,-9.061592850680276,21.68800000002375
313394.4807,-7.237779720870348,-7.445868880117404,-7.158994395031687,-6.625403742413522,21.68900000001304
313394.4817,-4.28249116770754,-4.812443093899484,-4.371358088693082,-3.5167142987113698,21.69000000000233
313394.4827,-0.7532810812675834,-1.6408599740007226,-1.0331601811246895,0.047143083282316964,21.690999999991618
313394.4837,3.0627340802340917,1.8026623226310745,2.5764980135699536,3.804692610366801,21.691999999980908
313394.4847,6.848580794541073,5.223913407208318,6.149978939086356,7.473552473839908,21.692999999970198
313394.4857,10.286496703559362,8.328031848154236,9.379644617313774,10.775857355305284,21.694000000017695
313394.4867,13.087222593925103,10.847075946792504,11.986529958025308,13.463432545343222,21.695000000006985
313394.4877,15.01669881193917,12.565155086669638,13.746386300304975,15.34030215898918,21.695999999996275
313394.4887,15.917593927247259,13.33868338087704,14.510578908840712,16.280365687410942,21.696999999985565
313394.4897,15.723591481224588,13.109786666455873,14.219818643670862,16.238540329987757,21.697999999974854
313394.4907,14.465061058165558,11.911556130745302,12.909401668805486,15.254296175580604,21.69900000002235
313394.4917,12.265574376657494,9.86463239749423,10.705454201878116,13.44724599656175,21.70000000001164
313394.4927,9.329614161770019,7.165445542215874,7.812551592717651,11.005219516783551,21.70100000000093
313394.4937,5.922676616012138,4.067246994501082,4.493917294977463,8.165978546185972,21.70199999999022
313394.4947,2.3457040712145885,0.8557693816833878,1.0461259204104547,5.1943434116832385,21.70299999997951
313394.4957,-1.093668935490191,-2.178128386811011,-2.229234593394557,2.356942715630776,21.70400000002701
313394.4967,-4.11026866410865,-4.766182075502088,-5.0541953763646115,-0.10297546245818381,21.705000000016298
313394.4977,-6.468114489350102,-6.688127298083103,-7.200563835343796,-1.988244243005707,21.706000000005588
313394.4987,-8.002153462812233,-7.792335524266505,-8.511082517900281,-3.165811559022379,21.706999999994878
313394.4997,-8.6329137767027,-8.00969513023721,-8.913558782563815,-3.578387460981249,21.707999999984168
313394.5007,-8.372690081233252,-7.359412703074007,-8.426624182721643,-3.2486124835489396,21.708999999973457
313394.5017,-7.322704214258223,-5.946199524780441,-7.156602097669212,-2.2753866114201373,21.710000000020955
313394.5027,-5.661568461039652,-3.949149330483611,-5.285831408572181,-0.8227644479256812,21.711000000010245
313394.5037,-3.62622848163349,-1.603423777265489,-3.053627878941973,0.8974527829353237,21.711999999999534
313394.5047,-1.4872963635648306,0.8234376688750455,-0.7317818334175702,2.6476846691013556,21.712999999988824
313394.5057,0.47877081031628854,3.0582449709894726,1.4029792992089376,4.18891346788749,21.713999999978114
313394.5067,2.0178881480229283,4.849291157086426,3.096843697198471,5.304988973043719,21.71500000002561
313394.5077,2.9241649231430085,5.991227313617987,4.144338872660448,5.824495433015094,21.7160000000149
313394.5087,3.060782186183436,6.345240749254743,4.40882692365518,5.638025662483712,21.71700000000419
313394.5097,2.373868810252485,5.852563790312564,3.8360614656095637,4.709164929912552,21.71799999999348
313394.5107,0.8980124351107401,4.539999354171768,2.459482748959855,3.078110979596773,21.71899999998277
313394.5117,-1.2471310211731368,2.5169365042493927,0.3967430928755189,0.8575853622330072,21.71999999997206
313394.5127,-3.8687861221280233,-0.03583261295112106,-2.1621804205371813,-1.7785464759023826,21.721000000019558
313394.5137,-6.720376367688965,-2.8843759436699044,-4.9740999105178245,-4.612808007111726,21.722000000008848
313394.5147,-9.526295433790777,-5.765149471107465,-7.767059124353358,-7.406050285771407,21.722999999998137
313394.5157,-12.00967455116812,-8.411456362782985,-10.26768088511534,-9.921612646752248,21.723999999987427
313394.5167,-13.920391257309808,-10.580214989920371,-12.228709254660803,-11.949299745637557,21.724999999976717
313394.5177,-15.060537575240259,-12.076382514977716,-13.454015754383873,-13.326784114941184,21.726000000024214
313394.5187,-15.30481219582308,-12.772610629336508,-13.818587148899413,-13.956293685843557,21.727000000013504
313394.5197,-14.613797399830768,-12.62217826291097,-13.281504656624332,-13.814904999616822,21.728000000002794
313394.5207,-13.038778714664671,-11.663906812783125,-11.890612754605238,-12.957390017499284,21.728999999992084
313394.5217,-10.717595403634599,-10.018551911435031,-9.778392537130014,-11.511296174638916,21.729999999981374
313394.5227,-7.861891542267116,-7.877004710271578,-7.149419815281065,-9.664703989321682,21.730999999970663
313394.5237,-4.736984273908358,-5.4814428606433045,-4.260616994337011,-7.6478292484573664,21.73200000001816
313394.5247,-1.636294852577484,-3.1012676881870926,-1.396218966516356,-5.710246721105857,21.73300000000745
313394.5257,1.1471722394949275,-1.0061811656407351,1.1601029667262628,-4.095949666895899,21.73399999999674
313394.5267,3.3495194970241853,0.560956597456721,3.153230224324599,-3.0186811058977234,21.73499999998603
313394.5277,4.7620077184164735,1.4088198125062708,4.381952262180062,-2.639956943893301,21.73599999997532
313394.5287,5.2519091725491736,1.417422396292426,4.719192194018068,-3.051948837150713,21.737000000022817
313394.5297,4.776102731857102,0.5510705807526439,4.125102404044769,-4.2669304445707965,21.738000000012107
313394.5307,3.386052475823578,-1.1368387206867778,2.651721721474696,-6.214359468558057,21.739000000001397
313394.5317,1.2236463464607574,-3.5076828817971686,0.4387064301138662,-8.745930958220232,21.739999999990687
313394.5327,-1.4917411407598935,-6.3498077511940805,-2.29948319943256,-11.648166396784953,21.740999999979977
313394.5337,-4.4837448548997845,-9.397905205557336,-5.293725935239784,-14.66137311305834,21.742000000027474
313394.5347,-7.4451104633785965,-12.357727190245148,-8.245781574232542,-17.503190558703167,21.743000000016764
313394.5357,-10.066901238110999,-14.933767495779353,-10.856773092557491,-19.89449408953739,21.744000000006054
313394.5367,-12.068005741947017,-16.85725074603405,-12.855860998544806,-21.585196428831388,21.744999999995343
313394.5377,-13.222109513105261,-17.91173488712765,-14.02634008527229,-22.37749434154581,21.745999999984633
313394.5387,-13.379536720590966,-17.953862108898974,-14.226636388594105,-22.144352426613555,21.746999999973923
313394.5397,-12.481862165168009,-16.92726129641903,-13.404175060618398,-20.841473491919004,21.74800000002142
313394.5407,-10.567891763751913,-14.86826712546294,-11.600779972615737,-18.51163113820078,21.74900000001071
313394.5417,-7.770442802751132,-11.90291221352856,-8.949085840463088,-15.280973995888566,21.75
313394.5427,-4.304242649491262,-8.23549215947024,-5.6603135496652275,-11.347681160996942,21.75099999998929
313394.5437,-0.4461199129261044,-4.129816642438551,-2.004594346273429,-6.964079928328841,21.75199999997858
313394.5447,3.4905979122064594,0.11503622434529953,1.7142526887299725,-2.4139589224490074,21.753000000026077
313394.5457,7.185013343733134,4.192118889842321,5.187052892924983,2.012738064995101,21.754000000015367
313394.5467,10.33813506534515,7.814526046493093,8.127986335779921,6.045413425729314,21.755000000004657
313394.5477,12.700080346553039,10.741138696670072,10.300916170349876,9.456085520894177,21.755999999993946
313394.5487,14.092415186535638,12.797741807492114,11.540815360787947,12.078233307826187,21.756999999983236
313394.5497,14.423526982039313,13.891517361053607,11.76825730957372,13.819467783999675,21.757999999972526
313394.5507,13.695611018895693,14.017568895851742,10.995618113952855,14.666896076765463,21.759000000020023
313394.5517,12.00267419781064,13.256917266738407,9.324450363524397,14.684765595718188,21.760000000009313
313394.5527,9.519836407322726,11.766243365709187,6.934350848844678,14.004733973487916,21.760999999998603
313394.5537,6.485055874094959,9.760459915876126,4.064472740603544,12.80983103668983,21.761999999987893
313394.5547,3.175136856694745,7.4898921262378,0.9895456271049553,11.313791077459653,21.762999999977183
313394.5557,-0.12157529019338213,5.214367660826306,-2.0072054233385423,9.737877308087732,21.76400000002468
313394.5567,-3.13309854932747,3.1768091564793144,-4.661559326012186,8.28755230039451,21.76500000001397
313394.5577,-5.629565149915504,1.5789589718428716,-6.753507897813235,7.131346064330427,21.76600000000326
313394.5587,-7.444297494655224,0.5616427350368361,-8.127705321399743,6.384037928638324,21.76699999999255
313394.5597,-8.48816719531792,0.19151787271785925,-8.707172089783437,6.095823285075435,21.76799999998184
313394.5607,-8.755874982871678,0.4556012705253778,-8.498944931826802,6.248525946332676,21.76899999997113
313394.5617,-8.323601549576255,1.2640909946473737,-7.59116943017113,6.75920202878187,21.770000000018626
313394.5627,-7.3383437776614695,2.4611675583682118,-6.14198530139999,7.4907328852343715,21.771000000007916
313394.5637,-6.000081736558088,3.842662444232722,-4.361371329493716,8.268296961591062,21.771999999997206
313394.5647,-4.538637076508307,5.178794276598992,-2.4878170489993954,8.900013794609793,21.772999999986496
313394.5657,-3.1876122600522576,6.2396641065261855,-0.7622023276349237,9.199627016717479,21.773999999975786
313394.5667,-2.1580901340651693,6.820921106460098,0.5984567908343239,9.008879697213693,21.775000000023283
313394.5677,-1.6147959204241407,6.76698645960469,1.4247246962559454,8.21725613456918,21.776000000012573
313394.5687,-1.6571764832519797,5.989458996104273,1.613506732825948,6.777017691045813,21.777000000001863
313394.5697,-2.307359065440721,4.478798272348704,1.1399286918850933,4.711921800066508,21.777999999991152
313394.5707,-3.506262199865384,2.308043109358969,0.06109620748212676,2.1186376564740415,21.778999999980442
313394.5717,-5.11831330894464,-0.3718888771045802,-1.4886944738851868,-0.8394020629176262,21.779999999969732
313394.5727,-6.9443615222703,-3.3449398949596647,-3.3108676305725657,-3.945218322841072,21.78100000001723
313394.5737,-8.741546209615779,-6.349506948789234,-5.162358910597109,-6.947365472924223,21.78200000000652
313394.5747,-10.248173777120721,-9.10302378268832,-6.780348644751222,-9.583071351155786,21.78299999999581
313394.5757,-11.211137833276569,-11.329154103266944,-7.909494725845899,-11.603213731175188,21.7839999999851
313394.5767,-11.413142670914056,-12.784945627998425,-8.328956270336217,-12.796703829467514,21.78499999997439
313394.5777,-10.696985133981986,-13.285278896252832,-7.876500076418173,-13.011879843388282,21.786000000021886
313394.5787,-8.984416791684392,-12.722190578963954,-6.467250090877466,-12.172781032077577,21.787000000011176
313394.5797,-6.287621644268568,-11.07713486275565,-4.105150137372073,-10.288650364085456,21.788000000000466
313394.5807,-2.7120547662253744,-8.424921649135566,-0.8859126808544371,-7.455655297426804,21.788999999989755
313394.5817,1.5497746692511205,-4.928871282575162,3.008946943816654,-3.8505597421280076,21.789999999979045
313394.5827,6.23310838387311,-0.8275743798607811,7.326521289045483,0.2831464918389797,21.791000000026543
313394.5837,11.023020591925906,3.585540642114811,11.76406848377203,4.655426647435375,21.792000000015832
313394.5847,15.58174404569303,7.9879299838503455,15.995713100285913,8.954338790162652,21.793000000005122
313394.5857,19.578681593490753,12.0565273553613,19.701772877111416,12.872859339989,21.793999999994412
313394.5867,22.72026360681684,15.49650404011092,22.597923224978942,16.13539043086474,21.794999999983702
313394.5877,24.77680519694031,18.067470216567283,24.46141056123205,18.521476230521866,21.79599999997299
313394.5887,25.60378648463886,19.60463273092898,25.151795263434543,19.88451440387427,21.79700000002049
313394.5897,25.155498938886517,20.03290614249065,24.624219764182207,20.163722836716662,21.79800000000978
313394.5907,23.489721152503115,19.372649368391606,22.93390746510146,19.3882627601466,21.79899999999907
313394.5917,20.762938956932114,17.736504093778063,20.23143506507486,17.67316550798121,21.79999999998836
313394.5927,17.216525212727248,15.3176652333859,16.74920349549153,15.20748909173339,21.80099999997765
313394.5937,13.155156808335821,12.370735181390314,12.780375338319217,12.23586723351123,21.802000000025146
313394.5947,8.919486847927706,9.187022614645626,8.652267606138581,9.035236291275767,21.803000000014435
313394.5957,4.855636966712324,6.066674444603766,4.696718126869028,5.888974598692164,21.804000000003725
313394.5967,1.2843751976698556,3.290325056818614,1.2202301679315957,3.0609210399457174,21.804999999993015
313394.5977,-1.5271302271808371,1.0929818134571436,-1.5232843426978153,0.7717332479172413,21.805999999982305
313394.5987,-3.3883436173259804,-0.35736306396594125,-3.3545989523796074,-0.8201980302002987,21.806999999971595
313394.5997,-4.201049567441275,-0.9743739428935905,-4.184043378696427,-1.6315186931608854,21.808000000019092
313394.6007,-3.9662740058868833,-0.7599108662573967,-4.017791045283999,-1.6592301868235284,21.809000000008382
313394.6017,-2.7818615040525634,0.19809520606427664,-2.9550343343729573,-0.978153798754714,21.80999999999767
313394.6027,-0.8310291923321681,1.7361463880332217,-1.1763976783127563,0.2690972625921203,21.81099999998696
313394.6037,1.6369193577842824,3.6329611904779626,1.0752190018053804,1.8885494257124649,21.81199999997625
313394.6047,4.331791938449697,5.632732374480871,3.5194502991339673,3.6559999078883685,21.81300000002375
313394.6057,6.951133923102636,7.471528693481307,5.866477683256131,5.340698452868046,21.81400000001304
313394.6067,9.209488157672254,8.904214169959179,7.845498737048355,6.7291991298025,21.81500000000233
313394.6077,10.865455352827828,9.729221433823382,9.230881945020032,7.64700554052847,21.815999999991618
313394.6087,11.743959278572934,9.808740218886674,9.863480258552638,7.975870848716429,21.816999999980908
313394.6097,11.751610366983622,9.082345805244499,9.665066993992967,7.665062123876617,21.817999999970198
313394.6107,10.883753818114437,7.572749010001652,8.644545124689671,6.735511813163094,21.819000000017695
313394.6117,9.222615547797163,5.383134358738259,6.89539787520043,5.2764967668670515,21.820000000006985
313394.6127,6.926839820792056,2.6863888775400624,4.58471431602874,3.4352360288527204,21.820999999996275
313394.6137,4.213559620424195,-0.292671829126001,1.9349533139484327,1.4005082662499904,21.821999999985565
313394.6147,1.3348715854807787,-3.300280095870673,-0.7996786920717479,-0.6180119061150107,21.822999999974854
313394.6157,-1.448869855314859,-6.079580749986424,-3.359835803374464,-2.412571474870377,21.82400000002235
313394.6167,-3.896222663283696,-8.396784304913734,-5.507940129426735,-3.799967919347704,21.82500000001164
313394.6177,-5.809543469382441,-10.064982135649672,-7.05268216333959,-4.641665552750893,21.82600000000093
313394.6187,-7.055082713087086,-10.963229903180302,-7.868655585396044,-4.85932616294245,21.82699999999022
313394.6197,-7.576270798639392,-11.048975606267744,-7.90915906737058,-4.444138892278574,21.82799999997951
313394.6207,-7.398866529828533,-10.362569589718325,-7.210883095135964,-3.4589544946801367,21.82900000002701
313394.6217,-6.627459536478008,-9.023380492731516,-5.890011873641811,-2.0329501402703234,21.830000000016298
313394.6227,-5.433688944583368,-7.217875954440186,-4.130128806417318,-0.34930151455912767,21.831000000005588
313394.6237,-4.037374993710265,-5.180827607745612,-2.1631340853226613,1.3729552130731593,21.831999999994878
313394.6247,-2.6824760583938136,-3.1714874967965865,-0.24508360145666094,2.901097889032971,21.832999999984168
313394.6257,-1.6103096589197718,-1.447089623511677,1.3706295520780525,4.012738133013377,21.833999999973457
313394.6267,-1.032760286028205,-0.2363056784941792,2.4600569777638475,4.519292949314956,21.835000000020955
313394.6277,-1.1082107540352655,0.2846993712090391,2.852740032574291,4.28654864301299,21.836000000010245
313394.6287,-1.9226754918473234,0.011210407224250981,2.450579064808754,3.250224906865411,21.836999999999534
313394.6297,-3.478108646967513,-1.0780158167012786,1.23959125831754,1.4249224549097317,21.837999999988824
313394.6307,-5.689156457153827,-2.9168973918409207,-0.7066820850897094,-1.0945247942223952,21.838999999978114
313394.6317,-8.388790931771016,-5.356793186177883,-3.2325368015786293,-4.139534251816389,21.84000000002561
313394.6327,-11.342382176669147,-8.179494226671363,-6.113788198732586,-7.481571343578194,21.8410000000149
313394.6337,-14.26892618411737,-11.11723809584242,-9.07850232672289,-10.852014772644504,21.84200000000419
313394.6347,-16.867426396538754,-13.877850070998823,-11.832801252457015,-13.96624515989872,21.84299999999348
313394.6357,-18.84590182919214,-16.172603876463604,-14.089255781169815,-16.549686837240912,21.84399999998277
313394.6367,-19.950214205748473,-17.744117372328738,-15.595109276851828,-18.363326262201706,21.84499999997206
313394.6377,-19.989899703342054,-18.391581858438787,-16.157575306362578,-19.226263773585444,21.846000000019558
313394.6387,-18.85845908459701,-17.990870065200692,-15.663720529038683,-19.03312572676234,21.847000000008848
313394.6397,-16.546077879048962,-16.50755378906615,-14.09295695374858,-17.764645821418036,21.847999999998137
313394.6407,-13.143466081100337,-14.001540569543232,-11.520874875744838,-15.490371400838812,21.848999999987427
313394.6417,-8.836355161556593,-10.622844027850793,-8.113980902001861,-12.363200234534917,21.849999999976717
313394.6427,-3.8910867971588066,-6.598856305018443,-4.115783506445656,-8.606233275646046,21.851000000024214
313394.6437,1.3674144777878443,-2.2143104584982454,0.17449393092996002,-4.49316355529941,21.852000000013504
313394.6447,6.583256931545591,2.2141739990482114,4.428577258156138,-0.32403950504740514,21.853000000002794
313394.6457,11.400216149529768,6.3665466418871635,8.318664032796887,3.6013173804494314,21.853999999992084
313394.6467,15.492523966115058,9.948077984427213,11.547005090274066,7.009738364061588,21.854999999981374
313394.6477,18.59292798794362,12.715675615074868,13.87273604982792,9.678493232521634,21.855999999970663
313394.6487,20.51539617398046,14.499269692364582,15.133411422728626,11.454210147244716,21.85700000001816
313394.6497,21.170351986015074,15.216251251222074,15.25920219118034,12.265175330763213,21.85800000000745
313394.6507,20.571039917754295,14.877619760136998,14.278422999257469,12.125897995363033,21.85899999999674
313394.6517,18.830469474133285,13.585298402556168,12.313888917603025,11.133571412710982,21.85999999998603
313394.6527,16.14928561960197,11.520928486911739,9.570483076288433,9.456839904181583,21.86099999997532
313394.6537,12.795778080040641,8.927275160127088,6.315159668186344,7.318018183582147,21.862000000022817
313394.6547,9.079986937704826,6.084085349904309,2.851330031362267,4.970532498781191,21.863000000012107
313394.6557,5.324415673060899,3.280766736888003,-0.5098874016876869,2.673802160620507,21.864000000001397
313394.6567,1.834171870758443,0.7885524345361574,-3.4787810809915247,0.6680121188914954,21.864999999990687
313394.6577,-1.1306091901123914,-1.1651484743650444,-5.813730200090823,-0.8487797181333202,21.865999999979977
313394.6587,-3.377444563951325,-2.4177422578746315,-7.342913755343775,-1.7390013371089097,21.867000000027474
313394.6597,-4.797167928730694,-2.885779804317982,-7.978995825119039,-1.937650258827569,21.868000000016764
313394.6607,-5.371156471750094,-2.5712825236490877,-7.725431311272962,-1.4569860407490416,21.869000000006054
313394.6617,-5.169531311388685,-1.5595151205339222,-6.673859079646993,-0.3834473464275286,21.869999999995343
313394.6627,-4.340628257401471,-0.008498222995685464,-4.992921027080808,1.1328247819077406,21.870999999984633
313394.6637,-3.0928881320586563,1.8686349098311754,-2.9096808601692965,2.8947506355671972,21.871999999973923
313394.6647,-1.6710515972261475,3.8266331433795036,-0.6855337475237736,4.679642231591199,21.87300000002142
313394.6657,-0.3290907829307437,5.614148527327981,1.4109723956558329,6.262938123992466,21.87400000001071
313394.6667,0.697384107752861,7.000168172547536,3.1316928370868644,7.441952888376342,21.875
313394.6677,1.2164699807479773,7.798209690843906,4.274084756019422,8.057260350336415,21.87599999998929
313394.6687,1.100533083666769,7.8858625083007166,4.701559951621629,8.009573352489845,21.87699999997858
313394.6697,0.2999415165710515,7.217725360891175,4.356992530058418,7.270437033560418,21.878000000026077
313394.6707,-1.1513898810358583,5.830450392463572,3.2680680488908322,5.88567213027845,21.879000000015367
313394.6717,-3.1391786210791515,3.8393913156641504,1.5439740256798804,3.9712284173524783,21.880000000004657
313394.6727,-5.480340957506625,1.4271894210416411,-0.6362071178796319,1.7018646162432387,21.880999999993946
313394.6737,-7.94177055561174,-1.1745656468219572,-3.0422175386407866,-0.7062146634247838,21.881999999983236
313394.6747,-10.264433453013792,-3.708772685192765,-5.4165649016978845,-3.017032533786404,21.882999999972526
313394.6757,-12.190350814160418,-5.919015430273258,-7.501275612341778,-4.998661390157491,21.884000000020023
313394.6767,-13.489749413579412,-7.575901589720473,-9.06477168076615,-6.4468136643769425,21.885000000009313
313394.6777,-13.985637910406577,-8.500906535527244,-9.926169138821127,-7.205842145178597,21.885999999998603
313394.6787,-13.573316990331305,-8.585323895977927,-9.974549922751015,-7.185042775689999,21.886999999987893
313394.6797,-12.232828778222904,-7.802402803526581,-9.181255527208467,-6.368613912594358,21.887999999977183
313394.6807,-10.033046647205614,-6.211419700286895,-7.603940674734162,-4.818250271088444,21.88900000002468
313394.6817,-7.12693221306351,-3.953225827913831,-5.381940841979047,-2.668075762603221,21.89000000001397
313394.6827,-3.738360639621757,-1.2376519501706476,-2.7233684761562866,-0.11237572716804606,21.89100000000326
313394.6837,-0.14175229221353552,1.6760431057919074,0.11482563548791679,2.6126987536927144,21.89199999999255
313394.6847,3.3635342150377516,4.50380302505008,2.8518880483166495,5.251683811674496,21.89299999998184
313394.6857,6.48156618448157,6.964098717908828,5.210945732330905,7.554417524087394,21.89399999997113
313394.6867,8.94819322037646,8.80528699863251,6.946615076397355,9.30031115538882,21.895000000018626
313394.6877,10.556618291285279,9.830327979811386,7.869810725486837,10.319897758842586,21.896000000007916
313394.6887,11.177666142981192,9.916432894194072,7.867291544178178,10.511538706871855,21.896999999997206
313394.6897,10.77273967587345,9.027699318675664,6.913987011374957,9.851636817808695,21.897999999986496
313394.6907,9.398161196053696,7.219467244422569,5.076846746749527,8.397335562466923,21.898999999975786
313394.6917,7.200431227932586,4.633931261082533,2.509780405338322,6.281415723829578,21.900000000023283
313394.6927,4.402821202807798,1.4873931275551573,-0.5598757224621124,3.699862262924516,21.901000000012573
313394.6937,1.2845614000047698,-1.94964766727684,-3.8521004229288325,0.8932904968101816,21.902000000001863
313394.6947,-1.8453907099630358,-5.3776695255788285,-7.060165551065716,-1.8759781327176794,21.902999999991152
313394.6957,-4.677485022937669,-8.496159838935693,-9.879362130055805,-4.348973349069028,21.903999999980442
313394.6967,-6.930812432889759,-11.031809711337106,-12.03571184854649,-6.294837985636384,21.904999999969732
313394.6977,-8.379619334183621,-12.76416062272331,-13.311895421188678,-7.532891957335053,21.90600000001723
313394.6987,-8.874544854599483,-13.546234936439596,-13.567893026832007,-7.949855897068813,21.90700000000652
313394.6997,-8.356532053713224,-13.318165568821104,-12.754339886506092,-7.510561588696746,21.90799999999581
313394.7007,-6.862073502489372,-12.112516401920116,-10.917302662411709,-6.261109325675144,21.9089999999851
313394.7017,-4.51929160396396,-10.050788351293628,-8.194011387022513,-4.324167108591286,21.90999999997439
313394.7027,-1.5352428794355542,-7.3314582414003615,-4.799956346776042,-1.8868714807720042,21.911000000021886
313394.7037,1.824313416525432,-4.210715881717581,-1.0085945505495806,0.8174898602305872,21.912000000011176
313394.7047,5.260711561424184,-0.9777694037167507,2.8743752450992672,3.5322280677996276,21.913000000000466
313394.7057,8.471231221380592,2.0728884657686995,6.539686073150786,6.002218682917597,21.913999999989755
313394.7067,11.178201532119306,4.6695706647480275,9.703359492564061,7.998650277778805,21.914999999979045
313394.7077,13.155533017422023,6.589130969452647,12.132966546449113,9.341145629126094,21.916000000026543
313394.7087,14.250106978932148,7.677866711966593,13.66877043342754,9.915101768594045,21.917000000015832
313394.7097,14.395956191353076,7.8655861815500145,14.237729809954518,9.682562193930455,21.918000000005122
313394.7107,13.619875839939095,7.1715061346018585,13.859039016677487,8.68556589944896,21.918999999994412
313394.7117,12.037940768532314,5.701441576880826,12.640706745471835,7.041652064981896,21.919999999983702
313394.7127,9.843292526439138,3.6365973934960643,10.767547196571348,4.931964563584595,21.92099999997299
313394.7137,7.286410794297354,1.2150868525653302,8.481792507517914,2.5831222120026216,21.92200000002049
313394.7147,4.649815502485447,-1.291993921251623,6.058250799746169,0.24462846660504586,21.92300000000978
313394.7157,2.2196869977858538,-3.6075821678114037,3.776460903695425,-1.8359712151160006,21.92399999999907
313394.7167,0.25718929449619354,-5.476108472244357,1.8925814963215117,-3.437757205584348,21.92499999998836
313394.7177,-1.0276931052535183,-6.688718833319224,0.6137713020934943,-4.388519523273697,21.92599999997765
313394.7187,-1.4972433816285402,-7.1038041747749965,0.07756663060510328,-4.582101334920284,21.927000000025146
313394.7197,-1.0999631000265249,-6.660848774502159,0.3382676209104644,-3.98930889687739,21.928000000014435
313394.7207,0.1239770455367923,-5.386268295463367,1.3616537776429856,-2.661322544696099,21.929000000003725
313394.7217,2.0463165517116835,-3.390695591893245,3.0285304639131767,-0.7252745934706781,21.929999999993015
313394.7227,4.46296122760219,-0.8580109776584905,5.146741177869398,1.627576800095884,21.930999999982305
313394.7237,7.113714894766239,1.972778954863431,7.470450520678866,4.159928167468175,21.931999999971595
313394.7247,9.707555727040567,4.831012561568538,9.724790922637263,6.611008307873342,21.933000000019092
313394.7257,11.950986058429628,7.440873874328933,11.633441977364114,8.721459996216723,21.934000000008382
313394.7267,13.57668638632486,9.54831186796078,12.94642577868424,10.258111778078117,21.93499999999767
313394.7277,14.369677261610372,10.94573368995775,13.465382695522806,11.036240492644277,21.93599999998696
313394.7287,14.188439182457868,11.492053340663386,13.063841186992686,10.937173916213759,21.93699999997625
313394.7297,12.978936132011624,11.126140450014192,11.700487931110306,9.919541119579504,21.93800000002375
313394.7307,10.780184297704455,9.872368236424743,9.424132264991,8.023100697930953,21.93900000001304
313394.7317,7.720835477694734,7.83774091945063,6.3698741855221925,5.364802841220864,21.94000000000233
313394.7327,4.007123531124378,5.200911875066373,2.746847956728086,2.127499103905399,21.940999999991618
313394.7337,-0.09663414900661134,2.194202925017237,-1.1812608824929043,-1.457570522861445,21.941999999980908
313394.7347,-4.293062369694992,-0.919576214339133,-5.121019540485017,-5.132780058077813,21.942999999970198
313394.7357,-8.279826345156975,-3.873198788797858,-8.776946970316073,-8.63844386986482,21.944000000017695
313394.7367,-11.778051955891817,-6.4213903700925785,-11.879399524383176,-11.737082082787127,21.945000000006985
313394.7377,-14.558291985568042,-8.364878581692514,-14.209918459346227,-14.23525545790983,21.945999999996275
313394.7387,-16.4615089140501,-9.569737121021525,-15.621565257122256,-16.00084796344641,21.946999999985565
313394.7397,-17.413039368940836,-9.980105618739287,-16.052264041267723,-16.974130994629988,21.947999999974854
313394.7407,-17.428199005221614,-9.623023949689081,-15.529857727355038,-17.17156182478834,21.94900000002235
313394.7417,-16.609011155933434,-8.604901452687292,-14.168398440107826,-16.68198937317041,21.95000000001164
313394.7427,-15.132417028464308,-7.099971138367378,-12.156053255415745,-15.65569179091016,21.95100000000093
313394.7437,-13.2311636035471,-5.3318746451123715,-9.735829021653197,-14.287378728572069,21.95199999999022
313394.7447,-11.1692853870565,-3.550207017011058,-7.181024147663923,-12.794886753119513,21.95299999997951
313394.7457,-9.214627070234902,-2.0043539016741154,-4.7678317233707865,-11.395720628907535,21.95400000002701
313394.7467,-7.611143850586091,-0.9172277113385354,-2.7477964920241393,-10.28380432307461,21.955000000016298
313394.7477,-6.553736220502015,-0.46152640897376124,-1.3228407401625228,-9.608782853382154,21.956000000005588
313394.7487,-6.168124488740022,-0.7408968560186892,-0.6253199003083056,-9.459961679375825,21.956999999994878
313394.7497,-6.497769876329916,-1.7779075228961543,-0.7050725492900343,-9.856509246861249,21.957999999984168
313394.7507,-7.499152684829944,-3.5100694149382146,-1.524740249378578,-10.744925871162307,21.958999999973457
313394.7517,-9.0458921760395,-5.794354504087089,-2.963817999373627,-12.004059619476068,21.960000000020955
313394.7527,-10.94131856593383,-8.419825188910773,-4.831035938822976,-13.457198345426006,21.961000000010245
313394.7537,-12.938270831268653,-11.127188353652834,-6.88385185152594,-14.89006056398395,21.961999999999534
313394.7547,-14.76417710702306,-13.633402044689545,-8.853132595084789,-16.072916094877574,21.962999999988824
313394.7557,-16.148947840096803,-15.658959059595796,-10.470589756119265,-16.784648806113534,21.963999999978114
313394.7567,-16.85292743402505,-16.955199504587963,-11.496261010225666,-16.83636986565191,21.96500000002561
313394.7577,-16.692136005708015,-17.328990623120173,-11.743320818014427,-16.09222113344011,21.9660000000149
313394.7587,-15.558290710907219,-16.662358628718266,-11.097763085167292,-14.485272114299464,21.96700000000419
313394.7597,-13.431600847183077,-14.925140107527568,-9.530998946664324,-12.026884837719855,21.96799999999348
313394.7607,-10.385033361315795,-12.179392855803894,-7.104105896465074,-8.808553375193323,21.96899999998277
313394.7617,-6.579576828806603,-8.575102288150417,-3.9632821753160683,-4.9959568058723125,21.96999999997206
313394.7627,-2.2509111178499013,-4.337562142974081,-0.32692251756931123,-0.8157247923406552,21.971000000019558
313394.7637,2.3112692311413707,0.25238508697227685,3.5344464699730267,3.463870843415213,21.972000000008848
313394.7647,6.78930970710412,4.883370486976528,7.3234314773343305,7.5564870130807416,21.972999999998137
313394.7657,10.866531432616428,9.241396385099826,10.743786273395257,11.183307845851528,21.973999999987427
313394.7667,14.256264588012037,13.037943929809021,13.528449741857699,14.098229022484599,21.974999999976717
313394.7677,16.72818185311282,16.03560621721137,15.464877871559084,16.110216426989645,21.976000000024214
313394.7687,18.129392130060324,18.06880452191498,16.415200638538607,17.100692307361413,21.977000000013504
313394.7697,18.39826058412573,19.057624304494656,16.329237661683614,17.034275912865787,21.978000000002794
313394.7707,17.569625214615073,19.01347716809693,15.24910202236451,15.961842500556351,21.978999999992084
313394.7717,15.770914030296437,18.036089413058054,13.304941704838184,14.015602806580484,21.979999999981374
313394.7727,13.20954904902944,16.302159700556608,10.702232525169523,11.396672754366021,21.980999999970663
313394.7737,10.152867637905413,14.046835393236577,7.701860602746405,8.35632559576382,21.98200000001816
313394.7747,6.9025157243035595,11.539850637797858,4.5949357416656245,5.172725504687003,21.98300000000745
313394.7757,3.7658004672173724,9.058681573174429,1.6747906944676578,2.1253737718814105,21.98399999999674
313394.7767,1.0267800835223473,6.861355314922465,-0.7911051066929276,-0.5302858772135514,21.98499999998603
313394.7777,-1.0801125632443636,5.161572326632172,-2.5865819588273644,-2.585678616059272,21.98599999997532
313394.7787,-2.3913700016415684,4.108564464979503,-3.567081756033888,-3.8971599613056287,21.987000000022817
313394.7797,-2.8285931473229007,3.7736368638500344,-3.6728734084373316,-4.397628601397788,21.988000000012107
313394.7807,-2.40421724836791,4.14467755502093,-2.9338955902299033,-4.100624056744009,21.989000000001397
313394.7817,-1.2182715211565134,5.129129555388427,-1.465771157436028,-3.0965773392964495,21.989999999990687
313394.7827,0.5534573207814399,6.565083544761916,0.5425972660757135,-1.5416482321353688,21.990999999979977
313394.7837,2.67864538983497,8.239347311495374,2.8486159622807845,0.3596958043221453,21.992000000027474
313394.7847,4.893101362167947,9.910659557724253,5.18083429033992,2.3765972432600773,21.993000000016764
313394.7857,6.92841960751769,11.335708034499874,7.266571299621173,4.276027697531773,21.994000000006054
313394.7867,8.539861761482854,12.295335200404079,8.859607795914165,5.846896742831517,21.994999999995343
313394.7877,9.531693817627737,12.618295929682798,9.765210266219512,6.9216584014577185,21.995999999984633
313394.7887,9.777460540209486,12.200173199775621,9.860014593354963,7.393278270938268,21.996999999973923
313394.7897,9.23318142652477,11.015535611183896,9.104801694288282,7.225888963384562,21.99800000002142
313394.7907,7.942153288298955,9.122088253843165,7.548894849554949,6.458090206745943,21.99900000001071
313394.7917,6.030874999488669,6.656360386557494,5.325731321503364,5.198580830471501,22.0
313394.7927,3.696488548221661,3.821311923835553,2.640028333493535,3.614571074364566,22.00099999998929
313394.7937,1.1869709449424806,0.8670434503884683,-0.25220938849544117,1.9141403993543085,22.00199999997858
313394.7947,-1.2239688146360186,-1.933517557552824,-3.0688876258862554,0.3243077796933772,22.003000000026077
313394.7957,-3.2648054468004077,-4.311576237556323,-5.529758362792729,-0.9329908728311936,22.004000000015367
313394.7967,-4.694158968825936,-6.029424671585546,-7.384351646755043,-1.6646120691972828,22.005000000004657
313394.7977,-5.326022708965996,-6.904727094345491,-8.437156782363038,-1.7272205012802178,22.005999999993946
313394.7987,-5.049738883800762,-6.829720570039986,-8.567569798068774,-1.0434912584069655,22.006999999983236
313394.7997,-3.8427115586201213,-5.783402003527066,-7.742631375559971,0.38815166025940573,22.007999999972526
313394.8007,-1.7745539195964777,-3.8354491860703033,-6.021280690827654,2.4912775672701932,22.009000000020023
313394.8017,0.9977967556583375,-1.14142506092239,-3.549677401649269,5.116954604999581,22.010000000009313
313394.8027,4.2435790665037665,2.0703376675286127,-0.5480155248728732,8.056537313402496,22.010999999998603
313394.8037,7.67906008110018,5.518962902820695,2.7099160324986973,11.060536755393326,22.011999999987893
313394.8047,10.993755085082817,8.896464023839231,5.922462268700751,13.861771507420084,22.012999999977183
313394.8057,13.87949857591865,11.895966848964648,8.788638082615746,16.200570812894746,22.01400000002468
313394.8067,16.059564933703452,14.24002846243804,11.03671308196942,17.849591390008097,22.01500000001397
313394.8077,17.315024475641643,15.706341292011954,12.450079447792175,18.635837544293103,22.01600000000326
313394.8087,17.50578226505035,16.148358744743867,12.887899367076402,18.457737831492885,22.01699999999255
313394.8097,16.584257705307397,15.508865038962037,12.298534827140012,17.295604973390546,22.01799999998184
313394.8107,14.600372851906174,13.825190345022502,10.724463375755159,15.214442929677187,22.01899999997113
313394.8117,11.69735727619411,11.225576926076377,8.298210294935688,12.358803824169476,22.020000000018626
313394.8127,8.098765252981279,7.917054301147656,5.2296997154655855,8.94016571967057,22.021000000007916
313394.8137,4.087950371349692,4.165998534918039,1.786259326306677,5.218025050978768,22.021999999997206
313394.8147,-0.01802947398946064,0.27325305654660437,-1.7327757287619854,1.476504331118114,22.022999999986496
313394.8157,-3.897568321192137,-3.453792370299396,-5.024393761092917,-2.0012926317257893,22.023999999975786
313394.8167,-7.253930328063495,-6.729482142793086,-7.810427011142776,-4.958731359076985,22.025000000023283
313394.8177,-9.842112452966205,-9.31582764463473,-9.863505407364563,-7.18848010048766,22.026000000012573
313394.8187,-11.490590218910377,-11.043623566740564,-11.027945254822207,-8.550562003702314,22.027000000001863
313394.8197,-12.115890089313554,-11.826756588714794,-11.233575823630703,-8.983931083955662,22.027999999991152
313394.8207,-11.728636175984912,-11.668385378694365,-10.501202174569508,-8.510509969335143,22.028999999980442
313394.8217,-10.430553348784548,-10.658467594278285,-8.939223656407766,-7.231362227624607,22.029999999969732
313394.8227,-8.402791547477614,-8.962954866123365,-6.73179377243004,-5.315436824777593,22.03100000001723
313394.8237,-5.88678076729922,-6.805787900166031,-4.119733622155779,-2.982042091892026,22.03200000000652
313394.8247,-3.1595501558842796,-4.445521562139477,-1.376116921078124,-0.47881110887805833,22.03299999999581
313394.8257,-0.5059771639369077,-2.1489260175408305,1.2210393798422647,1.9426493804459664,22.0339999999851
313394.8267,1.8092782077739655,-0.16419444700707486,3.4162690258035826,4.05102042701865,22.03499999997439
313394.8277,3.56738137397904,1.3035869482869975,5.00161628278994,5.657059532112446,22.036000000021886
313394.8287,4.6159558639148095,2.112287048919654,5.836601822859976,6.630790557188627,22.037000000011176
313394.8297,4.882725983814909,2.1959502748950595,5.861235647718071,6.912434915550949,22.038000000000466
313394.8307,4.380855231992669,1.5701083596771246,5.1008114215881655,6.516052709499936,22.038999999989755
313394.8317,3.2054956009398796,0.32869239967701147,3.662034254824529,5.525591737829843,22.039999999979045
313394.8327,1.521939323406987,-1.3671084287452653,1.7208954134899888,4.08380025870906,22.041000000026543
313394.8337,-0.4533982231540085,-3.3068927114704114,-0.4964721965441371,2.3751713000672257,22.042000000015832
313394.8347,-2.4772203538827107,-5.254160128614568,-2.738025421521255,0.6046819243954862,22.043000000005122
313394.8357,-4.306348517035029,-6.972148823699251,-4.752689018180851,-1.0254886485541927,22.043999999994412
313394.8367,-5.72473322077553,-8.249778853143722,-6.317173611028928,-2.3388744078168475,22.044999999983702
313394.8377,-6.567723177956216,-8.925068331792485,-7.260027047522137,-3.204917080718057,22.04599999997299
313394.8387,-6.741105157123957,-8.903634292054342,-7.480481008954991,-3.554352927771255,22.04700000002049
313394.8397,-6.232939960160173,-8.170372628526902,-6.960164654922243,-3.3881804153121102,22.04800000000978
313394.8407,-5.116930009677823,-6.793083627721853,-5.766458865204791,-2.7792344509116504,22.04899999999907
313394.8417,-3.5468917474212875,-4.917605613995863,-4.047089598443662,-1.866129020482639,22.04999999998836
313394.8427,-1.7427893019264986,-2.754861062521586,-2.016426132724669,-0.8400929723885602,22.05099999997765
313394.8437,0.030372046642264557,-0.5610244250737594,0.06522565739496565,0.07406174039077586,22.052000000025146
313394.8447,1.4887760403958223,1.3872903222133162,1.9173443742007543,0.6410043210710522,22.053000000014435
313394.8457,2.358609537410337,2.820419702158576,3.267430433670851,0.6397289473239494,22.054000000003725
313394.8467,2.40464442975937,3.5029449840979234,3.8789973468178442,-0.1122732111992804,22.054999999993015
313394.8477,1.455769533269402,3.2582078598852733,3.576560149583936,-1.7379237998194565,22.055999999982305
313394.8487,-0.5750715138601576,1.9876180840434268,2.2651396110429176,-4.28468103438658,22.056999999971595
313394.8497,-3.6785566923043325,-0.31718441302859185,-0.05768008731856804,-7.715521405840846,22.058000000019092
313394.8507,-7.745573766320113,-3.570567348657127,-3.298389946032682,-11.907771943546562,22.059000000008382
313394.8517,-12.573165170012514,-7.5979903708718854,-7.273303830272307,-16.660034000181128,22.05999999999767
313394.8527,-17.87937548454864,-12.149528232059707,-11.72294813975248,-21.706660543426484,22.06099999998696
313394.8537,-23.32568886422625,-16.920608213531132,-16.33378915179494,-26.73851835887005,22.06199999997625
313394.8547,-28.545009391416492,-21.578036819810738,-20.76528083030751,-31.4281555189041,22.06300000002375
313394.8557,-33.17259861114019,-25.788875545612836,-24.679696888012707,-35.45706254496813,22.06400000001304
313394.8567,-36.87709394051971,-29.24944581438335,-27.77193648290992,-38.54250510581735,22.06500000000233
313394.8577,-39.3887176663863,-31.71172643447359,-29.79649001364455,-40.46143757134719,22.065999999991618
313394.8587,-40.52205033132832,-33.00465491719403,-30.589020487284827,-41.06927746558263,22.066999999980908
313394.8597,-40.19125890497,-33.04833272552383,-30.080530797738422,-40.31180475512011,22.067999999970198
313394.8607,-38.41638912195821,-31.85981646651797,-28.302797943585773,-38.229100169888206,22.069000000017695
313394.8617,-35.32018295061132,-29.549985856266485,-25.384592626049585,-34.95119042577629,22.070000000006985
313394.8627,-31.11578369100704,-26.31183626792207,-21.539085373849392,-30.685852337001954,22.070999999996275
313394.8637,-26.086555256978382,-22.401365450624066,-17.043682547342655,-25.699766513141228,22.071999999985565
313394.8647,-20.559985090402936,-18.112930694109348,-12.214255499589466,-20.294833283133485,22.072999999974854
313394.8657,-14.878190120231682,-13.75147571499911,-7.376254038223744,-14.781908789819155,22.07400000002235
313394.8667,-9.367849356706241,-9.604315250690956,-2.8354801726688352,-9.45444525653169,22.07500000001164
313394.8677,-4.312416302473221,-5.9151920857851765,1.1486872413180451,-4.564505065716091,22.07600000000093
313394.8687,0.07078259216347296,-2.863083939075976,4.385082705018205,-0.3033657856666149,22.07699999999022
313394.8697,3.6464556640038572,-0.5477600351008275,6.765526521051663,3.211531897794918,22.07799999997951
313394.8707,6.3688526160835925,1.0165835518407464,8.271244192404856,5.942173117347778,22.07900000002701
313394.8717,8.280295804867453,1.8990785820312954,8.970421826530638,7.927710445383952,22.080000000016298
313394.8727,9.501046112267304,2.241644901356599,9.007256995014796,9.274742150929988,22.081000000005588
313394.8737,10.211661349263078,2.2412844353310097,8.583695659336717,10.141236128924415,22.081999999994878
313394.8747,10.629734267132227,2.127036174713473,7.935756399298401,10.715819889798224,22.082999999984168
313394.8757,10.983436322084744,2.133936698094421,7.306863947279565,11.194595278084522,22.083999999973457
313394.8767,11.484590061372076,2.4766160063583023,6.9208943566126315,11.757859594279397,22.085000000020955
313394.8777,12.304019008397788,3.325184129319516,6.95764710612088,12.549101539673956,22.086000000010245
313394.8787,13.551677515280119,4.785828100501297,7.53320442898086,13.658393127924546,22.086999999999534
313394.8797,15.263569295427573,6.888065107660495,8.687140813950263,15.111842598252817,22.087999999988824
313394.8807,17.396771588377142,9.579932824081409,10.377855368412103,16.8681540446419,22.088999999978114
313394.8817,19.833060877028775,12.731607682489088,12.486484837620885,18.822618487281446,22.09000000002561
313394.8827,22.39076712423393,16.147103968265043,14.828995986311394,20.818109865298318,22.0910000000149
313394.8837,24.84365259153868,19.582903478400112,17.175237476639126,22.661952183116625,22.09200000000419
313394.8847,26.944900594599076,22.771676043037267,19.273033989356904,24.14693062413776,22.09299999999348
313394.8857,28.453779299634682,25.448743167089688,20.874897856577224,25.074298407348454,22.09399999998277
313394.8867,29.1622673579308,27.378660326491897,21.764665948314654,25.276424047228044,22.09499999997206
313394.8877,28.91891946659349,28.37927524755134,21.781368441095037,24.636750948980826,22.096000000019558
313394.8887,27.64751194465015,28.340861642397396,20.837901675251754,23.105000312471557,22.097000000008848
313394.8897,25.35851557693754,27.23840665758012,18.932583645885945,20.70601368943909,22.097999999998137
313394.8907,22.152145598883855,25.135798783397576,16.152368162193355,17.54125747319674,22.098999999987427
313394.8917,18.212567781533835,22.181455611772876,12.66731392338447,13.782736495782794,22.099999999976717
313394.8927,13.793713615972344,18.595769864783204,8.716767155527487,9.659816372693788,22.101000000024214
313394.8937,9.197990556479505,14.651555212568049,4.58853627469129,5.440160099321445,22.102000000013504
313394.8947,4.749883055689629,10.649361724858514,0.5930336292048386,1.4065740036623715,22.103000000002794
313394.8957,0.7669566000206908,6.890036753148302,-2.965135913868395,-2.1680268090269896,22.103999999992084
313394.8967,-2.4689510948187214,3.6471808842998774,-5.815396817657281,-5.045124134945324,22.104999999981374
313394.8977,-4.737567433081871,1.1421633519310461,-7.746497458404321,-7.042200681285926,22.105999999970663
313394.8987,-5.900538882492588,-0.4758846526536239,-8.626412701883636,-8.049338967260978,22.10700000001816
313394.8997,-5.914308335308146,-1.1431629987735874,-8.414904342381,-8.039187857172156,22.10800000000745
313394.9007,-4.83423768118198,-0.8861184166420017,-7.167495540449174,-7.0693062112539815,22.10899999999674
313394.9017,-2.809539045103438,0.1822844485950075,-5.030444517460024,-5.276628383662684,22.10999999998603
313394.9027,-0.06946449829370728,1.8745623429969387,-2.227173856270254,-2.8645582401318834,22.11099999997532
313394.9037,3.0979513579437166,3.947803283741522,0.9625602352345812,-0.08391250930333795,22.112000000022817
313394.9047,6.3725811715957486,6.12797718407749,4.228770314962017,2.7904692829133673,22.113000000012107
313394.9057,9.431786486177204,8.137090264894185,7.260112147268816,5.485210771864764,22.114000000001397
313394.9067,11.980071102273847,9.720531723349353,9.772763179896117,7.753540235262414,22.114999999990687
313394.9077,13.775979871012769,10.67194598784266,11.536537741864896,9.397681833012346,22.115999999979977
313394.9087,14.65368477586434,10.853209638685025,12.39574145282843,10.286359702173234,22.117000000027474
313394.9097,14.537216533647715,10.207574619133826,12.282779946707038,10.365754990461738,22.118000000016764
313394.9107,13.446014266106848,8.7647114057225,11.223242396146137,9.662894511619035,22.119000000006054
313394.9117,11.491308427353221,6.637181483924364,9.332009601553343,8.281187559429597,22.119999999995343
313394.9127,8.8637409464833,4.008709800690763,6.800808595485968,6.388592417015502,22.120999999984633
313394.9137,5.813474778020146,1.1154323769566874,3.878465643695001,4.199611446193495,22.121999999973923
313394.9147,2.6247700345498086,-1.778016898372114,0.8458161829106841,1.9529131747127824,22.12300000002142
313394.9157,-0.4124650444693463,-4.405210632797709,-2.012255314217312,-0.11319713648344765,22.12400000001071
313394.9167,-3.031354535110959,-6.5247809282684655,-4.434900428054812,-1.7850317611373772,22.125
313394.9177,-5.014160665296852,-7.944765158621968,-6.2107682978046865,-2.895105655371397,22.12599999998929
313394.9187,-6.2132709220862,-8.542036199512074,-7.198360386414795,-3.33892596590856,22.12699999997858
313394.9197,-6.5650324724706985,-8.274892917954329,-7.339303305879731,-3.085335307976866,22.128000000026077
