TimeStamp,ECR,FCR,ECU,FCU,time_index
313378.7917,12.798318327043358,12.44764642503958,12.568425489219855,8.558310970665389,6.0
313378.7927,12.408089145036982,12.351894672536575,12.534231664125405,8.320847407755233,6.00099999998929
313378.7937,11.099350747142223,11.32087910132651,11.585096052209389,7.286780988990037,6.00199999997858
313378.7947,8.992399601305431,9.459884430393656,9.839685560514823,5.563725832698854,6.003000000026077
313378.7957,6.2842784522805575,6.951026337551772,7.493417220628571,3.325528314339569,6.004000000015367
313378.7967,3.2295972174912326,4.035128811456953,4.7991951390517755,0.7948636920264756,6.005000000004657
313378.7977,0.1156439592670563,0.9879259469574387,2.042491105361888,-1.7789288975756103,6.005999999993946
313378.7987,-2.765777081217644,-1.9070681710527044,-0.4867977132017001,-4.14459029048731,6.006999999983236
313378.7997,-5.147017682251034,-4.386352559132941,-2.522963093298172,-6.073828954932998,6.007999999972526
313378.8007,-6.810950425132401,-6.23216318150687,-3.850772531688041,-7.383904056599262,6.009000000020023
313378.8017,-7.612429904352139,-7.293600245570792,-4.326853940657443,-7.95568237981148,6.010000000009313
313378.8027,-7.492730683112924,-7.501084657544834,-3.8940805669720677,-7.7453924017971225,6.010999999998603
313378.8037,-6.485527336029593,-6.8727260444284175,-2.5875405882387357,-6.788918065584722,6.011999999987893
313378.8047,-4.7138085796834135,-5.511980728033867,-0.5314967109883489,-5.198207752752673,6.012999999977183
313378.8057,-2.3780049496662032,-3.596835239164559,2.0723794827115407,-3.1501487701450412,6.01400000002468
313378.8067,0.2635291172703844,-1.3615853007891139,4.9643616342855745,-0.8689983674009212,6.01500000001397
313378.8077,2.9197869740673066,0.9269901834223832,7.851732918074151,1.395903747508956,6.01600000000326
313378.8087,5.295676518021722,2.9967073634539063,10.437124003400935,3.394951428767747,6.016999999992549
313378.8097,7.121096173386751,4.597632649692408,12.447367496817419,4.9031762961272936,6.017999999981839
313378.8107,8.177679167142845,5.52757971436235,13.660060166747343,5.742788636402337,6.018999999971129
313378.8117,8.320587767243573,5.652921813525099,13.925246904383432,5.801132849424429,6.0200000000186265
313378.8127,7.493217968933974,4.922650043768417,13.180115491898093,5.042282725823269,6.021000000007916
313378.8137,5.733363571587863,3.374269016975355,11.455272437732194,3.511123663610367,6.021999999997206
313378.8147,3.170219574765247,1.1309214802210337,8.871990853776087,1.3295042971526059,6.022999999986496
313378.8157,0.012497242029129127,-1.6100056674283674,5.630701399407167,-1.3151830528564474,6.023999999975786
313378.8167,-3.4712101188457516,-4.595704023108022,1.9918507075653773,-4.187891275198652,6.025000000023283
313378.8177,-6.977915317518118,-7.542373097752745,-1.7490049483487657,-7.0285396913569915,6.026000000012573
313378.8187,-10.199112092560114,-10.162879999234004,-5.2894423112263445,-9.577164898403726,6.027000000001863
313378.8197,-12.850237622620963,-12.194950129244166,-8.348998424310382,-11.59914801490539,6.027999999991152
313378.8207,-14.697864907117959,-13.427130609507808,-10.695776523842895,-12.90805442189432,6.028999999980442
313378.8217,-15.58198692509814,-13.719978903404778,-12.168244351908772,-13.38385239054294,6.029999999969732
313378.8227,-15.431231457566446,-13.020389305612818,-12.690111083476161,-12.984725868834836,6.0310000000172295
313378.8237,-14.26953315586301,-11.36763488776456,-12.276847697710302,-11.751320356737498,6.032000000006519
313378.8247,-12.213620745970262,-8.890507309939936,-11.033234050646062,-9.802998315723075,6.032999999995809
313378.8257,-9.461571028234511,-5.795803106593658,-9.14219400271369,-7.326459859897197,6.033999999985099
313378.8267,-6.273550308497741,-2.3492480482234885,-6.846031781651873,-4.557829380271413,6.034999999974389
313378.8277,-2.9466232450188756,1.1493114005624545,-4.4219249736510555,-1.7599464223639618,6.036000000021886
313378.8287,0.21391530519905302,4.394060754470926,-2.1540895384188876,0.8029327975191977,6.037000000011176
313378.8297,2.923894165451095,7.101998221818544,-0.3053552988366351,2.8905641825085735,6.038000000000466
313378.8307,4.9474510863975025,9.039564553390713,0.9090550606849728,4.3098032544217695,6.0389999999897555
313378.8317,6.1194105752818055,10.04455103340984,1.3429695641343662,4.933108592461343,6.039999999979045
313378.8327,6.36068853946004,10.04117302668057,0.9338303768406014,4.710666268598102,6.041000000026543
313378.8337,5.68524205715973,9.046860665051517,-0.2910485614528031,3.67496335975111,6.0420000000158325
313378.8347,4.197910711856544,7.170123334730435,-2.2171389378218924,1.9373758859140573,6.043000000005122
313378.8357,2.0833870001481785,4.599711980872724,-4.654004002379247,-0.3228840925497081,6.043999999994412
313378.8367,-0.412579875046428,1.5861481607762102,-7.354137370960007,-2.8763722349793035,6.044999999983702
313378.8377,-3.0078847889372993,-1.582571253994634,-10.03747965942117,-5.465838335680351,6.045999999972992
313378.8387,-5.412235452339074,-4.608722020249288,-12.41920079623799,-7.831278410091459,6.047000000020489
313378.8397,-7.356017229051717,-7.213350620035246,-14.238015540761456,-9.735161921569949,6.048000000009779
313378.8407,-8.617018683145288,-9.162753392565175,-15.282247529682705,-10.985370018465526,6.048999999999069
313378.8417,-9.042396978520799,-10.290371380876186,-15.411078103544588,-11.453608201689248,6.0499999999883585
313378.8427,-8.563733326847087,-10.511989607975863,-14.568888473569784,-11.08750313301349,6.050999999977648
313378.8437,-7.203710000277572,-9.832789106791846,-12.791281093856925,-9.915214500946403,6.052000000025146
313378.8447,-5.073765050457803,-8.345600468266404,-10.202181953687319,-8.042128050215549,6.0530000000144355
313378.8457,-2.3629678683667477,-6.220570468191174,-7.002299901246433,-5.6399729820980085,6.054000000003725
313378.8467,0.6807789133662445,-3.687293973038413,-3.4500663529356492,-2.9294498007571486,6.054999999993015
313378.8477,3.7753524580240336,-1.011199533643512,0.16308417463073757,-0.1580905524353459,6.055999999982305
313378.8487,6.632408698157283,1.533463131309631,3.54067753451042,2.42445997857255,6.056999999971595
313378.8497,8.986006695238544,3.691356837991397,6.409674152061567,4.591301853685372,6.058000000019092
313378.8507,10.619037419396582,5.25176923952855,8.546670349069863,6.1608239009502785,6.059000000008382
313378.8517,11.384852498096322,6.069764741003601,9.799265465442224,7.01471001227454,6.059999999997672
313378.8527,11.221960591321706,6.0806897309339885,10.10050655190018,7.109630570084388,6.0609999999869615
313378.8537,10.160340373838972,5.30660205079047,9.474999942422086,6.481462903701214,6.061999999976251
313378.8547,8.318742772897846,3.853992793307774,8.036094609808142,5.241619375890508,6.063000000023749
313378.8557,5.893240317924668,1.9030273801606779,5.974415979064913,3.5658379512859373,6.0640000000130385
313378.8567,3.1381413868087185,-0.31063085619843483,3.5388752572626636,1.6765318250582018,6.065000000002328
313378.8577,0.34113745108658106,-2.5196197095745707,1.012015466631506,-0.1795708100217898,6.065999999991618
313378.8587,-2.204881448196358,-4.45194961090388,-1.3178908210637115,-1.756300718123538,6.066999999980908
313378.8597,-4.230579438211061,-5.8586730442310975,-3.1852597569082963,-2.832989160327091,6.067999999970198
313378.8607,-5.516674899536267,-6.539415546134123,-4.373348461528696,-3.237020528372261,6.069000000017695
313378.8617,-5.91558637945692,-6.363238962671582,-4.735581862202534,-2.8617699791593174,6.070000000006985
313378.8627,-5.366097344187566,-5.282763119160304,-4.209967938117218,-1.6781486693915948,6.070999999996275
313378.8637,-3.8995960071535625,-3.340131408069361,-2.825192578074433,0.26139766212292675,6.0719999999855645
313378.8647,-1.637271446441817,-0.6642044211699519,-0.697800467194032,2.826854339854829,6.072999999974854
313378.8657,1.2214668963662014,2.540774605972433,1.9792583951060048,5.822207046349038,6.074000000022352
313378.8667,4.418219286370757,6.0139623414636105,4.955591309619674,9.003510683568864,6.0750000000116415
313378.8677,7.660598543657986,9.462334455951083,7.947974127593356,12.101717608223845,6.076000000000931
313378.8687,10.65056285570445,12.588375440878945,10.668197757848949,14.848058577493331,6.076999999990221
313378.8697,13.113308939000659,15.118350126763499,12.85142018200075,16.99951855654158,6.077999999979511
313378.8707,14.823900420588876,16.828407604737627,14.2822453292134,18.36193822227559,6.079000000027008
313378.8717,15.629027561316738,17.5659768423424,14.815973481156794,18.808501660650272,6.080000000016298
313378.8727,15.461770814113233,17.26437035997857,14.392941490780176,18.291818933236843,6.081000000005588
313378.8737,14.347925552818838,15.949173186507156,13.044548556022574,16.848435046378626,6.081999999994878
313378.8747,12.40327153666457,13.735794280040768,10.890378172539673,14.595333481377367,6.0829999999841675
313378.8757,9.822057349268196,10.818418409719486,8.12669932094327,11.718780817815947,6.083999999973457
313378.8767,6.857830298728586,7.451433931443102,5.007474419883056,8.456603031966651,6.085000000020955
313378.8777,3.7984918031152204,3.925144049605576,1.8197353473198878,5.0756211005381875,6.0860000000102445
313378.8787,0.9380236753084715,0.5381244631887568,-1.1442599854413267,1.846441415795389,6.086999999999534
313378.8797,-1.4523434337363488,-2.431085489645668,-3.6153634042205747,-0.9819503636118228,6.087999999988824
313378.8807,-3.1506938020547497,-4.750209545907876,-5.37359021059679,-3.2053295885125723,6.088999999978114
313378.8817,-4.006119418041675,-6.254837480108617,-6.269341158282293,-4.682871197627187,6.090000000025611
313378.8827,-3.95341604335612,-6.863317881605379,-6.237717429788057,-5.349495416847362,6.091000000014901
313378.8837,-3.0193425585802363,-6.583512950641333,-5.304531165156507,-5.220748360596325,6.092000000004191
313378.8847,-1.319830443345449,-5.510785036976439,-3.5834287166706877,-4.389777872384661,6.092999999993481
313378.8857,0.9515827646673584,-3.817442917122616,-1.264415396963704,-3.0167392981456826,6.0939999999827705
313378.8867,3.542961918577776,-1.7347107953912715,1.4050863823438502,-1.3117062174236096,6.09499999997206
313378.8877,6.168941214319257,0.47098699041564707,4.144781658607444,0.4872049727891671,6.096000000019558
313378.8887,8.539001320350245,2.5250789661164936,6.669237059011075,2.1383222807815523,6.097000000008848
313378.8897,10.3862831568453,4.172567487372434,8.716078958559951,3.4210912157707116,6.097999999998137
313378.8907,11.49411119340511,5.203686766065569,10.071884929166705,4.158494542275119,6.098999999987427
313378.8917,11.717622424712879,5.47497366698286,10.593224383400898,4.235005615818589,6.099999999976717
313378.8927,10.998375550200436,4.923680997703785,10.220780540155689,3.608305429850866,6.101000000024214
313378.8937,9.370501532524562,3.574119796223598,8.985165006299535,2.313610180585003,6.102000000013504
313378.8947,6.957784447601098,1.535312198987505,7.003851827961015,0.46018572560893584,6.103000000002794
313378.8957,3.9619493510746864,-1.009808154293838,4.469529883933088,-1.7796038408208468,6.103999999992084
313378.8967,0.6432948663604414,-3.822579440115125,1.631015484631624,-4.18762978121516,6.1049999999813735
313378.8977,-2.7044419403312743,-6.632383318930545,-1.2314016615056154,-6.522000867845055,6.105999999970663
313378.8987,-5.782535509262429,-9.163659317489822,-3.833758086340864,-8.54155896267803,6.107000000018161
313378.8997,-8.316258242914522,-11.163496351493343,-5.916630125747035,-10.03044499718651,6.108000000007451
313378.9007,-10.081571493571207,-12.427077552616995,-7.270986841496492,-10.820302372709047,6.10899999999674
313378.9017,-10.926912502581866,-12.818463699335416,-7.7591369276125866,-10.807913785575465,6.10999999998603
313378.9027,-10.787947321957905,-12.2846566023938,-7.328703160251987,-9.966512984264115,6.11099999997532
313378.9037,-9.693846765862956,-10.861542092377297,-6.018239803718057,-8.349631364336387,6.112000000022817
313378.9047,-7.7644706594238215,-8.671108314406464,-3.9539264454365624,-6.087070045742273,6.113000000012107
313378.9057,-5.1987340554486705,-5.910190870544469,-1.337645919722824,-3.3733596022747574,6.114000000001397
313378.9067,-2.2552907667803512,-2.8318281166327495,1.5724013127900014,-0.44980637727595363,6.114999999990687
313378.9077,0.7725797836247519,0.2789638872382898,4.486661488114762,2.4181458229998802,6.115999999979977
313378.9087,3.5854301988660304,3.1326378372718584,7.112337272602272,4.966048602248044,6.117000000027474
313378.9097,5.906668694521528,5.463105334543004,9.181898992919896,6.9556388749867475,6.118000000016764
313378.9107,7.509315541732085,7.053536183037087,10.47921118795406,8.197638831729176,6.119000000006054
313378.9117,8.237881834666863,7.757443139138917,10.860718683859782,8.569948619722187,6.119999999995343
313378.9127,8.023237949017718,7.512986393742534,10.269616986983523,8.029460644346337,6.120999999984633
313378.9137,6.8890255228314095,6.349092468632927,8.741615679501553,6.616343694441152,6.121999999973923
313378.9147,4.948994632487057,4.3827804847171405,6.401723851258352,4.450376916474797,6.12300000002142
313378.9157,2.3955360225527196,1.8079468502703684,3.452363192501814,1.7196864836272416,6.12400000001071
313378.9167,-0.5194601664516587,-1.123306614412817,0.15396146297666363,-1.3370239002398456,6.125
313378.9177,-3.5095370893649473,-4.124987850792782,-3.2000862332721196,-4.453025892392541,6.12599999998929
313378.9187,-6.281947017900912,-6.904808507882091,-6.311650496931101,-7.358716752615728,6.12699999997858
313378.9197,-8.566495661568373,-9.192371820008972,-8.906544843883768,-9.80693116635927,6.128000000026077
313378.9207,-10.142125824429428,-10.765211577269774,-10.760853354161384,-11.595967012422506,6.129000000015367
313378.9217,-10.858633840820927,-11.470149365112228,-11.722344501510655,-12.588104439634318,6.130000000004657
313378.9227,-10.65139017165493,-11.23789475414018,-11.724886981877903,-12.721841137688397,6.130999999993946
313378.9237,-9.547622001968067,-10.089473369866035,-10.794467115863242,-12.016683199356265,6.131999999983236
313378.9247,-7.663643427528593,-8.133866179491038,-9.046227982179113,-10.570060038746657,6.132999999972526
313378.9257,-5.193306781314995,-5.557101794152949,-6.6728276060906975,-8.5467020298854,6.134000000020023
313378.9267,-2.3888098541197054,-2.6038781207121384,-3.925261502652583,-6.161555446200354,6.135000000009313
313378.9277,0.464256156205944,0.4464813279374102,-1.0880307382160717,-3.65793889123022,6.135999999998603
313378.9287,3.0751676666315317,3.307379040523052,1.5489115288483288,-1.283107134175536,6.136999999987893
313378.9297,5.1768629722665915,5.7129243405715116,3.7186882830442873,0.7363630075815403,6.137999999977183
313378.9307,6.552440550662515,7.4438057155619335,5.203709807386341,2.216938585133747,6.13900000002468
313378.9317,7.056755987745767,8.348525822161875,5.857003844419631,3.0360487513280634,6.14000000001397
313378.9327,6.6309912799230615,8.357926688355725,5.616579495578449,3.1437983011919535,6.14100000000326
313378.9337,5.308757957951793,7.4915916672191605,4.511422079736423,2.5673342511324635,6.141999999992549
313378.9347,3.2131243803693486,5.855507844428092,2.6585356888885703,1.407449778480841,6.142999999981839
313378.9357,0.544846509277629,3.6312297634230335,0.2513265138430658,-0.17222310129507165,6.143999999971129
313378.9367,-2.4370565364745302,1.0576185377924685,-2.4595325941515123,-1.962348571304917,6.1450000000186265
313378.9377,-5.440490274858271,-1.5930419496139754,-5.19088032110385,-3.729640860668537,6.146000000007916
313378.9387,-8.168778469607323,-4.042199281815187,-7.655060106424466,-5.241070920995792,6.146999999997206
313378.9397,-10.349679720334935,-6.03278471762733,-9.588386645735946,-6.28811610844686,6.147999999986496
313378.9407,-11.762091150804565,-7.354833073150062,-10.777298361923787,-6.708636490490263,6.148999999975786
313378.9417,-12.25782776691727,-7.866449919675349,-11.079635722380381,-6.40419289347087,6.150000000023283
313378.9427,-11.776346095285108,-7.508062899740433,-10.438962935284733,-5.351068765647499,6.151000000012573
313378.9437,-10.35096939421703,-6.308553520244664,-8.89053183460918,-3.603876598201512,6.152000000001863
313378.9447,-8.10600167742623,-4.382663091037263,-6.558304903831927,-1.291359389400453,6.152999999991152
313378.9457,-5.245007794936476,-1.9199233804748994,-3.643329250636129,1.3952331288269069,6.153999999980442
313378.9467,-2.0313997742739165,0.8338049597527472,-0.40459925273500935,4.220080580106677,6.154999999969732
313378.9477,1.2367789266803308,3.6003767335282033,2.8657202742950827,6.925302317509366,6.1560000000172295
313378.9487,4.255413224558374,6.096630758921005,5.870288042437765,9.255848567428023,6.157000000006519
313378.9497,6.743436380889618,8.062206274705558,8.33506204903267,10.984337931351739,6.157999999995809
313378.9507,8.469672807091634,9.285175505154871,10.035476875161363,11.933404485245475,6.158999999985099
313378.9517,9.274790589267724,9.622973421087492,10.817769765487688,11.993354510790759,6.159999999974389
313378.9527,9.086230528573907,9.016565763110984,10.613380252076503,11.13338596984057,6.161000000021886
313378.9537,7.92466708943869,7.496458716106883,9.445028759207885,9.40524909419284,6.162000000011176
313378.9547,5.90138647257109,5.179953376872194,7.423896668103262,6.9389628695750885,6.163000000000466
313378.9557,3.206856779591319,2.2599069640849407,4.7382035796634145,3.9309777352236956,6.1639999999897555
313378.9567,0.09162772684738418,-1.01390362522599,1.6343213308777638,0.6259135643298129,6.164999999979045
313378.9577,-3.158551925761742,-4.358993588732454,-1.607704073871389,-2.7063684813333744,6.166000000026543
313378.9587,-6.250945717334282,-7.4875865510497865,-4.701803828458224,-5.796143113918621,6.1670000000158325
313378.9597,-8.914591518506175,-10.13454840547025,-7.383982277158105,-8.3991875961245,6.168000000005122
313378.9607,-10.92678421185792,-12.083098660666627,-9.438086942122363,-10.319676139171737,6.168999999994412
313378.9617,-12.134674736350526,-13.185775015994093,-10.716712560605933,-11.428378534945114,6.169999999983702
313378.9627,-12.469862581941548,-13.378590324997049,-11.155179184418575,-11.674395367228904,6.170999999972992
313378.9637,-11.95454863803908,-12.68698698845562,-10.777207122031228,-11.089291119951737,6.172000000020489
313378.9647,-10.698645960575131,-11.22299702357368,-9.691729898993163,-9.783227244077338,6.173000000009779
313378.9657,-8.888136102796889,-9.173877975493143,-8.081160207616772,-7.933477403286111,6.173999999999069
313378.9667,-6.765820882554148,-6.783331070184281,-6.182267281193033,-5.766450427888793,6.1749999999883585
313378.9677,-4.606369261368839,-4.32713662497973,-4.261554463024952,-3.5349802585118373,6.175999999977648
313378.9687,-2.6881227986802743,-2.0855913014766214,-2.5875711922755955,-1.4931043235954662,6.177000000025146
313378.9697,-1.2644455231457221,-0.3154483659935091,-1.4029005201777758,0.12920291148856744,6.1780000000144355
313378.9707,-0.5374532620938915,0.775885442894048,-0.8986012681805522,1.1488701466531575,6.179000000003725
313378.9717,-0.6367284665240189,1.0513598705702714,-1.1936490381224498,1.4479092644141343,6.179999999993015
313378.9727,-1.6051415878305895,0.4584268014328326,-2.321435213377476,0.9851567511314728,6.180999999982305
313378.9737,-3.3932064136349016,-0.9650810227793423,-4.224695106301362,-0.1995724452359158,6.181999999971595
313378.9747,-5.8625622266013,-3.093934576928718,-6.759412684404331,-1.9893257163534177,6.183000000019092
313378.9757,-8.798281820491027,-5.727087463502643,-9.70737036996972,-4.201473551923859,6.184000000008382
313378.9767,-11.928838751299745,-8.60674042581016,-12.796164254102292,-6.605670253339401,6.184999999997672
313378.9777,-14.951814467176463,-11.44305056994601,-15.724770750807496,-8.946558662076223,6.1859999999869615
313378.9787,-17.56285988917143,-13.942091450797118,-18.192202213927988,-10.96899856167433,6.186999999976251
313378.9797,-19.485102114653134,-15.834350509758712,-19.926480188861476,-12.443350953226474,6.188000000023749
313378.9807,-20.49613702586106,-16.90099524377253,-20.71111619479874,-13.188344076649626,6.1890000000130385
313378.9817,-20.44997775657388,-16.99535435301807,-20.40652524905738,-13.08928246411727,6.190000000002328
313378.9827,-19.291814961437733,-16.05752398747141,-18.964283961864318,-12.109814442994267,6.190999999991618
313378.9837,-17.06414029241903,-14.12067678879256,-16.432835571708598,-10.296101949868365,6.191999999980908
313378.9847,-13.903621580580143,-11.308457507039813,-12.954071429554888,-7.7729778404238425,6.192999999970198
313378.9857,-10.029015268303956,-7.823714852232675,-8.751101480603554,-4.732457629240697,6.194000000017695
313378.9867,-5.721271099869097,-3.929660398846621,-4.108379071531812,-1.4157183861727916,6.195000000006985
313378.9877,-1.2977411235050411,0.07472026611681294,0.6539152714140918,1.9097054916340188,6.195999999996275
313378.9887,2.9170241495550737,3.882622956658039,5.208772689294203,4.975293903876781,6.1969999999855645
313378.9897,6.621080664966011,7.208042141551767,9.2517647982992,7.537014760744368,6.197999999974854
313378.9907,9.562629989680994,9.81228562446665,12.528145544490938,9.39842560739603,6.199000000022352
313378.9917,11.562649874323684,11.525831931913125,14.855059055518312,10.429161555221393,6.2000000000116415
313378.9927,12.530454360512543,12.263434002690381,16.13674772532244,10.577019081416573,6.201000000000931
313378.9937,12.470712432981312,12.031034658485403,16.37134022131487,9.872470810418985,6.201999999990221
313378.9947,11.481287311034844,10.923859905715233,15.64862154676112,8.42518511001182,6.202999999979511
313378.9957,9.742152345091219,9.11591700063454,14.139066210240438,6.412903983393714,6.204000000027008
313378.9967,7.496506793028805,6.84196122191043,12.075264988165621,4.06377712884503,6.205000000016298
313378.9977,5.025970829861557,4.373726683692794,9.727612724578856,1.6338864848510473,6.206000000005588
313378.9987,2.622310273189018,1.9927709522474981,7.37667719392101,-0.617838001350503,6.206999999994878
313378.9997,0.5584721148956585,-0.0373932525518478,5.284983473889487,-2.454859668009537,6.2079999999841675
313379.0007,-0.938229965606262,-1.4971446953170473,3.670994119178567,-3.6859705790360535,6.208999999973457
313379.0017,-1.7081606923056238,-2.232050587483076,2.687838597577128,-4.183687640597887,6.210000000020955
313379.0027,-1.6744952231272165,-2.1675396936887554,2.4088685534921686,-3.896323381124505,6.2110000000102445
313379.0037,-0.8499793143982634,-1.315533755645937,2.821435574071402,-2.8525669160782954,6.211999999999534
313379.0047,0.665314518605049,0.22758625981419817,3.8294721662199613,-1.1581453162607709,6.212999999988824
313379.0057,2.694979632085595,2.2914482652083734,5.264584806177048,1.0150884775681672,6.213999999978114
313379.0067,5.0049004368025765,4.6495302017631674,6.9045258176094135,3.4465538229257535,6.215000000025611
313379.0077,7.327643570867916,7.0425877047411545,8.49718112916153,5.889105210247412,6.216000000014901
313379.0087,9.39018236193916,9.205332873427086,9.787665264735882,8.093773449854114,6.217000000004191
313379.0097,10.94219533615828,10.89370995602204,10.545806773608161,9.834648536274885,6.217999999993481
313379.0107,11.78212449268927,11.910056276835842,10.591266953097284,10.931456067614743,6.2189999999827705
313379.0117,11.778400816959524,12.12364611094801,9.813766129884682,11.267607548408133,6.21999999997206
313379.0127,10.883721206886475,11.484570843732335,8.186372269494557,10.801950753602796,6.221000000019558
313379.0137,9.140945796311811,10.029565880291221,5.770489165982541,9.573065801751424,6.222000000008848
313379.0147,6.680010339031851,7.879188866037399,2.7119989950568453,7.6956849122874855,6.222999999998137
313379.0157,3.706133814913335,5.226606872712991,-0.7711136008156022,5.349587206291926,6.223999999987427
313379.0167,0.4804598205035877,2.319078520055306,-4.408487090176785,2.762058554720697,6.224999999976717
313379.0177,-2.7049826511262762,-0.5660608208799409,-7.902561225337766,0.1856380119463095,6.226000000024214
313379.0187,-5.555551098985867,-3.1485575339645004,-10.956767405536606,-2.126665058900914,6.227000000013504
313379.0197,-7.802723736673507,-5.172874436010161,-13.303985883374144,-3.946250740333014,6.228000000002794
313379.0207,-9.23047498752227,-6.433581499807454,-14.73248806275608,-5.091462967973199,6.228999999992084
313379.0217,-9.696697220759512,-6.795996992958233,-15.106818131926916,-5.4455659912783565,6.2299999999813735
313379.0227,-9.147554446018797,-6.210034143179628,-14.381553866312979,-4.968396784652315,6.230999999970663
313379.0237,-7.623342146524684,-4.71587042541631,-12.606574376621857,-3.700546878783674,6.232000000018161
313379.0247,-5.25525624010259,-2.4408550483833302,-9.923285795418519,-1.7596589925130912,6.233000000007451
313379.0257,-2.2533621801777333,0.4120729588123461,-6.5521340464063815,0.6708036349783981,6.23399999999674
313379.0267,1.1130845024075646,3.5833524080839334,-2.7725811637475464,3.3592198763288135,6.23499999998603
313379.0277,4.541066611282961,6.781325479734848,1.1025446692580225,6.048179870195777,6.23599999997532
313379.0287,7.722520023733691,9.709947031645259,4.755866840095377,8.479374199656123,6.237000000022817
313379.0297,10.373549564341294,12.096989039295071,7.894677905635311,10.418569751525638,6.238000000012107
313379.0307,12.261310346238893,13.71999953583342,10.277749138032902,11.67823045183042,6.239000000001397
313379.0317,13.225945536505229,14.4274912869513,11.737157348118698,12.13557181792023,6.239999999990687
313379.0327,13.19545310249758,14.15329818790627,12.193038193673868,11.744285611286678,6.240999999979977
313379.0337,12.192043590965705,12.9227018783786,11.659862484619627,10.538790991402042,6.242000000027474
313379.0347,10.329380946336665,10.84973244166335,10.243655660400103,8.6306007089614,6.243000000016764
313379.0357,7.80098760278722,8.125906980113927,8.130460243937847,6.197163310743423,6.244000000006054
313379.0367,4.8609566003247675,5.001504278627128,5.567190816793072,3.464279382326002,6.244999999995343
313379.0377,1.7988630100291136,1.7612010973926935,2.8367679924184808,0.6838193170375917,6.245999999984633
313379.0387,-1.0886687896021343,-1.3035552490724178,0.229970115437905,-1.891069704794375,6.246999999973923
313379.0397,-3.526961614642903,-3.922746165898963,-1.98324481411918,-4.030834008600653,6.24800000002142
313379.0407,-5.290013589751086,-5.873806769057191,-3.580149667961054,-5.552020100555359,6.24900000001071
313379.0417,-6.222350914079748,-7.002944409350833,-4.406822126466003,-6.335208667856338,6.25
313379.0427,-6.253878379764051,-7.239679782930552,-4.392791829768727,-6.336615199895046,6.25099999998929
313379.0437,-5.406288570025495,-6.603203078674755,-3.55735292615121,-5.592217505747812,6.25199999997858
313379.0447,-3.7904188409910367,-5.199938267085646,-2.006953203847669,-4.214003208331034,6.253000000026077
313379.0457,-1.5948325827112417,-3.2125682244428715,0.07605361317523691,-2.378703165506413,6.254000000015367
313379.0467,0.9332390513566001,-0.8816078287206554,2.452159740640651,-0.3101140099792873,6.255000000004657
313379.0477,3.5127109385572357,1.5186601516216034,4.84909272438399,1.7432576039924554,6.255999999993946
313379.0487,5.8567665555664,3.7075217843443204,6.989425554187118,3.53303657826303,6.256999999983236
313379.0497,7.701519966821279,5.425758603319456,8.618678152717003,4.8358690218891764,6.257999999972526
313379.0507,8.832396936402649,6.461426013986161,9.531136341297543,5.4759156202548045,6.259000000020023
313379.0517,9.10564049519111,6.670957971680164,9.590842001568088,5.342737152437266,6.260000000009313
313379.0527,8.462826302273912,5.9935321873670455,8.745685429390385,4.4028100333981355,6.260999999998603
313379.0537,6.936960410578548,4.457291902057563,7.033210851658268,2.7035319148440906,6.261999999987893
313379.0547,4.649559160193885,2.176819208374937,4.577561937645846,0.3693113767518953,6.262999999977183
313379.0557,1.7989967587211602,-0.6578873134795383,1.5778657800028126,-2.40989025002761,6.26400000002468
313379.0567,-1.3587362019953484,-3.799845284498857,-1.7108042955958165,-5.396458627355473,6.26500000001397
313379.0577,-4.534974601679313,-6.9691203405470885,-5.002017200643134,-8.327731162191844,6.26600000000326
313379.0587,-7.436572229378106,-9.880097868193678,-8.00570830570802,-10.941109651594699,6.266999999992549
313379.0597,-9.794578177834154,-12.269318933511888,-10.456315630579715,-12.999237913861654,6.267999999981839
313379.0607,-11.39057936927938,-13.921150571547024,-12.138563532735823,-14.312794521283097,6.268999999971129
313379.0617,-12.078120567464016,-14.688774149907974,-12.9083602437499,-14.758683246341471,6.2700000000186265
313379.0627,-11.797095446539238,-14.50843571130603,-12.70675523644999,-14.291853022873529,6.271000000007916
313379.0637,-10.579691294907786,-13.405563866692233,-11.565583761578434,-12.949601116147582,6.271999999997206
313379.0647,-8.547298214004739,-11.492159043985582,-9.60424210202303,-10.84794690098777,6.272999999986496
313379.0657,-5.898680049101788,-8.955714410091757,-7.017908063730284,-8.17043733925346,6.273999999975786
313379.0667,-2.8905618701882423,-6.0407595810858625,-4.0583614910846215,-5.150483199341844,6.275000000023283
313379.0677,0.18746648810325375,-3.024841844384116,-1.0092866997089833,-2.048955056623358,6.276000000012573
313379.0687,3.041272575533365,-0.19130507131488936,1.841518715297577,0.8707714738753576,6.277000000001863
313379.0697,5.40095297803302,2.198459703710685,4.230299507751363,3.367885999328725,6.277999999991152
313379.0707,7.047232442467052,3.9305667106172018,5.943096748599627,5.2468865759816445,6.278999999980442
313379.0717,7.832899319438902,4.8594817013605045,6.836568680417023,6.375785274233155,6.279999999969732
313379.0727,7.69717126998119,4.922115328057989,6.8518303018583335,6.698013669659724,6.2810000000172295
313379.0737,6.671577087632266,4.143780360182233,6.019948184196119,6.2368863249614686,6.282000000006519
313379.0747,4.876771483432534,2.635428769063636,4.458545980764767,5.092212135634571,6.282999999995809
313379.0757,2.5105883868538283,0.5824414704687209,2.3598490855939938,3.429414711178244,6.283999999985099
313379.0767,-0.17150234668469283,-1.7739263520844897,-0.028661673327997805,1.4622580546589756,6.284999999974389
313379.0777,-2.881624202379103,-4.160619408091937,-2.4290901106945877,-0.5690994451189617,6.286000000021886
313379.0787,-5.327939654252491,-6.300008012699538,-4.561019552203779,-2.4225427687895515,6.287000000011176
313379.0797,-7.243525263396562,-7.93758678123007,-6.169720519301964,-3.8785075359756154,6.288000000000466
313379.0807,-8.412844814244947,-8.867420010907148,-7.051894924383475,-4.762130628812054,6.2889999999897555
313379.0817,-8.693221959131273,-8.952827406216517,-7.076418371021249,-4.960852778155097,6.289999999979045
313379.0827,-8.029201419802286,-8.140269932941127,-6.198029175473434,-4.435732086066875,6.291000000026543
313379.0837,-6.458382445608192,-6.465062238435204,-4.462601337988708,-3.2253491545586477,6.2920000000158325
313379.0847,-4.1081420295347755,-4.048339918159945,-2.003461591779847,-1.4419164341537563,6.293000000005122
313379.0857,-1.183556760861005,-1.0855683301360526,0.9709126479530097,0.7400253162719259,6.293999999994412
313379.0867,2.0523060951221366,2.1722895230049644,4.196632926170345,3.10120764401758,6.294999999983702
313379.0877,5.303810024429309,5.443106814175834,7.37966551058144,5.39979275320311,6.295999999972992
313379.0887,8.27140453159875,8.441047416743144,10.224168097788386,7.395897462051964,6.297000000020489
313379.0897,10.680717385865544,10.90445153465086,12.46113817647243,8.876053185153872,6.298000000009779
313379.0907,12.309242243979702,12.62141778742937,13.874579170201413,9.675173745175206,6.298999999999069
313379.0917,13.008013248613153,13.450570164246965,14.322628975620997,9.693843121473012,6.2999999999883585
313379.0927,12.716146631710378,13.33496772542458,13.751583937271308,8.909191101152546,6.300999999977648
313379.0937,11.466825309111124,12.307784916897612,12.201442043243052,7.378251686803311,6.302000000025146
313379.0947,9.384137907214253,10.489195321734758,9.802414758093,5.233435700555451,6.3030000000144355
313379.0957,6.671076914214803,8.074752795432266,6.762736780345434,2.6705231666300655,6.304000000003725
313379.0967,3.589864323421712,5.316396874463126,3.3489511371891556,-0.06968312457147074,6.304999999993015
313379.0977,0.43652274143687525,2.4979324956931914,-0.13941949583427715,-2.724276149953888,6.305999999982305
313379.0987,-2.487827867929407,-0.09262346855897519,-3.398357247383107,-5.033515155950014,6.306999999971595
313379.0997,-4.90614784276859,-2.1911277785311953,-6.148224013459602,-6.765991112055054,6.308000000019092
313379.1007,-6.592283820767038,-3.583083048846225,-8.160224311375945,-7.741233163833655,6.309000000008382
313379.1017,-7.3927890940382985,-4.124575470685659,-9.277889600067459,-7.847545111034708,6.309999999997672
313379.1027,-7.241631892061699,-3.7563279963153366,-9.43150429471845,-7.053320304311548,6.3109999999869615
313379.1037,-6.166360482207497,-2.5094908788010084,-8.644083229171615,-5.410714408890952,6.311999999976251
313379.1047,-4.2851290458491915,-0.5025985441137414,-7.028335303079287,-3.0512967106072013,6.313000000023749
313379.1057,-1.7948814364935797,2.0700148842693697,-4.774927841980945,-0.17407972767819985,6.3140000000130385
313379.1067,1.0481461783819706,4.957213898628539,-2.133214801096961,2.9729321978093433,6.315000000002328
313379.1077,3.953692602856685,7.875620887810071,0.6136735743932971,6.115904253852182,6.315999999991618
313379.1087,6.6260344773400455,10.53733893827914,3.1769334165363676,8.980813048758927,6.316999999980908
313379.1097,8.793049262862358,12.678130213300301,5.290626856669573,11.319098126419291,6.317999999970198
313379.1107,10.232935164739352,14.083295987083677,6.737863661261749,12.930851125238279,6.319000000017695
313379.1117,10.795975093356205,14.608727531236442,7.372063728802997,13.683310088154249,6.320000000006985
313379.1127,10.419217459496092,14.195067564061848,7.131223470741072,13.522883119645392,6.320999999996275
313379.1137,9.132640173200441,12.873593989577323,6.043796204244407,12.479554909466188,6.3219999999855645
313379.1147,7.0561977872604995,10.763245580953837,4.225619417441299,10.66327018606042,6.322999999974854
313379.1157,4.38804374592631,8.059074213619526,1.8681995734875905,8.252667658458286,6.324000000022352
313379.1167,1.3850829096479158,5.013245746704974,-0.7804879250008283,5.477280398844433,6.3250000000116415
313379.1177,-1.6622404955550922,1.9104398717409357,-3.4407927646960332,2.594951498664252,6.326000000000931
313379.1187,-4.458450940121287,-0.9599529614254579,-5.829339125664199,-0.13332448900199112,6.326999999990221
313379.1197,-6.732055310424514,-3.3321256097478043,-7.687383073391971,-2.468678266867279,6.327999999979511
313379.1207,-8.262223178325137,-4.989878198712212,-8.80679092011963,-4.217299012887003,6.329000000027008
313379.1217,-8.900523486983415,-5.78783122156352,-9.051084827667001,-5.24879711698035,6.330000000016298
313379.1227,-8.585591736578726,-5.665755364367536,-8.369485207122421,-5.508221256068451,6.331000000005588
313379.1237,-7.349293764762967,-4.654616293676851,-6.802565358666358,-5.020579211750487,6.331999999994878
313379.1247,-5.313784253101852,-2.8737401228191275,-4.478955088988956,-3.8874479754083144,6.3329999999841675
313379.1257,-2.6797487008806065,-0.5193707505405634,-1.6034063182712257,-2.276034291694646,6.333999999973457
313379.1267,0.2930203708222756,2.154270750839751,1.5626208356991376,-0.4017859553564102,6.335000000020955
313379.1277,3.3108131323943213,4.859583929958731,4.725961069532777,1.4937154000633681,6.3360000000102445
313379.1287,6.0744953380428015,7.303452270836101,7.589898773692868,3.167389217276481,6.336999999999534
313379.1297,8.308520007278936,9.215662906048907,9.882729346422586,4.399383032818984,6.337999999988824
313379.1307,9.787624492780235,10.375120514164026,11.38394199461835,5.01545028286846,6.338999999978114
313379.1317,10.358607864701968,10.63130955328423,11.945472032624265,4.904771346960036,6.340000000025611
313379.1327,9.955066769162059,9.918923573601461,11.505953230405852,4.0314604587652285,6.341000000014901
313379.1337,8.603658632493381,8.264247681536519,10.09658556508447,2.438623455985236,6.342000000004191
313379.1347,6.421291560541553,5.78268500973258,7.838053682667615,0.2445647435772936,6.342999999993481
313379.1357,3.6035291219958667,2.667681581067102,4.928806151469971,-2.3684856602299877,6.3439999999827705
313379.1367,0.40535830065391615,-0.8278581722435431,1.6258495089452223,-5.172018311781976,6.34499999997206
313379.1377,-2.8837840212066816,-4.415842629506237,-1.780058462041679,-7.913530103747491,6.346000000019558
313379.1387,-5.9682698133523475,-7.800576836715302,-4.992386336248285,-10.341259267824638,6.347000000008848
313379.1397,-8.575047904080192,-10.706966018087186,-7.73724051434202,-12.228937670719676,6.347999999998137
313379.1407,-10.480097935380224,-12.906590520932467,-9.789434742052366,-13.398125559723422,6.348999999987427
313379.1417,-11.529976621761124,-14.239117538824232,-10.99367508075946,-13.735929989753668,6.349999999976717
313379.1427,-11.656346747533027,-14.626976213568323,-11.278799998533101,-13.20636003726247,6.351000000024214
313379.1437,-10.882070322437734,-14.081886299511586,-10.663699209426186,-11.854195254942594,6.352000000013504
313379.1447,-9.31827741239384,-12.702631338234063,-9.254353416315807,-9.80097752044845,6.353000000002794
313379.1457,-7.152709939051092,-10.664326690117687,-7.232309905937321,-7.2335085493275315,6.353999999992084
313379.1467,-4.630498107369932,-8.200266547841533,-4.8357503878491155,-4.385970184623395,6.3549999999813735
313379.1477,-2.029271856235998,-5.57816050852022,-2.335035020973928,-1.5174101073701678,6.355999999970663
313379.1487,0.36893225988908135,-3.0731182491464666,-0.005148854508581128,1.1132094890056732,6.357000000018161
313379.1497,2.3061918641905303,-0.9400566976542678,1.9022192937921076,3.2719630537647046,6.358000000007451
313379.1507,3.574826513439797,0.6117430429701443,3.1842000297052,4.772474541191193,6.35899999999674
313379.1517,4.038544974793177,1.4394169426839585,3.7073395426555593,5.493791809786598,6.35999999998603
313379.1527,3.6465121983889928,1.4805873933429226,3.4212247520789543,5.3918759205316755,6.36099999997532
313379.1537,2.4389304390981605,0.7593339768528731,2.3637797801306193,4.503583397083299,6.362000000022817
313379.1547,0.5435619566815798,-0.6165214415737904,0.6576963359746031,2.9427541906566095,6.363000000012107
313379.1557,-1.8364891938099062,-2.4665451481775396,-1.5016656718284291,0.8887907810678173,6.364000000001397
313379.1567,-4.442558807337577,-4.556136699987747,-3.8657294753306912,-1.4311511570624122,6.364999999990687
313379.1577,-6.985844611832797,-6.620465324209361,-6.157600235949283,-3.7646147990772003,6.365999999979977
313379.1587,-9.175987851138183,-8.39153074877255,-8.09996628301192,-5.858736875788132,6.367000000027474
313379.1597,-10.75001788026943,-9.625670697549994,-9.443256648640498,-7.485146148348693,6.368000000016764
313379.1607,-11.498821216942256,-10.128789494993143,-9.991276653542462,-8.462426811763601,6.369000000006054
313379.1617,-11.288532235967978,-9.776802360256621,-9.621783644499056,-8.673946933637124,6.369999999995343
313379.1627,-10.074733385933023,-8.529256550203895,-8.299954463473037,-8.079306484128283,6.370999999984633
313379.1637,-7.908050633423624,-6.434757885022355,-6.0833871316986015,-6.718284963974769,6.371999999973923
313379.1647,-4.930566701553217,-3.6276340145931143,-3.1181041135589487,-4.706903842915781,6.37300000002142
313379.1657,-1.363368848137378,-0.3161254177006093,0.3740972034588801,-2.22599198445345,6.37400000001071
313379.1667,2.513587924764639,3.236772666008269,4.115755363652413,0.49662274411375146,6.375
313379.1677,6.3873716634100495,6.737970972929564,7.799394943782494,3.2085473880728657,6.37599999998929
313379.1687,9.941225759967375,9.892059976326564,11.116249833086574,5.6576811461343866,6.37699999997858
313379.1697,12.884171011775138,12.429497084997516,13.785289582899395,7.617055493087094,6.378000000026077
313379.1707,14.978200368829304,14.132461593251302,15.579744446128128,8.907217568944679,6.379000000015367
313379.1717,16.060442348086156,14.855854154614958,16.348563712368694,9.413957112749783,6.380000000004657
313379.1727,16.05815778582469,14.541386999441247,16.03073096366311,9.099632773110457,6.380999999993946
313379.1737,14.995131204316825,13.223381793325009,14.661051267516086,8.00698031428141,6.381999999983236
313379.1747,12.988854537447947,11.025698459556828,12.366851644033774,6.255021756165308,6.382999999972526
313379.1757,10.238795578393288,8.150081668531449,9.355916760890711,4.027468759283748,6.384000000020023
313379.1767,7.006908898705896,4.857047627294848,5.89683078979304,1.554749783046338,6.385000000009313
313379.1777,3.5922986425411323,1.441160536619303,2.2936308734005437,-0.9085834098658403,6.385999999998603
313379.1787,0.30250717477521716,-1.7969054639700388,-1.1427739161836974,-3.1088598221084798,6.386999999987893
313379.1797,-2.575773961101864,-4.578810331762434,-4.12365530097879,-4.818255407280019,6.387999999977183
313379.1807,-4.8037252500183865,-6.674741236169694,-6.40918788672312,-5.857274130059534,6.38900000002468
313379.1817,-6.212535935381499,-7.9248185661332835,-7.830271878786099,-6.112537470452925,6.39000000001397
313379.1827,-6.718523813755935,-8.253646855624266,-8.303371237944482,-5.548132907229226,6.39100000000326
313379.1837,-6.32979749920552,-7.6766125750680505,-7.836968105013188,-4.20940042243693,6.391999999992549
313379.1847,-5.143852192263493,-6.297336847068583,-6.529055523816904,-2.2187746985661354,6.392999999981839
313379.1857,-3.33637983622618,-4.296554609966007,-4.55596643319486,0.23592278541802816,6.393999999971129
313379.1867,-1.1424354148864575,-1.913528138457301,-2.1536818490833904,2.919609065750919,6.3950000000186265
313379.1877,1.168151259773032,0.5781696356008376,0.40650750828365306,5.5727215353679975,6.396000000007916
313379.1887,3.318667758730457,2.898118986663219,2.845565603473345,7.936439042012242,6.396999999997206
313379.1897,5.05394485322587,4.787067305932671,4.904772975531562,9.777885061284275,6.397999999986496
313379.1907,6.166498123588946,6.032745885023784,6.371517814599554,10.9128558717579,6.398999999975786
313379.1917,6.517797042356714,6.490961230197766,7.10027986838892,11.223856839583314,6.400000000023283
313379.1927,6.052556941175516,6.099898724821093,7.026751471359649,10.671686738183357,6.401000000012573
313379.1937,4.804639615230786,4.886244197253974,6.173721905030495,9.299438850505622,6.402000000001863
313379.1947,2.8939774163486294,2.9625327886072745,4.6481673411485405,7.228526955847128,6.402999999991152
313379.1957,0.5148220738076923,0.5159956504135005,2.6298585294478523,4.647121896984906,6.403999999980442
313379.1967,-2.0835239125780096,-2.209990960630822,0.3526366574075696,1.7921242166266071,6.404999999969732
313379.1977,-4.621592782887289,-4.940024409025126,-1.9197679426910026,-1.073571994697396,6.4060000000172295
313379.1987,-6.817797613164053,-7.393987094827878,-3.9209604900168005,-3.6863109385660655,6.407000000006519
313379.1997,-8.416868389867156,-9.314863329212812,-5.40943516383718,-5.806948010427948,6.407999999995809
313379.2007,-9.215865586305299,-10.494326121763855,-6.19370929132942,-7.2437075861227935,6.408999999985099
313379.2017,-9.085193494026017,-10.793578421290821,-6.152528112242604,-7.870407977348285,6.409999999974389
313379.2027,-7.98252391769265,-10.157400176544554,-5.248115281980454,-7.638290848664064,6.411000000021886
313379.2037,-5.9582349517526545,-8.620020266324609,-3.53112960523773,-6.580319279137987,6.412000000011176
313379.2047,-3.1518013428643634,-6.302235322508716,-1.1368064709893748,-4.807545940538078,6.413000000000466
313379.2057,0.22053920533367663,-3.400056906544309,1.7273672834468645,-2.4979282773873543,6.4139999999897555
313379.2067,3.885662645072512,-0.1660000440631266,4.80125935588879,0.12129486581391168,6.414999999979045
313379.2077,7.539055377130493,3.115151835846544,7.7970716714412465,2.7959232531935974,6.416000000026543
313379.2087,10.873454918106797,6.1537288280473,10.42725183045211,5.269614013389992,6.4170000000158325
313379.2097,13.60784702365679,8.68301844854362,12.432598898118878,7.3087613533389355,6.418000000005122
313379.2107,15.513993848082436,10.48484218509388,13.607799309880809,8.724998972838033,6.418999999994412
313379.2117,16.437906709732456,11.410359061226933,13.821873459555198,9.39312575480039,6.419999999983702
313379.2127,16.31416971754806,11.394060375543457,13.031506240766214,9.262709825735579,6.420999999972992
313379.2137,15.171718707279794,10.459589570483159,11.285927389222229,8.362251516493856,6.422000000020489
313379.2147,13.130515267605341,8.716825191349658,8.722832235568765,6.795520568647805,6.423000000009779
313379.2157,10.389446256354724,6.350524152535432,5.555709708578337,4.730454866944942,6.423999999999069
313379.2167,7.206637806091946,3.601652628073507,2.05378628341737,2.381741141866974,6.4249999999883585
313379.2177,3.874115188903731,0.7432512650352987,-1.4834805076218658,-0.011179593833492122,6.425999999977648
313379.2187,0.68929320575895,-1.9467806334383637,-4.7548885710606825,-2.2084888125368654,6.427000000025146
313379.2197,-2.073908352295707,-4.21329371715545,-7.486191431786913,-3.994322381322088,6.4280000000144355
313379.2207,-4.191493651931469,-5.849162452499561,-9.45622006148241,-5.198635878954046,6.429000000003725
313379.2217,-5.510775249979193,-6.715725701763663,-10.517881613997,-5.714425756630212,6.429999999993015
313379.2227,-5.964620697558317,-6.756370450584331,-10.611986718474364,-5.508587845067597,6.430999999982305
313379.2237,-5.5771691723616055,-6.001909586114264,-9.772554165517022,-4.625323603549623,6.431999999971595
313379.2247,-4.460464094923769,-4.567212522665867,-8.123071801692241,-3.181741456280383,6.433000000019092
313379.2257,-2.8023406309232604,-2.6394095811377403,-5.864074183443773,-1.3560731513369764,6.434000000008382
313379.2267,-0.8467672698895247,-0.45882276720770754,-3.253244872739118,0.6303426555920694,6.434999999997672
313379.2277,1.131416059163638,1.7055047193347732,-0.5799813295533967,2.535537507983704,6.4359999999869615
313379.2287,2.854867577012229,3.583271046938196,1.8630982709053934,4.121632453466125,6.436999999976251
313379.2297,4.072416264591128,4.93066006947128,3.808927331315175,5.17935224435145,6.438000000023749
313379.2307,4.585198764821373,5.555621583295019,5.042234803849128,5.549898733576575,6.4390000000130385
313379.2317,4.267666294402122,5.3381757173372275,5.420699054309735,5.141999035863993,6.440000000002328
313379.2327,3.0813665744807626,4.243710651828835,4.888945742319543,3.9424107066207936,6.440999999991618
313379.2337,1.0801113000330262,2.3279241292906403,3.4840216926963534,2.018802877452741,6.441999999980908
313379.2347,-1.5940174515684986,-0.26712564073565176,1.3318084472436704,-0.48532315719705343,6.442999999970198
313379.2357,-4.723470577747414,-3.3255246551406743,-1.365276426097401,-3.363230770847238,6.444000000017695
313379.2367,-8.035628680765289,-6.577389615651177,-4.348091492985033,-6.363880724220334,6.445000000006985
313379.2377,-11.228828153017801,-9.724236560665366,-7.326164399167985,-9.21539346584975,6.445999999996275
313379.2387,-14.001495703907986,-12.46738993268029,-10.006187506815701,-11.650784894675084,6.4469999999855645
313379.2397,-16.081558908640037,-14.536685543436462,-12.120834503123556,-13.433488913958794,6.447999999974854
313379.2407,-17.25326495527552,-15.716683327568706,-13.455084120386472,-14.380191709226425,6.449000000022352
313379.2417,-17.378784213039953,-15.867839484173654,-13.867479604323455,-14.378755676831979,6.4500000000116415
313379.2427,-16.412475951431553,-14.940570107783447,-13.304246040571869,-13.399480952141992,6.451000000000931
313379.2437,-14.406401873788214,-12.9808229077886,-11.804883918258673,-11.49859394754681,6.451999999990221
313379.2447,-11.506520162919522,-10.126593563970829,-9.498688390479808,-8.81360284153778,6.452999999979511
313379.2457,-7.939895977261618,-6.5956988713214395,-6.592528440981388,-5.550946502937064,6.454000000027008
313379.2467,-3.994135780893561,-2.6659648379683203,-3.3510722108291002,-1.9671092779641572,6.455000000016298
313379.2477,0.00899238010455951,1.3502780684515154,-0.07138091382624667,1.6549932688448576,6.456000000005588
313379.2487,3.74322607470747,5.134949751236743,2.945657756307702,5.03209483826099,6.456999999994878
313379.2497,6.907917363188197,8.393469075318167,5.424278532229694,7.906624088955009,6.4579999999841675
313379.2507,9.25569467126486,10.881693868040424,7.140355398804082,10.070219067714076,6.458999999973457
313379.2517,10.61502654560345,12.427975842114693,7.942910258522094,11.382460725107586,6.460000000020955
313379.2527,10.90553097080566,12.948229595442871,7.768526786707083,11.78304087926955,6.4610000000102445
313379.2537,10.144577666404993,12.452593815033685,6.647275452675586,11.29621786022726,6.461999999999534
313379.2547,8.444574824352989,11.04307887292159,4.699583753231126,10.027161619103707,6.462999999988824
313379.2557,6.0012338154617675,8.902468592438202,2.1243682674450883,8.150576386894755,6.463999999978114
313379.2567,3.0739776089394653,6.275589980539349,-0.820404034670169,5.892736441418053,6.465000000025611
313379.2577,-0.039583884116404865,3.4448008288509815,-3.8428217878110296,3.5087064447155667,6.466000000014901
313379.2587,-3.032619242420052,0.7020997459079499,-6.645349691168512,1.2569803297532882,6.467000000004191
313379.2597,-5.618663904947495,-1.679417365899727,-8.953601305363806,-0.6259830196326694,6.467999999993481
313379.2607,-7.558963016302109,-3.471976886631498,-10.542762867518267,-1.9488465819616985,6.4689999999827705
313379.2617,-8.684929052588462,-4.514862845589308,-11.259101256190872,-2.583863056573751,6.46999999997206
313379.2627,-8.91355990960181,-4.729374120675989,-11.034474115656831,-2.478939677693354,6.471000000019558
313379.2637,-8.254357302302829,-4.125578935711744,-9.892447764650058,-1.662146444019657,6.472000000008848
313379.2647,-6.807120137474201,-2.800248943404633,-7.945451389225005,-0.23825620177106296,6.472999999998137
313379.2657,-4.7508811846729095,-0.9262203501785541,-5.383273500037075,1.6223141584666156,6.473999999987427
313379.2667,-2.3251204458312693,1.2657315968590812,-2.454052795180537,3.7010487759862327,6.474999999976717
313379.2677,0.19485941715649657,3.5106878535631267,0.5603523765520368,5.753618249793924,6.476000000024214
313379.2687,2.5259447508486508,5.536682622516047,3.3721853589938173,7.534698037164526,6.477000000013504
313379.2697,4.40583483356222,7.0924164484756265,5.716065315823427,8.822867726148852,6.478000000002794
313379.2707,5.619452024388652,7.972845770332947,7.374937525529616,9.443134855316455,6.478999999992084
313379.2717,6.020538293950918,8.040124357184085,8.201156980716384,9.284863381403774,6.4799999999813735
313379.2727,5.5463192422571845,7.237834517940111,8.130645348116872,8.313340629289808,6.480999999970663
313379.2737,4.223804871941342,5.597110230016158,7.188745846493354,6.573843003152021,6.482000000018161
313379.2747,2.167123945525846,3.2340550073041068,5.487219361226906,4.187798424853856,6.483000000007451
313379.2757,-0.4338257096709046,0.33871572757654206,3.21269768763957,1.3414200755771064,6.48399999999674
313379.2767,-3.332272114807376,-2.843294530190707,0.6077504926075893,-1.7320745418319738,6.48499999998603
313379.2777,-6.249127147836494,-6.0347079611766885,-2.0535511165304223,-4.774915343502192,6.48599999997532
313379.2787,-8.900768362638985,-8.95368669480247,-4.493150891254989,-7.5296997060609865,6.487000000022817
313379.2797,-11.027288926258327,-11.341407596602977,-6.456878136314001,-9.764335770312533,6.488000000012107
313379.2807,-12.418415277831997,-12.987425310567724,-7.739913649099213,-11.294561198765464,6.489000000001397
313379.2817,-12.934523366576643,-13.750310537638741,-8.207329596856269,-12.001826767171217,6.489999999990687
313379.2827,-12.520668683635527,-13.571525622637118,-7.807667988373597,-11.844788012554869,6.490999999979977
313379.2837,-11.21223505540854,-12.481165050635983,-6.578208731490568,-10.863274148387417,6.492000000027474
313379.2847,-9.131634439888579,-10.594989044686294,-4.641397559078186,-9.174340244835005,6.493000000016764
313379.2857,-6.476373387136799,-8.103035471777634,-2.192775886692436,-6.96078408337919,6.494000000006054
313379.2867,-3.4996545012292737,-5.250924528470001,0.518406695342091,-4.45324719409597,6.494999999995343
313379.2877,-0.485419298206668,-2.3156907343247006,3.213993491016859,-1.907648104763083,6.495999999984633
313379.2887,2.279710337525105,0.42148314273102255,5.614695044298738,0.41984675067309246,6.496999999973923
313379.2897,4.5348255923804555,2.7029485783413607,7.4680994153711096,2.297867465785842,6.49800000002142
313379.2907,6.070655304230218,4.319964845881948,8.574152727708405,3.5424513833320344,6.49900000001071
313379.2917,6.750456579037676,5.1332623203808065,8.80558773707595,4.035008672206632,6.5
313379.2927,6.5237976297890645,5.086764164308988,8.121269633016695,3.733885347302071,6.50099999998929
313379.2937,5.431854882184283,4.213104893714307,6.571119774568381,2.6783922819606993,6.50199999997858
313379.2947,3.6036786258327345,2.6303884980429952,4.292101926326276,0.9849053855678942,6.503000000026077
313379.2957,1.2437684809458807,0.530488453187426,1.4956311251915568,-1.1645827007766765,6.504000000015367
313379.2967,-1.387845343931852,-1.8399771697518674,-1.5523932110408152,-3.5403411639734865,6.505000000004657
313379.2977,-4.001080533628717,-4.20414174364024,-4.557003410058385,-5.887463236976867,6.505999999993946
313379.2987,-6.3043567077204115,-6.282463993895233,-7.222565141413819,-7.950908070019944,6.506999999983236
313379.2997,-8.033434009241333,-7.820681008688967,-9.281403893448337,-9.500576510470005,6.507999999972526
313379.3007,-8.977711576735288,-8.615400205824091,-10.519868554830785,-10.353972556284788,6.509000000020023
313379.3017,-9.00140429851621,-8.534817050803774,-10.79928960528764,-10.394239157992029,6.510000000009313
313379.3027,-8.057512436196477,-7.532518490852249,-10.069783325083122,-9.581810070902966,6.510999999998603
313379.3037,-6.193199612390988,-5.653005256153009,-8.375547781470383,-7.958544172827769,6.511999999987893
313379.3047,-3.546031801970386,-3.0283735653410377,-5.8511233394943805,-5.643943844884485,6.512999999977183
313379.3057,-0.331421493214883,0.13354061588048902,-2.7089692847049314,-2.823832658572094,6.51400000002468
313379.3067,3.1775201145798433,3.5684181710474547,0.7804470332665645,0.2673960178212127,6.51500000001397
313379.3077,6.675778161695604,6.980254969216318,4.314123872863376,3.3692208416476803,6.51600000000326
313379.3087,9.855379326500262,10.069300944764509,7.585096388149927,6.2199297059706415,6.516999999992549
313379.3097,12.434681241055063,12.560432649760584,10.311340304822016,8.581616136611263,6.517999999981839
313379.3107,14.18516518915685,14.229209362595236,12.262212512974902,10.262796228432544,6.518999999971129
313379.3117,14.953133464163713,14.923088957967133,13.27987552968975,11.136443829202083,6.5200000000186265
313379.3127,14.674208754268736,14.575752278142613,13.293644101801306,11.151693534706633,6.521000000007916
313379.3137,13.379234138158827,13.213157417709303,12.325884315057525,10.33808400272461,6.521999999997206
313379.3147,11.191010184294479,10.950752276690329,10.488920708394708,8.801946963363964,6.522999999986496
313379.3157,8.312198349691094,7.98213594283998,7.9732843215265845,6.7153181799367925,6.523999999975786
313379.3167,5.005580106403549,4.56029252596562,5.02847849565116,4.298479871474049,6.525000000023283
313379.3177,1.5686049012034375,0.9732434479051436,1.9381670730037313,1.7978678244384796,6.526000000012573
313379.3187,-1.6952855027160874,-2.483494785972744,-1.0077697404837977,-0.5384705670716342,6.527000000001863
313379.3197,-4.505757704388853,-5.534953534942978,-3.5415659650173756,-2.485443196549353,6.527999999991152
313379.3207,-6.632276453784334,-7.952519288994797,-5.443509655828904,-3.863081457864349,6.528999999980442
313379.3217,-7.915787616309936,-9.574994436584017,-6.562955510173023,-4.554124993442523,6.529999999969732
313379.3227,-8.28329205923593,-10.322872215684598,-6.8323630539640705,-4.515291860108095,6.5310000000172295
313379.3237,-7.753907177960735,-10.204457553626842,-6.273002680265911,-3.781126907780347,6.532000000006519
313379.3247,-6.435848540434449,-9.313270103251975,-4.991793873306687,-2.460054024583908,6.532999999995809
313379.3257,-4.51465479035163,-7.817024919687607,-3.1696138863447807,-0.7230276898346427,6.533999999985099
313379.3267,-2.2338372601833534,-5.9393155049901765,-1.0422551785993597,1.2140896720267098,6.534999999974389
313379.3277,0.1301223733338383,-3.9358419191711,1.1240663844820582,3.1126776197491606,6.536000000021886
313379.3287,2.2959502721348213,-2.067562779349772,3.060214231900271,4.735839252714111,6.537000000011176
313379.3297,4.006148784103612,-0.5734515517285003,4.521910045057683,5.872785923868141,6.538000000000466
313379.3307,5.05313325832674,0.3544250885481082,5.315027161116009,6.360702775850939,6.5389999999897555
313379.3317,5.300356635899723,0.591019628573086,5.315881296897282,6.101917459949759,6.539999999979045
313379.3327,4.69633549315857,0.0915955506459341,4.484494050399741,5.074653797435311,6.541000000026543
313379.3337,3.2801904473861785,-1.1031380534646216,2.8694968174890354,3.3362813031275023,6.5420000000158325
313379.3347,1.1781493388684365,-2.8705787658657083,0.6041666346947324,1.0187087587901031,6.543000000005122
313379.3357,-1.4086485878672246,-5.018139583382078,-2.1060398376898872,-1.6836569165040873,6.543999999994412
313379.3367,-4.223852472218686,-7.302355009198513,-5.003248338988972,-4.5322322862534845,6.544999999983702
313379.3377,-6.981168842989833,-9.453309719243393,-7.80229711183719,-7.26708443127345,6.545999999972992
313379.3387,-9.392715081334481,-11.201982867382505,-10.218773668069085,-9.632040628172641,6.547000000020489
313379.3397,-11.197666326790936,-12.307804994067649,-11.997204444861376,-11.399627493628861,6.548000000009779
313379.3407,-12.188372465295952,-12.583693884752496,-12.936621299953538,-12.393396144461232,6.548999999999069
313379.3417,-12.231366707878117,-11.916073976542993,-12.910979058261608,-12.505439107932816,6.5499999999883585
313379.3427,-11.281185488990042,-10.277868044606285,-11.882396874917772,-11.707369214688105,6.550999999977648
313379.3437,-9.385622276563188,-7.733132784809577,-9.905894412320515,-10.05366526950669,6.552000000025146
313379.3447,-6.681876609257782,-4.432824884236575,-7.125123528312129,-7.677031994383415,6.5530000000144355
313379.3457,-3.383952134611461,-0.602051564192469,-3.7594761961770815,-4.7762000253279195,6.554000000003725
313379.3467,0.23748381461697746,3.4800054946020182,-0.08379359274043223,-1.5973295466340407,6.554999999993015
313379.3477,3.880825674299483,7.505583267130584,3.5973729910688066,1.5891936889276186,6.555999999982305
313379.3487,7.242336354083034,11.166802236693522,6.9784626917518064,4.5143298538955206,6.556999999971595
313379.3497,10.045225676274033,14.184359557244475,9.78178655592552,6.935850627267672,6.558000000019092
313379.3507,12.06616004659402,16.333676042916146,11.783786918988328,8.661233056407434,6.559000000008382
313379.3517,13.156609893263862,17.46596190552592,12.83612279783409,9.56576384438937,6.559999999997672
313379.3527,13.256942530352127,17.52215298479702,12.879529951281025,9.604100393532867,6.5609999999869615
313379.3537,12.40187448086401,16.538356238298086,11.949105442458015,8.8141701304169,6.561999999976251
313379.3547,10.716739999840993,14.642263677307346,10.170499992066663,7.31303390273022,6.563000000023749
313379.3557,8.404929255315489,12.040867891020692,7.747385808940385,5.285119977008884,6.5640000000130385
313379.3567,5.727712712707881,9.000654673915754,4.941416586033116,2.963976218330853,6.565000000002328
313379.3577,2.9784133249028217,5.8221769899158575,2.046627053762831,0.6093171185726726,6.565999999991618
313379.3587,0.45344225219182305,2.811458566973106,-0.6392394698371617,-1.5184018764858955,6.566999999980908
313379.3597,-1.576977249683684,0.250981807194283,-2.8436885393482294,-3.183412207494938,6.567999999970198
313379.3607,-2.8955397608060176,-1.6269464212819849,-4.345903154681682,-4.19759441895041,6.569000000017695
313379.3617,-3.3594290209395212,-2.6618899397475038,-4.998076916054019,-4.438750134537067,6.570000000006985
313379.3627,-2.914618935503521,-2.7799591903997785,-4.739582714643983,-3.862418892955282,6.570999999996275
313379.3637,-1.601499643840294,-2.0000704839233343,-3.6026069389812934,-2.5061062052288348,6.5719999999855645
313379.3647,0.44873142822219475,-0.43120899313191696,-1.7087115061983582,-0.4855302458411156,6.572999999974854
313379.3657,3.0265739783713532,1.7390106902809674,0.7433295820705924,2.016727000238205,6.574000000022352
313379.3667,5.864418186281541,4.263348790503984,3.4972223141442993,4.76903858816151,6.5750000000116415
313379.3677,8.662470804269718,6.859639594722331,6.264443574426406,7.5132670965255235,6.576000000000931
313379.3687,11.11789847791101,9.23876670137914,8.752656807599804,9.989803806770011,6.576999999990221
313379.3697,12.95435850576841,11.133182265459398,10.69447582031829,11.96266178535508,6.577999999979511
313379.3707,13.949048628067546,12.323191753391718,11.873768713137844,13.242172186974113,6.579000000027008
313379.3717,13.954648248584055,12.658450004360706,12.146936651354574,13.703072946507518,6.580000000016298
313379.3727,12.914020228799378,12.072587285047627,11.457095168983452,13.296234929240635,6.581000000005588
313379.3737,10.866246552328098,10.589559113168322,9.839780678101302,12.052897745032574,6.581999999994878
313379.3747,7.943413999080939,8.321124798016191,7.419633825648356,10.081024242677278,6.5829999999841675
313379.3757,4.3584652228621525,5.455727549653252,4.3983932277707,7.554156913154278,6.583999999973457
313379.3767,0.38529853627797284,2.239888806910637,1.035381700221154,4.693895138211478,6.585000000020955
313379.3777,-3.66694839279761,-1.0460408959510157,-2.3776005366333064,1.7477373174916238,6.5860000000102445
313379.3787,-7.482933137326332,-4.115383858984478,-5.544516597559296,-1.0355148504030747,6.586999999999534
313379.3797,-10.770645090132096,-6.703185669489393,-8.19370482844723,-3.4303556527293684,6.587999999988824
313379.3807,-13.288584170640723,-8.592061448312563,-10.104065806853816,-5.2567463414783795,6.588999999978114
313379.3817,-14.867957226910868,-9.633306309888187,-11.126268658543479,-6.397667455882452,6.590000000025611
313379.3827,-15.4277588217533,-9.761207286977895,-11.196911011545527,-6.810319027290589,6.591000000014901
313379.3837,-14.981301659398602,-8.999164332985444,-10.344258752236367,-6.5298625981487435,6.592000000004191
313379.3847,-13.633599420173816,-7.457034063749172,-8.685017491451278,-5.665335295446127,6.592999999993481
313379.3857,-11.569899181049644,-5.319972549974868,-6.4124663857285125,-4.388139142710534,6.5939999999827705
313379.3867,-9.036524357745504,-2.829888137461627,-3.7771306294596667,-2.9142424801229816,6.59499999997206
313379.3877,-6.315937718789716,-0.26134015685593903,-1.0618987486941462,-1.4818527181628922,6.596000000019558
313379.3887,-3.6984943324021913,2.1057365169772475,1.4459666293610012,-0.3267694896563762,6.597000000008848
313379.3897,-1.4536716392814995,4.01379104470005,3.483173639599922,0.34213971421226846,6.597999999998137
313379.3907,0.19639264162355824,5.253164630271608,4.836318393209525,0.36490620558051107,6.598999999987427
313379.3917,1.0984583647864592,5.68283427995259,5.362831761883248,-0.3523198396823732,6.599999999976717
313379.3927,1.1827290303401592,5.2443494399530675,5.004902673695947,-1.8265229614715934,6.601000000024214
313379.3937,0.46897380661905447,3.967589058592527,3.7950157254107295,-3.994644330103589,6.602000000013504
313379.3947,-0.9363535039729104,1.9677718305499066,1.8525651402712215,-6.7183256679346615,6.603000000002794
313379.3957,-2.851688206037529,-0.5659866475334249,-0.6281161492933457,-9.796151650143711,6.603999999992084
313379.3967,-5.039452735033979,-3.3894438470496935,-3.397130207214446,-12.98222999070945,6.6049999999813735
313379.3977,-7.230768026580844,-6.227479624071455,-6.173881315239238,-16.009323350658395,6.605999999970663
313379.3987,-9.153313260078763,-8.801436562657843,-8.67498766240318,-18.61429567456435,6.607000000018161
313379.3997,-10.559557859599392,-10.856856849624988,-10.64248900297879,-20.563401975858273,6.608000000007451
313379.4007,-11.252551943829237,-12.188879500486351,-11.869572014073443,-21.674958073524163,6.60899999999674
313379.4017,-11.106700912399278,-12.66278876898333,-12.221277927923857,-21.837174897175803,6.60999999998603
313379.4027,-10.08144307286742,-12.227678162750406,-11.648148691457036,-21.019406765842444,6.61099999997532
313379.4037,-8.22644779112222,-10.92186837188202,-10.191460260202867,-19.275699359400498,6.612000000022817
313379.4047,-5.677787074212285,-8.869525677653504,-7.979516850252569,-16.740269005954712,6.613000000012107
313379.4057,-2.6454238135377977,-6.26879094050781,-5.215357218768435,-13.615327727502061,6.614000000001397
313379.4067,0.606782241056894,-3.3725635135747973,-2.1570673844721675,-10.152411896120453,6.614999999990687
313379.4077,3.7866085664285127,-0.46380765181819705,0.9073789957244646,-6.629003833423501,6.615999999979977
313379.4087,6.602050201133731,2.172209739272547,3.688292348599556,-3.3226936020424724,6.617000000027474
313379.4097,8.790144772591503,4.276035022099364,5.92269238386631,-0.485367861124318,6.618000000016764
313379.4107,10.143207223985883,5.639741607353422,7.400199767902635,1.6800894596109168,6.619000000006054
313379.4117,10.529883747685298,6.127714600966466,7.983851809519988,3.0383436400231214,6.619999999995343
313379.4127,9.908933274585005,5.690455671250198,7.6237933792805,3.533623407290428,6.620999999984633
313379.4137,8.334349545944747,4.370035070198794,6.362488942502592,3.194058091946141,6.621999999973923
313379.4147,5.951278610090564,2.2966305306335975,4.330929362791899,2.1279384861164035,6.62300000002142
313379.4157,2.9830833674086317,-0.3235385416759667,1.7361871136836289,0.5122861706587114,6.62400000001071
313379.4167,-0.28922908455762686,-3.227733379544008,-1.1584803390979583,-1.4251380281137185,6.625
313379.4177,-3.5532545699732028,-6.121797659701485,-4.059049739314058,-3.4286207039802807,6.62599999998929
313379.4187,-6.494593937323091,-8.708415220185588,-6.669203148216426,-5.239849506004441,6.62699999997858
313379.4197,-8.826578703139566,-10.715789262505284,-8.71907993808264,-6.623360853682299,6.628000000026077
313379.4207,-10.317452259069558,-11.92396396861823,-9.991508866912381,-7.389605468452095,6.629000000015367
313379.4217,-10.812381301090324,-12.186235497927356,-10.34316321891216,-7.413393542967012,6.630000000004657
313379.4227,-10.248170420429924,-11.443574073560264,-9.718575612238814,-6.64593741007281,6.630999999993946
313379.4237,-8.659258218957019,-9.730656053754426,-8.155644337549942,-5.119338778933902,6.631999999983236
313379.4247,-6.174417142538638,-7.172918474301989,-5.782092089638067,-2.9431082936050372,6.632999999972526
313379.4257,-3.0044792150004125,-3.9749191893962945,-2.8032196976456887,-0.2930848114347592,6.634000000020023
313379.4267,0.57772172117958,-0.4011285256118401,0.517854206090292,2.606135873981836,6.635000000009313
313379.4277,4.26324841930987,3.2489888593895158,3.8855445992541657,5.503520671479572,6.635999999998603
313379.4287,7.736293678357509,6.669191832962176,7.000275353558129,8.146464108974099,6.636999999987893
313379.4297,10.703924613434895,9.57525390215047,9.587307895707102,10.30575099979326,6.637999999977183
313379.4307,12.923469992825806,11.731550406642878,11.423119992561785,11.798164963474447,6.63900000002468
313379.4317,14.224918398094854,12.972884206418346,12.356772287333047,12.50452671976343,6.64000000001397
313379.4327,14.526186263258978,13.219460456610046,12.324191085594606,12.381398653155422,6.64100000000326
313379.4337,13.839813707526126,12.483591809965919,11.353988665070357,11.465316866606665,6.641999999992549
313379.4347,12.27048402392353,10.867522950915337,9.564269240498605,9.869147368453275,6.642999999981839
313379.4357,10.003657721033875,8.552628689123416,7.150748744358211,7.770936944457608,6.643999999971129
313379.4367,7.286476632211892,5.781078316315333,4.367363710801709,5.3963657382837775,6.6450000000186265
313379.4377,4.40284336397405,2.8317886825281,1.5012759622301841,2.9965354253336165,6.646000000007916
313379.4387,1.6451431350134342,-0.00696165468933543,-1.1552759456484691,0.8232827598698662,6.646999999997206
313379.4397,-0.7146057854578055,-2.465568247424135,-3.3335235443211118,-0.8955513315369633,6.647999999986496
313379.4407,-2.451341133803654,-4.3190447897731605,-4.8143243102546185,-1.9784654078327306,6.648999999975786
313379.4417,-3.40868508840691,-5.408349295807229,-5.449375950889501,-2.308059470203899,6.650000000023283
313379.4427,-3.5136981052993566,-5.655028865229895,-5.175426388520562,-1.8424732914972213,6.651000000012573
313379.4437,-2.7832366085144264,-5.067783033281651,-4.020105851671254,-0.6193823947756868,6.652000000001863
313379.4447,-1.3213235324804855,-3.7403448785724276,-2.098830216116555,1.2478344713091156,6.652999999991152
313379.4457,0.6921723022961743,-1.8409352409880375,0.39689963643920073,3.5813725668303396,6.653999999980442
313379.4467,3.0203956889876067,0.40562552384881045,3.218634973836562,6.156607605745317,6.654999999969732
313379.4477,5.3940095115303315,2.7413431996477033,6.085658171372958,8.724294268551343,6.6560000000172295
313379.4487,7.538896107211142,4.901666150694475,8.712768135573175,11.03516904078282,6.657000000006519
313379.4497,9.204294913265771,6.642636382131581,10.838435680189995,12.864534258210206,6.657999999995809
313379.4507,10.188575492059236,7.7658716792857065,12.250559942342793,14.034403120322498,6.658999999985099
313379.4517,10.360080721821426,8.138894466697415,12.807296276868021,14.431026218992924,6.659999999974389
313379.4527,9.670963326528108,7.708786966646129,12.45091349551603,14.016075114057214,6.661000000021886
313379.4537,8.162631897583145,6.507815112544683,11.213325844103124,12.830382944202576,6.662000000011176
313379.4547,5.962251953285858,4.650460140409584,9.212765155453996,10.989874629945431,6.663000000000466
313379.4557,3.2706318255620914,2.3221483933735536,6.641930630536819,8.674087934237106,6.6639999999897555
313379.4567,0.34267530947213004,-0.2392072201385158,3.7487920675778117,6.108415975079358,6.664999999979045
313379.4577,-2.537680741445777,-2.7670274940800694,0.8119447891684578,3.5418200749484563,6.666000000026543
313379.4587,-5.08557777450662,-4.99288907840918,-1.8870498841894614,1.2222083194907514,6.6670000000158325
313379.4597,-7.0436241238875335,-6.673687972603463,-4.091608548308898,-0.6280940232727367,6.668000000005122
313379.4607,-8.207755939640355,-7.616445328487423,-5.595596168732675,-1.8343637396653898,6.668999999994412
313379.4617,-8.44800834072687,-7.6982842119789785,-6.263808587893824,-2.28681552861321,6.669999999983702
313379.4627,-7.722129724145669,-6.879577602766219,-6.045443215268838,-1.951540671859306,6.670999999972992
313379.4637,-6.080671094768657,-5.208937289183435,-4.9792237401714265,-0.8739627107256881,6.672000000020489
313379.4647,-3.663016657952094,-2.8195147846062287,-3.18966581739846,0.8255404701050618,6.673000000009779
313379.4657,-0.6847099742763413,0.08305972707809242,-0.8748425878205146,2.9634284678167826,6.673999999999069
313379.4667,2.582715369471559,3.239950098671255,1.7131539920367522,5.3110546513353345,6.6749999999883585
313379.4677,5.837454231737573,6.3637355682003784,4.293139937104098,7.617219899367787,6.675999999977648
313379.4687,8.776203494162589,9.165986817710778,6.582705735574113,9.633012087067177,6.677000000025146
313379.4697,11.123192588568632,11.385106037541124,8.326281976781615,11.136491607451413,6.6780000000144355
313379.4707,12.656642311528532,12.811707102012724,9.320640305282526,11.954794425614853,6.679000000003725
313379.4717,13.230069630344191,13.309045956735895,9.435314127902913,11.98147371433591,6.679999999993015
313379.4727,12.78635554389259,12.826489883558592,8.62591900167958,11.18736475009092,6.680999999982305
313379.4737,11.363196739519669,11.404690822324657,6.939046972681171,9.623890193524199,6.681999999971595
313379.4747,9.089401061884315,9.171936308463781,4.508234351617285,7.418462291831258,6.683000000019092
313379.4757,6.172379638752085,6.33201276222467,1.54137765635421,4.762412548221692,6.684000000008382
313379.4767,2.878047559758805,3.144745525289475,-1.6991880781200837,1.8926121923371666,6.684999999997672
313379.4777,-0.49491379193801155,-0.09890311048650725,-4.922013071180022,-0.9314334681646281,6.6859999999869615
313379.4787,-3.6439288678604984,-3.104762902049947,-7.834790680132,-3.452787823010404,6.686999999976251
313379.4797,-6.291724242670173,-5.60369849402289,-10.172790269808743,-5.44212559209804,6.688000000023749
313379.4807,-8.213006784470032,-7.377419609941624,-11.724684754509159,-6.7201699104667405,6.6890000000130385
313379.4817,-9.256027093895046,-8.27934717392102,-12.353243543067501,-7.175329472312317,6.690000000002328
313379.4827,-9.356930953211021,-8.24850455743998,-12.008860483126956,-6.774807094453559,6.690999999991618
313379.4837,-8.545505790893735,-7.315082452861459,-10.734584386872392,-5.568086121246199,6.691999999980908
313379.4847,-6.941769511293818,-5.597137545959887,-8.662148605384976,-3.6824434456550508,6.692999999970198
313379.4857,-4.74374331652007,-3.2887498891529026,-5.999374837703147,-1.310915031990805,6.694000000017695
313379.4867,-2.2076109331764298,-0.6407971406313461,-3.0101689444065323,1.3061242576840912,6.695000000006985
313379.4877,0.3777902006985399,2.0637758414737655,0.010949470782198326,3.9039819493300243,6.695999999996275
313379.4887,2.7196473763501445,4.537776625306934,2.767307409628277,6.219037011164324,6.6969999999855645
313379.4897,4.550213728101364,6.517957608414767,4.988759708801951,8.014032473351644,6.697999999974854
313379.4907,5.653370965367196,7.790829115290287,6.457799821831802,9.100817023590432,6.699000000022352
313379.4917,5.886116289826518,8.213574358705786,7.030559226915046,9.358330132045454,6.7000000000116415
313379.4927,5.192873520547467,7.728026787599568,6.650653142486957,8.744089563774862,6.701000000000931
313379.4937,3.6112310231686795,6.3663489357290945,5.354528285646084,7.2980741942828455,6.701999999990221
313379.4947,1.2685479548055711,4.247863360486403,3.2677976300706444,5.138636847821496,6.702999999979511
313379.4957,-1.6302365053735446,1.5673512670727079,0.592926406500642,2.4508588937961,6.704000000027008
313379.4967,-4.822396253963966,-1.424031637055723,-2.410523047665978,-0.5315053993108431,6.705000000016298
313379.4977,-8.012876244425264,-4.443351161486268,-5.451154994969674,-3.5487231974632794,6.706000000005588
313379.4987,-10.902925014056926,-7.203593396796072,-8.234044198662456,-6.340194628006615,6.706999999994878
313379.4997,-13.219102394753904,-9.441754576416843,-10.489317416233739,-8.669527584700495,6.7079999999841675
313379.5007,-14.739828000563207,-10.944573120937157,-11.998225828621472,-10.34712959478965,6.708999999973457
313379.5017,-15.316878306589789,-11.56938651560132,-12.614170086361186,-11.24811745210007,6.710000000020955
313379.5027,-14.889735774257769,-11.258073368737788,-12.276635946527431,-11.323807156146511,6.7110000000102445
313379.5037,-13.491393903882509,-10.0427180605772,-11.016694035285159,-10.60567812720193,6.711999999999534
313379.5047,-11.245058660144283,-8.042445571025176,-8.95354394210877,-9.201444795142248,6.712999999988824
313379.5057,-8.352077487150334,-5.451738125100151,-6.2824596788254645,-7.283643077568844,6.713999999978114
313379.5067,-5.072284913341431,-2.5213787205147455,-3.2553346927023856,-5.071873137482917,6.715000000025611
313379.5077,-1.6986946206565825,0.466112081428114,-0.15574780548238454,-2.8104613045284967,6.716000000014901
313379.5087,1.4709806232463278,3.224141023720396,2.728994068514234,-0.7437523391439852,6.717000000004191
313379.5097,4.163191472606175,5.49010017356499,5.136087030200907,0.9085255343784221,6.717999999993481
313379.5107,6.154972230253254,7.051071068727374,6.852961772674758,1.9733887991076902,6.7189999999827705
313379.5117,7.295335613786313,7.764658097637537,7.737990134307438,2.3420331764544677,6.71999999997206
313379.5127,7.519553207434064,7.572910483091396,7.734136457628753,1.9808494029759394,6.721000000019558
313379.5137,6.854931342573415,6.507968048880947,6.874217773295992,0.9349261844537741,6.722000000008848
313379.5147,5.41752652691434,4.688875217305962,5.27726182526506,-0.6763151857557882,6.722999999998137
313379.5157,3.400132942325795,2.3098712832615016,3.1363268926015957,-2.6709363190895226,6.723999999987427
313379.5167,1.0527299376288475,-0.3787014958305733,0.6989864929987605,-4.8225959626326045,6.724999999976717
313379.5177,-1.3426838998678328,-3.0950085438793717,-1.7575968697322868,-6.883190844311594,6.726000000024214
313379.5187,-3.5003938968393933,-5.5534491189267445,-3.954552406152619,-8.607803462005542,6.727000000013504
313379.5197,-5.159626664162767,-7.492789842662359,-5.6393882601111756,-9.779506672981697,6.728000000002794
313379.5207,-6.110744643059066,-8.701957187176227,-6.61151541403022,-10.231584174697499,6.728999999992084
313379.5217,-6.21640277545764,-9.040968704752004,-6.742688260995705,-9.864974101035878,6.7299999999813735
313379.5227,-5.4255864898253785,-8.454957106925326,-5.9903389335387764,-8.659205818461032,6.730999999970663
313379.5237,-3.7791482285152913,-6.979915307166139,-4.402478243876131,-6.675732429019744,6.732000000018161
313379.5247,-1.40629317198412,-4.739598311251787,-2.1136624070903958,-4.053301730784653,6.733000000007451
313379.5257,1.4876479948060968,-1.933880401561014,0.6675993126707389,-0.9957841726748767,6.73399999999674
313379.5267,4.640967356036903,1.1803008686881395,3.6787810511276144,2.2463880812169195,6.73499999998603
313379.5277,7.760919826141672,4.313560135882142,6.628684453528521,5.399393312799784,6.73599999997532
313379.5287,10.552177328868982,7.171844516394616,9.225721641550484,8.191575322608998,6.737000000022817
313379.5297,12.745613604747849,9.48467725961523,11.206377153260705,10.37891933032564,6.738000000012107
313379.5307,14.124602860756099,11.031120310439874,12.36106778158538,11.767992520640634,6.739000000001397
313379.5317,14.546257949750556,11.660936199396941,12.554870130280683,12.234138003912383,6.739999999990687
313379.5327,13.955528262257824,11.30890022138836,11.741084247319451,11.733171000277585,6.740999999979977
313379.5337,12.39077560978371,10.000883890238827,9.966299201750246,10.30545622293083,6.742000000027474
313379.5347,9.980279727102522,7.851134506962215,7.366454772535792,8.071984177943044,6.743000000016764
313379.5357,6.93001203362688,5.051034659817889,4.154271529386742,5.22283929124722,6.744000000006054
313379.5367,3.5038701351497106,1.8504555606038204,0.599263626538419,1.999188782392112,6.744999999995343
313379.5377,-0.0016973634838280288,-1.466461811048339,-2.9977277638209334,-1.3294537211330077,6.745999999984633
313379.5387,-3.2861979673147044,-4.608724024255888,-6.333008065760656,-4.490482546103792,6.746999999973923
313379.5397,-6.073950886872483,-7.3064203715686755,-9.128744755500312,-7.233527531802796,6.74800000002142
313379.5407,-8.140474431501259,-9.336451051451679,-11.159136695557482,-9.353411169255601,6.74900000001071
313379.5417,-9.33383088032937,-10.543545884674467,-12.271498971594506,-10.708531052764913,6.75
313379.5427,-9.588848728578338,-10.85453798357415,-12.400222351289647,-11.232917134997326,6.75099999998929
313379.5437,-8.932839849734757,-10.2845221738945,-11.57226319482586,-10.940836744859443,6.75199999997858
313379.5447,-7.482261853689287,-8.934326414652787,-9.903647395341126,-9.923552252738677,6.753000000026077
313379.5457,-5.430662216602188,-6.979577577410414,-7.587349726568735,-8.338604862610001,6.754000000015367
313379.5467,-3.0290938403238283,-4.652467053550726,-4.873751950273205,-6.392727984464807,6.755000000004657
313379.5477,-0.5609280628303146,-2.2180359942760783,-2.04560683208697,-4.320113572653783,6.755999999993946
313379.5487,1.6864612800597298,0.052665382608529814,0.6100299488988832,-2.358204144792632,6.756999999983236
313379.5497,3.4503639211827766,1.9098873251537958,2.8301444123884645,-0.7234181439664099,6.757999999972526
313379.5507,4.518937511162067,3.150260612145441,4.401606126976519,0.41078584231797394,6.759000000020023
313379.5517,4.75238075297058,3.6371728922347364,5.181976454386658,0.9313391810323167,6.760000000009313
313379.5527,4.096999755433637,3.3144341380625275,5.113248524422214,0.7967722463340026,6.760999999998603
313379.5537,2.59078912208374,2.2118881565646604,4.227179545495402,0.041106667858438986,6.761999999987893
313379.5547,0.3599812023793813,0.4424228367809573,2.6417022709262694,-1.2299383361901777,6.762999999977183
313379.5557,-2.393097853334342,-1.8093190615226722,0.5487786454571216,-2.8500325350804077,6.76400000002468
313379.5567,-5.409674809441018,-4.305407744223611,-1.8051009974280585,-4.609498589127195,6.76500000001397
313379.5577,-8.399753494188486,-6.778443566834992,-4.14384765681428,-6.277025748000832,6.76600000000326
313379.5587,-11.070444980618472,-8.958366055037528,-6.18967354543013,-7.623664661174683,6.766999999992549
313379.5597,-13.154628631583225,-10.599601142707828,-7.691211309442313,-8.446707635924186,6.767999999981839
313379.5607,-14.437137068983573,-11.505858144565511,-8.449079479182268,-8.591068168115171,6.768999999971129
313379.5617,-14.775901383073855,-11.550117826159303,-8.336370717140097,-7.966018591801673,6.7700000000186265
313379.5627,-14.115987264575852,-10.68782496266967,-7.312036615919901,-6.555601158958479,6.771000000007916
313379.5637,-12.495149704659982,-8.961966682222737,-5.4258388121142485,-4.421650907779235,6.771999999997206
313379.5647,-10.040365111359778,-6.499516120994158,-2.8143628686906084,-1.6990970730366373,6.772999999986496
313379.5657,-6.955683644720624,-3.499571113976221,0.3115322115578926,1.4160280616946341,6.773999999975786
313379.5667,-3.5025946349922443,-0.21433631174532866,3.686615670516611,4.68472300969098,6.775000000023283
313379.5677,0.025169186585194354,3.075196193187728,7.016602801711583,7.847534917555886,6.776000000012573
313379.5687,3.3299190548427937,6.086487430521545,10.006421030988566,10.649265912983413,6.777000000001863
313379.5697,6.138617969796635,8.562941013575243,12.388665011228989,12.863450893929217,6.777999999991152
313379.5707,8.229007999222256,10.298939341473364,13.94946004372073,14.314205299067423,6.778999999980442
313379.5717,9.450701093921534,11.159959873170145,14.549203899092786,14.893292964598707,6.779999999969732
313379.5727,9.739173023481543,11.095782844533444,14.136155624391106,14.570727291554649,6.7810000000172295
313379.5737,9.121297685845098,10.145475790742529,12.751537498649359,13.397848438169117,6.782000000006519
313379.5747,7.711890310010869,8.433644321648732,10.525644746266046,11.502553565157687,6.782999999995809
313379.5757,5.701611422265897,6.158294104276759,7.6653359122787466,9.077124406584458,6.783999999985099
313379.5767,3.3374322282590363,3.571472142691986,4.434119016499998,6.359821423284941,6.784999999974389
313379.5777,0.8975929963615282,0.9545655062898167,1.1267723080007699,3.6120253972415317,6.786000000021886
313379.5787,-1.336472628299814,-1.409337066152007,-1.9590272156585096,1.0931454677445047,6.787000000011176
313379.5797,-3.108475861471178,-3.2633226449287775,-4.551301719285412,-0.9642658389735186,6.788000000000466
313379.5807,-4.213075595955478,-4.402043627365734,-6.429808826188034,-2.3767670253618913,6.7889999999897555
313379.5817,-4.516596203911769,-4.692130037141427,-7.446978658342563,-3.0274820554263275,6.789999999979045
313379.5827,-3.9706097074006528,-4.085616982653625,-7.541712585868166,-2.8770520276474216,6.791000000026543
313379.5837,-2.6170324478140237,-2.625058320172757,-6.744702724458686,-1.9670150228406456,6.7920000000158325
313379.5847,-0.5842202844864846,-0.43980712833006147,-5.174760493180737,-0.4152839841371881,6.793000000005122
313379.5857,1.9255683070546403,2.2661949510747235,-3.026521900364843,1.595835584719077,6.793999999994412
313379.5867,4.6561218861177895,5.233948267579621,-0.5507406285660279,3.837916877830624,6.794999999983702
313379.5877,7.3226878642349025,8.174358528158551,1.9708950871789257,6.059185234018197,6.795999999972992
313379.5887,9.64035523073173,10.796213444179857,4.253950293192916,8.009565677911901,6.797000000020489
313379.5897,11.352619994363337,12.834456264935183,6.039670701688904,9.465552679856035,6.798000000009779
313379.5907,12.257321295570266,14.076007713584612,7.120861375736104,10.25246609978389,6.798999999999069
313379.5917,12.227387974800594,14.380623847032618,7.362678214062755,10.261911390657856,6.7999999999883585
313379.5927,11.224338492478328,13.694758572532745,6.716291875913485,9.462729848738599,6.800999999977648
313379.5937,9.30318244562764,12.057079092430966,5.224081555358657,7.904360420805622,6.802000000025146
313379.5947,6.6082106296179335,9.595094122621171,3.0158451088705664,5.712276247509197,6.8030000000144355
313379.5957,3.3600506583212892,6.51321911462241,0.2963913064929429,3.0759342613623466,6.804000000003725
313379.5967,-0.1647804913212907,3.0734354973830866,-2.6742766379534118,0.2304089693477445,6.804999999993015
313379.5977,-3.659860629763103,-0.4295791866143279,-5.606252122928168,-2.566499667411287,6.805999999982305
313379.5987,-6.8178731285405565,-3.696436734410541,-8.20802100667824,-5.059450172855458,6.806999999971595
313379.5997,-9.359835167548146,-6.451424749684443,-10.214998470344694,-7.020575195615835,6.808000000019092
313379.6007,-11.061709213881201,-8.46854339378855,-11.41551950376293,-8.271883036693664,6.809000000008382
313379.6017,-11.775814957831075,-9.592673846179023,-11.671744577956872,-8.70285259955832,6.809999999997672
313379.6027,-11.444962481835264,-9.753837532657577,-10.933439129167967,-8.281497002892067,6.8109999999869615
313379.6037,-10.107933936418428,-8.973181458753462,-9.243281901813868,-7.057807508777179,6.811999999976251
313379.6047,-7.895781459590344,-7.360133672181218,-6.7331847505777676,-5.159232378697132,6.813000000023749
313379.6057,-5.01930141949645,-5.101034816635818,-3.6119841522697356,-2.7786221885118363,6.8140000000130385
313379.6067,-1.7489021320251077,-2.4403826068548997,-0.14570652996265046,-0.1558080951728718,6.815000000002328
313379.6077,1.6111796903138973,0.34345538232825484,3.367666804710856,2.44539926742501,6.815999999991618
313379.6087,4.751811417306962,2.9656691582583457,6.626474474344635,4.762555877011371,6.816999999980908
313379.6097,7.38824086427676,5.162881258150998,9.353935305661466,6.5598124165548395,6.817999999970198
313379.6107,9.286882628458516,6.718739266175858,11.324215721515092,7.6505732308800205,6.819000000017695
313379.6117,10.28702811868455,7.484726207154834,12.383473777834286,7.915386077524185,6.820000000006985
313379.6127,10.31539274732372,7.394164011255917,12.463844604710246,7.313328327663468,6.820999999996275
313379.6137,9.392116582243808,6.468058007022551,11.589025946430043,5.885790080758649,6.8219999999855645
313379.6147,7.627671776645281,4.812234902447456,9.870946994768703,3.752296456479858,6.822999999974854
313379.6157,5.211019314043224,2.606083938716791,7.497877873410088,1.0987875825303204,6.824000000022352
313379.6167,2.3902119608038226,0.08403670084761876,4.71517522639409,-1.8404903765104863,6.8250000000116415
313379.6177,-0.5526237984275997,-2.488365583853898,1.8005792294036915,-4.805708211334706,6.826000000000931
313379.6187,-3.329448620757909,-4.841437498083702,-0.9634915554263084,-7.536568085832066,6.826999999990221
313379.6197,-5.674834004678205,-6.728671403329175,-3.317910719074773,-9.797356727507331,6.827999999979511
313379.6207,-7.372040224977691,-7.951706696604715,-5.052321959971928,-11.39949463759456,6.829000000027008
313379.6217,-8.274086937564237,-8.380470770462036,-6.025616333843682,-12.219387303598518,6.830000000016298
313379.6227,-8.317753197585397,-7.966493367529239,-6.179396975100802,-12.209847480946491,6.831000000005588
313379.6237,-7.529144174703177,-6.748070016953983,-5.543113376393067,-11.403989598465833,6.831999999994878
313379.6247,-6.020295771488549,-4.846754741124094,-4.230370631664904,-9.911236286368334,6.8329999999841675
313379.6257,-3.977173739976577,-2.4555182008992285,-2.4267908694140847,-7.90585053913441,6.833999999973457
313379.6267,-1.6402737935032556,0.18026918332446518,-0.370638756450394,-5.609139368713497,6.835000000020955
313379.6277,0.7202398486447689,2.7871597494565212,1.671861596388815,-3.2670942903268054,6.8360000000102445
313379.6287,2.832379884155934,5.090860837556075,3.4340650999556903,-1.125679994127012,6.836999999999534
313379.6297,4.450391454388869,6.8436894824723975,4.676561728497014,0.5937885353950122,6.837999999988824
313379.6307,5.380220756483978,7.849534876378362,5.212197203557634,1.7167507515619407,6.838999999978114
313379.6317,5.499852109753298,7.983853406535516,4.925961351144538,2.132806381133189,6.840000000025611
313379.6327,4.772472175842112,7.20670419275909,3.787749296512318,1.806704540518654,6.841000000014901
313379.6337,3.2511250738227244,5.5675126431933375,1.856699852300824,0.781829836525387,6.842000000004191
313379.6347,1.074359828623127,3.2010591566346336,-0.723356777880875,-0.824162600876878,6.842999999993481
313379.6357,-1.5467401782708685,0.31505046830486677,-3.736934667922059,-2.8311385896352457,6.8439999999827705
313379.6367,-4.348904470917477,-2.8295420292963147,-6.917167150823824,-5.014547038328723,6.84499999997206
313379.6377,-7.042426801659013,-5.9434804293266925,-9.971360919385543,-7.127978694879504,6.846000000019558
313379.6387,-9.339808684020246,-8.737170634874284,-12.609343934670333,-8.928002866353964,6.847000000008848
313379.6397,-10.984489405146542,-10.948769248305544,-14.571839467319787,-10.19883620278388,6.847999999998137
313379.6407,-11.776837382991376,-12.369745227847307,-15.65608696859352,-10.774410022973663,6.848999999987427
313379.6417,-11.59483510059579,-12.865396307959275,-15.736191047941118,-10.555653597235613,6.849999999976717
313379.6427,-10.407399182054316,-12.388306548979838,-14.776187428402757,-9.521275827072095,6.851000000024214
313379.6437,-8.27898898109693,-10.983414984094052,-12.834519957314006,-7.730961448173363,6.852000000013504
313379.6447,-5.365001993151984,-8.784179518589834,-10.059456785564818,-5.320638289960505,6.853000000002794
313379.6457,-1.8983500652201266,-6.000185571478616,-6.6758552621646325,-2.490246863152301,6.853999999992084
313379.6467,1.8315306551264483,-2.897380981973132,-2.964527809536286,0.514823134147618,6.8549999999813735
313379.6477,5.505244699923238,0.22716377177920158,0.7638173166769803,3.42684460033709,6.855999999970663
313379.6487,8.803040182044269,3.073537995393684,4.197556478925966,5.981181862873031,6.857000000018161
313379.6497,11.434612988203392,5.36758731267376,7.053261897724705,7.9415762594229955,6.858000000007451
313379.6507,13.16625140006792,6.887064698864953,9.102138281382896,9.122838883678655,6.85899999999674
313379.6517,13.842713889086172,7.482813682925451,10.191237541168114,9.408750349836131,6.85999999998603
313379.6527,13.401739629408764,7.092943808159714,10.257410304659365,8.763431211795297,6.86099999997532
313379.6537,11.879801910830937,5.748638852939186,9.332657516001294,7.235079490889534,6.862000000022817
313379.6547,9.408559890472702,3.5710502833076343,7.540379798761591,4.9517118201388675,6.863000000012107
313379.6557,6.20236167774144,0.7595927117048876,5.082905049274084,2.1093197638443506,6.864000000001397
313379.6567,2.5380142265264882,-2.4272094957327326,2.2215198237868194,-1.0464126932969113,6.864999999990687
313379.6577,-1.2712209840616329,-5.696455958964282,-0.7490448985024153,-4.243062264179705,6.865999999979977
313379.6587,-4.904895189898729,-8.748779471768144,-3.5291886602400484,-7.206872411706984,6.867000000027474
313379.6597,-8.06508361466655,-11.306724335410943,-5.843300554072413,-9.688161637333346,6.868000000016764
313379.6607,-10.503688591518603,-13.140850149694721,-7.466104837719893,-11.484289166800652,6.869000000006054
313379.6617,-12.04472615835062,-14.091047214130073,-8.243947341692614,-12.457977040231766,6.869999999995343
313379.6627,-12.599484428813712,-14.081023874219392,-8.108976266522394,-12.549245298211982,6.870999999984633
313379.6637,-12.173142710141615,-13.124597950570893,-7.0848689902936055,-11.779843463036135,6.871999999973923
313379.6647,-10.862276279364362,-11.323227850158581,-5.283584749644953,-10.249795384425967,6.87300000002142
313379.6657,-8.843561112280403,-8.85507534477836,-2.8935004476893327,-8.126443871847721,6.87400000001071
313379.6667,-6.354848754035958,-5.956717514215488,-0.16012758762712045,-5.627111111373886,6.875
313379.6677,-3.6705203937567306,-2.899339329156019,2.6386696935596317,-2.9971093886730746,6.87599999998929
313379.6687,-1.073579084433612,0.0382288492507645,5.220502741415486,-0.48528378983342974,6.87699999997858
313379.6697,1.1727534573996596,2.5969647679892676,7.326588182790253,1.6804991459601804,6.878000000026077
313379.6707,2.851133533690675,4.5628968203967375,8.747412507016495,3.3155077789847645,6.879000000015367
313379.6717,3.8113231188797143,5.787660979497224,9.343413234080584,4.2957789695517565,6.880000000004657
313379.6727,3.9844763561600023,6.202367250647697,9.05865363019574,4.569514768699254,6.880999999993946
313379.6737,3.3891055610327707,5.8234365212615575,7.9261607469296,4.161149121219601,6.881999999983236
313379.6747,2.1281742876995176,4.749864788176207,6.064418929560153,3.1677188451224296,6.882999999972526
313379.6757,0.37764460449012777,3.152219839690751,3.6653821204139523,1.7479351599181174,6.884000000020023
313379.6767,-1.6323484733402558,1.2544921720533353,0.9752028046737553,0.10507376401238773,6.885000000009313
313379.6777,-3.6417935350353474,-0.6893730132038935,-1.73040851482614,-1.5345880375131282,6.885999999998603
313379.6787,-5.388128009120102,-2.4219116874768325,-4.173752040905963,-2.9456193679889404,6.886999999987893
313379.6797,-6.633850843276911,-3.708901819654619,-6.102907246300803,-3.9271762691770586,6.887999999977183
313379.6807,-7.191653266223196,-4.363775258561625,-7.316954217640506,-4.32425346047049,6.88900000002468
313379.6817,-6.94454366776062,-4.2672397398149355,-7.686152157220524,-4.044312992683449,6.89000000001397
313379.6827,-5.85893741091588,-3.3801440250798405,-7.165076283587585,-3.0676132476020053,6.89100000000326
313379.6837,-3.9893779120293895,-1.7482875141417378,-5.797407878155725,-1.450185559748573,6.891999999992549
313379.6847,-1.4743832335510536,0.5013273037564917,-3.7118943093904435,0.6808657821905117,6.892999999981839
313379.6857,1.4762086528326182,3.1724538357726084,-1.109865842103894,3.1393029196277933,6.893999999971129
313379.6867,4.6011792929512465,6.018611745161687,1.754471500182346,5.697776435044696,6.8950000000186265
313379.6877,7.613212189920979,8.767287461491685,4.5990345688498735,8.110166545746615,6.896000000007916
313379.6887,10.227041440801113,11.146944750156141,7.141696965327275,10.136046056460003,6.896999999997206
313379.6897,12.187697389542794,12.914179948340472,9.128219044072875,11.564849333039172,6.897999999986496
313379.6907,13.296059628145112,13.87833313070022,10.357520975685624,12.23735073846728,6.898999999975786
313379.6917,13.429181521284983,13.921107784592152,10.701802354172155,12.062311173645195,6.900000000023283
313379.6927,12.553354145284716,13.00923427613228,10.119513955496897,11.02661794275757,6.901000000012573
313379.6937,10.728582122464656,11.198889478083633,8.659885907116056,9.197875687603423,6.902000000001863
313379.6947,8.103980540678362,8.631390276871077,6.458543354416949,6.719142830711601,6.902999999991152
313379.6957,4.904489182174401,5.520533478417692,3.724614731266603,3.796276751333937,6.903999999980442
313379.6967,1.4101508205724607,2.1327751362821186,0.7205732903070077,0.6790764627891966,6.904999999969732
313379.6977,-2.0700689741557996,-1.2378519714716631,-2.2632323353922956,-2.361977327709076,6.9060000000172295
313379.6987,-5.22740396834718,-4.297662443551562,-4.936878297874181,-5.061148285374816,6.907000000006519
313379.6997,-7.7825402716812055,-6.781377672653683,-7.0392339410501386,-7.1825810915660755,6.907999999995809
313379.7007,-9.512168409135656,-8.477592280003968,-8.363623824871139,-8.542713407038402,6.908999999985099
313379.7017,-10.270258069628786,-9.249163772647487,-8.778268154196912,-9.027785922558772,6.909999999974389
313379.7027,-10.00198613145838,-9.046529178989303,-8.239492211606933,-8.604744141511958,6.911000000021886
313379.7037,-8.748957905611867,-7.9126357164981735,-6.796398321373368,-7.324463532067365,6.912000000011176
313379.7047,-6.645204202860365,-5.978985101093517,-4.586525311123164,-5.316972671844128,6.913000000000466
313379.7057,-3.904330716177041,-3.4531537265016703,-1.8228991724478265,-2.779124543582582,6.9139999999897555
313379.7067,-0.7990541600478137,-0.5989794636449598,1.2262812315128804,0.04410145076588148,6.914999999979045
313379.7077,2.3649020686858067,2.288680644173727,4.263360153573523,2.882866414957201,6.916000000026543
313379.7087,5.278033290985471,4.9121887096214705,6.989851089835496,5.468064675764271,6.9170000000158325
313379.7097,7.6565789545042735,6.999634913321836,9.135196020416739,7.55677457137995,6.918000000005122
313379.7107,9.2694998124485,8.330864301912587,10.482866078294897,8.955115184115336,6.918999999994412
313379.7117,9.960308523852847,8.758509389907728,10.891269628381337,9.536311122819283,6.919999999983702
313379.7127,9.661657856806926,8.22200157392064,10.307438619331094,9.252235473175292,6.920999999972992
313379.7137,8.401296729786758,6.753216644661853,8.77216687491325,8.137337074665687,6.922000000020489
313379.7147,6.298844909665002,4.47322258051472,6.416106074040384,6.304600181084572,6.923000000009779
313379.7157,3.55373017706059,1.5804619936402755,3.447205241155936,3.933959814782603,6.923999999999069
313379.7167,0.42548995877569357,-1.6684672657047364,0.1307216566299944,1.254328997210539,6.9249999999883585
313379.7177,-2.7916209527675537,-4.983552855517296,-3.2362470482348695,-1.4789870264337603,6.925999999977648
313379.7187,-5.797226043721516,-8.069216628359777,-6.353228698007228,-4.009269826271875,6.927000000025146
313379.7197,-8.313830720085297,-10.65256088884133,-8.945070728367034,-6.10331332105347,6.9280000000144355
313379.7207,-10.11340737434189,-12.509269657698722,-10.788075074929983,-7.573861575823319,6.929000000003725
313379.7217,-11.038980415038747,-13.484657840301754,-11.731040293996431,-8.297375254302452,6.929999999993015
313379.7227,-11.019126876960739,-13.507841036872875,-11.709178678937494,-8.225407032818742,6.930999999982305
313379.7237,-10.07400829110391,-12.597675781020556,-10.749575371108952,-7.38849785059717,6.931999999971595
313379.7247,-8.312383714291435,-10.859927826287738,-8.967685148338898,-5.892243063099391,6.933000000019092
313379.7257,-5.919940293919286,-8.475985541524599,-6.555239558501747,-3.9059480482580464,6.934000000008382
313379.7267,-3.140129516772306,-5.684262352635464,-3.7607765166279887,-1.6450210354538082,6.934999999997672
313379.7277,-0.24943087128768768,-2.7561455504710723,-0.864724280418564,0.6511344959861675,6.9359999999869615
313379.7287,2.4704918071733175,0.03112109624421071,1.8484985143706265,2.743524786639668,6.936999999976251
313379.7297,4.760975706963016,2.4219384088796576,4.1186170871422165,4.417841381431558,6.938000000023749
313379.7307,6.412092687194167,4.207522729642059,5.735101186884218,5.506195786001548,6.9390000000130385
313379.7317,7.283384951296491,5.246268227607686,6.557717684391677,5.90415421726571,6.940000000002328
313379.7327,7.3175542551902595,5.477300779175377,6.5300203592537285,5.581378560501444,6.940999999991618
313379.7337,6.545755430809288,4.925898525034709,5.684459348342558,4.584811579741325,6.941999999980908
313379.7347,5.083976956576461,3.700258943608311,4.13861886028316,3.034081145815955,6.942999999970198
313379.7357,3.1208740690792083,1.9799477367197393,2.082965773815367,1.1095673839569606,6.944000000017695
313379.7367,0.8982666205527178,-0.002813098352079069,-0.2386721339516696,-0.9656973725937573,6.945000000006985
313379.7377,-1.313758791096644,-1.987152760041329,-2.553963386892162,-2.94851447741528,6.945999999996275
313379.7387,-3.244666583995856,-3.710465394619855,-4.589804518965738,-4.600172603534317,6.9469999999855645
313379.7397,-4.6514415907564155,-4.935552161881946,-6.100181261767371,-5.710831988383519,6.947999999974854
313379.7407,-5.343922237352437,-5.475288900647503,-6.891399853356408,-6.12122261151284,6.949000000022352
313379.7417,-5.2049649906245286,-5.212358349328181,-6.842186040212611,-5.739497754697626,6.9500000000116415
313379.7427,-4.203412958645431,-4.112070359379288,-5.916652386616716,-4.551555102530668,6.951000000000931
313379.7437,-2.398547489975765,-2.226973342531853,-4.168834369554475,-2.6237748480013146,6.951999999990221
313379.7447,0.0644610851726795,0.30723139647810044,-1.738323806390775,-0.09786581266778076,6.952999999979511
313379.7457,2.9677009840477147,3.2841031626633166,1.1625967797531842,2.8217162542872547,6.954000000027008
313379.7467,6.041013670525901,6.446011366700817,4.269079062053943,5.886585049688129,6.955000000016298
313379.7477,8.987857468214234,9.50892256868314,7.289138038687828,8.827668300487419,6.956000000005588
313379.7487,11.514027605239985,12.190005548404926,9.9319062895139,11.38063665765606,6.956999999994878
313379.7497,13.356431599476334,14.235350732094469,11.93595290925432,13.311054436466925,6.9579999999841675
313379.7507,14.309104518398222,15.445081260716432,13.094895747973254,14.436811625981676,6.958999999973457
313379.7517,14.243910232508199,15.693381218548623,13.277796322410262,14.645656948544953,6.960000000020955
313379.7527,13.123886974918154,14.941457996833831,12.442333719148502,13.906125240462547,6.9610000000102445
313379.7537,11.00790837248279,13.242142506829438,10.639457413659548,12.270792825517017,6.961999999999534
313379.7547,8.046174968773988,10.735645849108165,8.00905030436464,9.871539286811538,6.962999999988824
313379.7557,4.466943579687997,7.636854346711281,4.767010992395144,6.907270311209593,6.963999999978114
313379.7567,0.5557552861062836,4.215372016261148,1.1850024516266089,3.6252881994481503,6.965000000025611
313379.7577,-3.370846069871542,0.7702295326340948,-2.435169372346766,0.29811266952957277,6.966000000014901
313379.7587,-6.994575931801176,-2.3982980714702027,-5.790059001839415,-2.8020054436917263,6.967000000004191
313379.7597,-10.02483213925118,-5.017037683399775,-8.603197659288755,-5.428413996722237,6.967999999993481
313379.7607,-12.225444099387975,-6.865682211990004,-10.651042658479797,-7.382788719296985,6.9689999999827705
313379.7617,-13.436174015420692,-7.79747565952058,-11.783741775704524,-8.533075481882486,6.96999999997206
313379.7627,-13.586908133232026,-7.752815515230167,-11.938702110031858,-8.824930192852968,6.971000000019558
313379.7637,-12.703188788576334,-6.764457789540682,-11.145657144681623,-8.285578462743116,6.972000000008848
313379.7647,-10.902581956315975,-4.953827438543604,-9.522757482423904,-7.019759016196359,6.972999999998137
313379.7657,-8.3822674545017,-2.518802944625728,-7.264088608241434,-5.198188257781134,6.973999999987427
313379.7667,-5.399092652609242,0.28582621293023525,-4.619857085649013,-3.0397127024863067,6.974999999976717
313379.7677,-2.2440620122170576,3.173317656042879,-1.8712027781632727,-0.7889298386594412,6.976000000024214
313379.7687,0.7862274206094735,5.85291224263226,0.6978811009900007,1.3085035709982127,6.977000000013504
313379.7697,3.418402835721864,8.058022921376754,2.8287573785714875,3.030436478720182,6.978000000002794
313379.7707,5.428565986278709,9.571929508503764,4.313710861480429,4.200241824145703,6.978999999992084
313379.7717,6.663417177707255,10.248479470945702,5.016359535115072,4.704124763319921,6.9799999999813735
313379.7727,7.054202522635437,10.02578586720223,4.884907451199643,4.5020262540763865,6.980999999970663
313379.7737,6.6221439433568206,8.931600795963677,3.956939859698608,3.631062039469405,6.982000000018161
313379.7747,5.474852029625117,7.079858803415548,2.3552927009035147,2.201175261635419,6.983000000007451
313379.7757,3.7941107645245675,4.658749869651442,0.2754061256563877,0.38345018897909916,6.98399999999674
313379.7767,1.8162731281612188,1.9115112003005013,-2.0345907080652337,-1.6077406598086539,6.98499999998603
313379.7777,-0.1927656880784358,-0.8881600654726016,-4.299100767855477,-3.536974495242568,6.98599999997532
313379.7787,-1.9655166579510717,-3.463644700784826,-6.243100033347129,-5.172186002598256,6.987000000022817
313379.7797,-3.2609780906077246,-5.563172823165912,-7.620232079548646,-6.308813656279817,6.988000000012107
313379.7807,-3.8900471744011065,-6.9850897339087155,-8.238181433156347,-6.791276759874114,6.989000000001397
313379.7817,-3.7357216544118748,-7.598123211899801,-7.978813925705212,-6.529635731036653,6.989999999990687
313379.7827,-2.7660637950769256,-7.3546499322560095,-6.811081815728504,-5.5097600887351454,6.990999999979977
313379.7837,-1.038611263649456,-6.295645750886092,-4.795397673563414,-3.795965943515822,6.992000000027474
313379.7847,1.3042375991904336,-4.546820939071004,-2.079014934602366,-1.5258251433062433,6.993000000016764
313379.7857,4.048446039491621,-2.306307225274786,1.1171668681185956,1.1023809319013467,6.994000000006054
313379.7867,6.928899503364021,0.17490600476310117,4.519113932793422,3.848364155012183,6.994999999995343
313379.7877,9.655307362974535,2.617875083378353,7.825510620347408,6.452880722889514,6.995999999984633
313379.7887,11.940915031512645,4.7435063499517325,10.736450177502412,8.662888821614942,6.996999999973923
313379.7897,13.531209413450727,6.300533555953269,12.982179464902798,10.25635659768012,6.99800000002142
313379.7907,14.229789900031898,7.090918183989538,14.34910302050814,11.064289654951429,6.99900000001071
313379.7917,13.91884348018776,6.990169211670724,14.700514179595679,10.987810738120649,7.0
313379.7927,12.57218038731333,5.960570812959319,13.990030661478423,10.008600187421665,7.00099999998929
313379.7937,10.2595058050463,4.055995781231845,12.266419364701688,8.191647903074692,7.00199999997858
313379.7947,7.141453532995177,1.4178018616079435,9.669331101615626,5.680013394498831,7.003000000026077
313379.7957,3.455806275213434,-1.737822276942486,6.416349074031556,2.6820672766017735,7.004000000015367
313379.7967,-0.5038133491398703,-5.13985992737138,2.7825988522943503,-0.5475804971214411,7.005000000004657
313379.7977,-4.414760816987784,-8.487898133060817,-0.9251099095723503,-3.7316447852194274,7.005999999993946
313379.7987,-7.955135592128981,-11.480536500908809,-4.397109322545858,-6.595961817247688,7.006999999983236
313379.7997,-10.833641118956898,-13.844027775411337,-7.349879260965751,-8.895038535218807,7.007999999972526
313379.8007,-12.816669546091306,-15.358378782405676,-9.552431066285722,-10.434896433568166,7.009000000020023
313379.8017,-13.750005017850453,-15.878384107042518,-10.847524549475231,-11.091011982084487,7.010000000009313
313379.8027,-13.5730559609042,-15.347554787724278,-11.165679698201268,-10.81962982296929,7.010999999998603
313379.8037,-12.32424661147644,-13.803592636598221,-10.530648593347015,-9.661366635619684,7.011999999987893
313379.8047,-10.137051095770389,-11.374880429077391,-9.055846579333835,-7.7367703678407445,7.012999999977183
313379.8057,-7.227056711497334,-8.268329229712764,-6.932123248492794,-5.234278695579553,7.01400000002468
313379.8067,-3.871308774251161,-4.749761633931077,-4.408097168300506,-2.391756198031138,7.01500000001397
313379.8077,-0.38193327043717984,-1.1187320950943866,-1.7650011386583024,0.526589821963794,7.01600000000326
313379.8087,2.9234167349745266,2.3197775717060254,0.7114834389816319,3.2556700785052,7.016999999992549
313379.8097,5.751442844510952,5.284050179465319,2.7596356167067526,5.554879783085763,7.017999999981839
313379.8107,7.860537800150203,7.541942760317263,4.1675620222965595,7.230914746905925,7.018999999971129
313379.8117,9.082956967384783,8.932280922306497,4.793991347253062,8.15583481455759,7.0200000000186265
313379.8127,9.339712914572015,9.379288431509169,4.58196759820844,8.278640342396107,7.021000000007916
313379.8137,8.64679331565358,8.898684602042715,3.564113736216514,7.629263764554842,7.021999999997206
313379.8147,7.112149260268406,7.594896232761251,1.8589669905827346,6.314620675782181,7.022999999986496
313379.8157,4.923799892977376,5.649697380740581,-0.34123511309812327,4.507140705225915,7.023999999975786
313379.8167,2.330262389537295,3.3034245203074573,-2.7900991545877405,2.426931933517362,7.025000000023283
313379.8177,-0.38474054853310413,0.83063515069974,-5.212012197537379,0.3193520809145529,7.026000000012573
313379.8187,-2.930792605651558,-1.4873855653000232,-7.330002793562914,-1.5697952738048806,7.027000000001863
313379.8197,-5.039706984490259,-3.390565210926328,-8.893772830806462,-3.0189939320094887,7.027999999991152
313379.8207,-6.4920226734862725,-4.665691523607159,-9.705130479867929,-3.8532447873876343,7.028999999980442
313379.8217,-7.138483564127977,-5.167259883788231,-9.638310469553737,-3.9616098555917056,7.029999999969732
313379.8227,-6.9144109628428145,-4.831492153575396,-8.6531706808886,-3.3083527922576383,7.0310000000172295
313379.8237,-5.845584508601126,-3.6821742090672154,-6.799954232344405,-1.9365902116582898,7.032000000006519
313379.8247,-4.04508534109798,-1.8277669767339833,-4.2151351551464,0.03589401222867299,7.032999999995809
313379.8257,-1.7014462126820313,0.5498946581186961,-1.1087421301430194,2.4282480865165748,7.033999999985099
313379.8267,0.9406912719532099,3.2141733876421443,2.2556073610538414,5.0144130176016555,7.034999999974389
313379.8277,3.605475810378565,5.89761581391831,5.586012892609115,7.545477308561236,7.036000000021886
313379.8287,6.0138204807198825,8.32896725361033,8.590461155315342,9.774317133159318,7.037000000011176
313379.8297,7.911669898544745,10.260533234264788,11.005100827678035,11.480089605699996,7.038000000000466
313379.8307,9.095752167898379,11.493174502167989,12.619849774273503,12.490162003296607,7.0389999999897555
313379.8317,9.434257290868441,11.896457948377039,13.298820869679288,12.697312587235375,7.039999999979045
313379.8327,8.880385391915707,11.421965172890044,12.993558129630161,12.07050415113525,7.041000000026543
313379.8337,7.477412222941706,10.108436283053564,11.74777738252053,10.658163870605161,7.0420000000158325
313379.8347,5.3547567724019745,8.078232519883842,9.69313667138786,8.583640336076765,7.043000000005122
313379.8357,2.7154241701679314,5.525458221926071,7.036439579211613,6.03327841997946,7.043999999994412
313379.8367,-0.18395078404095394,2.6969062727365847,4.039513728282801,3.238279273158339,7.044999999983702
313379.8377,-3.0585019361908135,-0.13229940038247118,0.9937246185120893,0.4521248996991097,7.045999999972992
313379.8387,-5.623474082358834,-2.6859652370484683,-1.8083886154491047,-2.074215712838965,7.047000000020489
313379.8397,-7.622716114428614,-4.714304496478673,-4.101585650770527,-4.1168620380734335,7.048000000009779
313379.8407,-8.854510730784362,-6.01891428122504,-5.6737233916747485,-5.500961562221615,7.048999999999069
313379.8417,-9.192181732083082,-6.472779943592783,-6.386358000346401,-6.117832852969662,7.0499999999883585
313379.8427,-8.597426806549489,-6.033318332856698,-6.188134958295426,-5.9356207951019275,7.050999999977648
313379.8437,-7.125032676245355,-4.747151947514809,-5.119655700053106,-5.002408284254066,7.052000000025146
313379.8447,-4.918471198079783,-2.7461159793790366,-3.3093419961291346,-3.4414684242037823,7.0530000000144355
313379.8457,-2.19676712993647,-0.23486012208899687,-0.960698968494251,-1.439112618063683,7.054000000003725
313379.8467,0.7661165462197352,2.5287674223451093,1.6677816508103425,0.7736827632810217,7.054999999993015
313379.8477,3.6673953513285893,5.25865603195846,4.28811689977966,2.9440765615120896,7.055999999982305
313379.8487,6.20455983161763,7.668265857490317,6.611237580519551,4.822358861107676,7.056999999971595
313379.8497,8.104633522987962,9.49864644205429,8.375529169465187,6.186693798149672,7.058000000019092
313379.8507,9.150752752611112,10.543905451908422,9.372721336778792,6.865181858881116,7.059000000008382
313379.8517,9.203484463668222,10.671636111295177,9.468597528034644,6.753074021459754,7.059999999997672
313379.8527,8.214806171720225,9.836299688160594,8.616501845070069,5.8234422926755975,7.0609999999869615
313379.8537,6.233382640229903,8.084243388014507,6.862323758306003,4.13024980663463,7.061999999976251
313379.8547,3.4006175145976267,5.5498474643017275,4.3404731623801585,1.8035062258912458,7.063000000023749
313379.8557,-0.062147415895184584,2.4431587452174743,1.2612375501670405,-0.9630319445041212,7.0640000000130385
313379.8567,-3.874054784976166,-0.9698032883809705,-2.1092463727074398,-3.93042710011818,7.065000000002328
313379.8577,-7.72080790509828,-4.392168288722822,-5.474454656704695,-6.837589749563983,7.065999999991618
313379.8587,-11.283887164054454,-7.524336860085106,-8.535891231151691,-9.426530990106864,7.066999999980908
313379.8597,-14.27009286346377,-10.092383129622927,-11.021690057448543,-11.46737922075069,7.067999999970198
313379.8607,-16.43857494651872,-11.87399254143358,-12.712623022524339,-12.780723488537824,7.069000000017695
313379.8617,-17.622760694229896,-12.719430757182494,-13.462988913543645,-13.255105453221327,7.070000000006985
313379.8627,-17.7450937295384,-12.565524889676773,-13.214361905850883,-12.857954330703505,7.070999999996275
313379.8637,-16.823202112175824,-11.441319992430849,-12.000878095999662,-11.638898134435923,7.0719999999855645
313379.8647,-14.966950764857643,-9.464885020272067,-9.94556701247561,-9.725127581195006,7.072999999974854
313379.8657,-12.366721840960532,-6.831603968325788,-7.24811051266715,-7.3092634961196215,7.074000000022352
313379.8667,-9.274118941949155,-3.795115335228349,-4.165248244606131,-4.630908717343809,7.0750000000116415
313379.8677,-5.9770239793751765,-0.6427755780723803,-0.9857649850166781,-1.9536799940816334,7.076000000000931
313379.8687,-2.7714774159057494,2.331949725722843,1.9974793933338453,0.4600458350011072,7.076999999990221
313379.8697,0.0668491179228169,4.857471166298098,4.515733139399045,2.3742168182641246,7.077999999979511
313379.8707,2.308793021519338,6.709713490872381,6.349990973704457,3.6015871064940135,7.079000000027008
313379.8717,3.7929075732613087,7.7329212644219885,7.351586316061004,4.021416984641859,7.080000000016298
313379.8727,4.4396874433226365,7.853628781033613,7.455738147681543,3.5906842668617838,7.081000000005588
313379.8737,4.25746318261671,7.086467783949243,6.686750981126684,2.34773588402123,7.081999999994878
313379.8747,3.3394444057461343,5.53129224923626,5.154391139843278,0.40804865684637465,7.0829999999841675
313379.8757,1.8522700545461934,3.3619546690550544,3.041833150286347,-2.0474602818789323,7.083999999973457
313379.8767,0.017265437630106014,0.8078888931314224,0.5864009069445201,-4.790405779021703,7.085000000020955
313379.8777,-1.9136732002706796,-1.8696399519918476,-1.94496230609695,-7.56741036898014,7.0860000000102445
313379.8787,-3.6851160303685595,-4.40423690089572,-4.283042608247006,-10.124867798733682,7.086999999999534
313379.8797,-5.0653219901499895,-6.551362857263207,-6.183794685759272,-12.233560439103437,7.087999999988824
313379.8807,-5.870894431199945,-8.112915431803218,-7.453136051558461,-13.710717487358735,7.088999999978114
313379.8817,-5.986376607471818,-8.956959227361978,-7.9666242792510635,-14.437358585572529,7.090000000025611
313379.8827,-5.376799342708877,-9.030644791875154,-7.682052383292971,-14.369236545630397,7.091000000014901
313379.8837,-4.091896698684459,-8.365034001358882,-6.64369911502028,-13.540327012725148,7.092000000004191
313379.8847,-2.261537270226192,-7.07135495511344,-4.977797890256105,-12.058549653298686,7.092999999993481
313379.8857,-0.08279680211930662,-5.329062214802752,-2.8796590473765793,-10.094172307148765,7.0939999999827705
313379.8867,2.20006453126888,-3.3668943499601514,-0.5937094606086327,-7.862071052498916,7.09499999997206
313379.8877,4.320742422522717,-1.4388197715499365,1.6115804710406818,-5.599624331026148,7.096000000019558
313379.8887,6.018648121864652,0.2027252867230832,3.4713994105367223,-3.542448648579159,7.097000000008848
313379.8897,7.066514696428137,1.3336268195704868,4.752174897386807,-1.9003946823376436,7.097999999998137
313379.8907,7.295075838710527,1.782219795653173,5.276279364416699,-0.8361951064631952,7.098999999987427
313379.8917,6.612316279039214,1.4483147318826888,4.941383639103169,-0.44889180551636415,7.099999999976717
313379.8927,5.0153140479638845,0.3151830944194176,3.7324962806949236,-0.7636963164797047,7.101000000024214
313379.8937,2.5934135529629856,-1.5467505770125927,1.7254386648951499,-1.7292999507595819,7.102000000013504
313379.8947,-0.4776854152073748,-3.9849473772843,-0.918657630836685,-3.2229118322144794,7.103000000002794
313379.8957,-3.950446795757048,-6.77810075585629,-3.9673646363605406,-5.062536731507178,7.103999999992084
313379.8967,-7.527301319431658,-9.656546655706244,-7.13817935514882,-7.025285576149044,7.1049999999813735
313379.8977,-10.887687035788376,-12.327790077896376,-10.124936797119274,-8.869910755159928,7.105999999970663
313379.8987,-13.717755538064157,-14.504687228934392,-12.626881360816878,-10.361335124075458,7.107000000018161
313379.8997,-15.739895811667383,-15.93354790826192,-14.377591628466309,-11.29473984383906,7.108000000007451
313379.9007,-16.7392279845844,-16.419415068974754,-15.170954833514097,-11.516812211247949,7.10899999999674
313379.9017,-16.58449693455632,-15.8460388838303,-14.88166164826537,-10.94202726472714,7.10999999998603
313379.9027,-15.241324269889734,-14.188566287318054,-13.478213209177813,-9.562319733376023,7.11099999997532
313379.9037,-12.776505664988612,-11.517665142821459,-11.027150008104416,-7.449148727511081,7.112000000022817
313379.9047,-9.352898333705168,-7.994627128975908,-7.688056771443627,-4.747703274273818,7.113000000012107
313379.9057,-5.215347297527601,-3.8578649164357244,-3.6997866446442584,-1.6637693362508494,7.114000000001397
313379.9067,-0.6689612075822464,0.5979476508829443,0.6408045993958129,1.5554974533201216,7.114999999990687
313379.9077,3.9482150391136503,5.04813005880953,5.005600473085152,4.64504551554324,7.115999999979977
313379.9087,8.295544455119511,9.16715757036573,9.064899475711048,7.3473755053637175,7.117000000027474
313379.9097,12.060283037195937,12.657960846601641,12.517199878346476,9.437488071959239,7.118000000016764
313379.9107,14.985318442622109,15.278576156722922,15.116260088621342,10.744895066716802,7.119000000006054
313379.9117,16.891542552043532,16.863613682143257,16.69286667996643,11.17053508554973,7.119999999995343
313379.9127,17.692758807757766,17.338510778928153,17.16925621231534,10.69692288264704,7.120999999984633
313379.9137,17.4017481186521,16.72523314440088,16.56484932353102,9.390515086452693,7.121999999973923
313379.9147,16.126971930678167,15.13891190346668,14.99279677311087,7.396028277193788,7.12300000002142
313379.9157,14.060294566196198,12.775778386075563,12.647725183159961,4.923226416902695,7.12400000001071
313379.9167,11.456971238804764,9.893595782769982,9.7859186409483,2.227426678458066,7.125
313379.9177,8.60988924866566,6.786506498144194,6.699898535065089,-0.4144155763707486,7.12599999998929
313379.9187,5.820595847337998,3.756745970209019,3.6898974307604115,-2.7297503467845114,7.12699999997858
313379.9197,3.3699443288293125,1.0859664492165892,1.0350117817793858,-4.4761035327950776,7.128000000026077
313379.9207,1.4912115011311229,-0.991060417976501,-1.033164909950958,-5.463906612577045,7.129000000015367
313379.9217,0.34828328014306126,-2.3078374035591787,-2.3518833508048185,-5.574291033678478,7.130000000004657
313379.9227,0.020996322963114235,-2.7805963121902697,-2.841513159736825,-4.770139516993857,7.130999999993946
313379.9237,0.49901258582249985,-2.4144639595269877,-2.5114121337612607,-3.0993389405865224,7.131999999983236
313379.9247,1.684760337475461,-1.3008058950883672,-1.4568821165971104,-0.6899342641514735,7.132999999972526
313379.9257,3.405082196503998,0.3939202082562555,0.15241829476902946,2.262333413559598,7.134000000020023
313379.9267,5.430375642650121,2.4466389717245014,2.091394618670838,5.512885383407533,7.135000000009313
