TimeStamp,ECR,FCR,ECU,FCU,time_index
313443.7917,4.565871084399804,10.513895137234085,6.107183578753582,13.383426620770967,71.0
313443.7927,7.2415558637854724,12.300800634372514,8.540101344255778,14.354960763499086,71.00099999998929
313443.7937,9.450940936430097,13.584671161291313,10.486776977376715,14.848487213174602,71.00199999997858
313443.7947,10.970961122095948,14.166022719596656,11.739698239832364,14.712577650942247,71.00300000002608
313443.7957,11.644598040154428,13.911495306121418,12.158123369968333,13.856092472423995,71.00400000001537
313443.7967,11.395870263294954,12.768187941785635,11.682280281642722,12.25944452285601,71.00500000000466
313443.7977,10.236684751631632,10.769965094752113,10.339450934860832,9.978563257993876,71.00599999999395
313443.7987,8.264906589115407,8.035107001695417,8.241347964156237,7.141134686870688,71.00699999998324
313443.7997,5.6538803408208596,4.755532385013891,5.573056355701831,3.935464279751262,71.00799999997253
313443.8007,2.634487519334424,1.1786548883306194,2.574650703047785,0.5930474210706194,71.00900000002002
313443.8017,-0.5284335612908934,-2.4163376798243825,-0.4826743565646851,-2.6334378606522346,71.01000000000931
313443.8027,-3.562920221003949,-5.74544100920918,-3.3235782618494984,-5.494540460549079,71.0109999999986
313443.8037,-6.217263772350113,-8.547368080172962,-5.6959624218070575,-7.768426909747778,71.01199999998789
313443.8047,-8.285176099664248,-10.608939956428637,-7.396039171648094,-9.282825651954811,71.01299999997718
313443.8057,-9.626210163790795,-11.785823915609857,-8.28857789334372,-9.93233095587086,71.01400000002468
313443.8067,-10.179376162097485,-12.016565902415852,-8.320301443536138,-9.689323419991211,71.01500000001397
313443.8077,-9.96857660620764,-11.32852320877395,-7.525084300347117,-8.607387921674256,71.01600000000326
313443.8087,-9.099303166003445,-9.835099709590633,-6.020416493893383,-6.816845514522812,71.01699999999255
313443.8097,-7.746914610328522,-7.724541646748074,-3.9954642980699173,-4.512790916998985,71.01799999998184
313443.8107,-6.137661683652434,-5.2413827787234455,-1.6918943031675786,-1.9367656673084865,71.01899999997113
313443.8117,-4.524357272611639,-2.662352054413815,0.6206506669995527,0.6461738949467475,71.02000000001863
313443.8127,-3.159135848284869,-0.26910362772840885,2.671998690465231,2.9727768788535007,71.02100000000792
313443.8137,-2.266050360810368,1.679555766833805,4.219095654166011,4.806848099591743,71.0219999999972
313443.8147,-2.0162866861630597,2.973214375474973,5.071098789421034,5.96196932306698,71.0229999999865
313443.8157,-2.5085313607983624,3.470665375285628,5.109405637727002,6.3194725907820395,71.02399999997579
313443.8167,-3.756530917439849,3.1139286920731,4.30059775902414,5.83990453942105,71.02500000002328
313443.8177,-5.685178895846404,1.9340978733681278,2.7009698443678856,4.566851597742496,71.02600000001257
313443.8187,-8.135628100767063,0.04842560381705588,0.45213953306813937,2.6227384901854705,71.02700000000186
313443.8197,-10.87903308121545,-2.3510798833424604,-2.231889607196755,0.19699405125760372,71.02799999999115
313443.8207,-13.637668836783806,-5.016442482843899,-5.084995871875619,-2.4722774740712543,71.02899999998044
313443.8217,-16.11143109521119,-7.668059775854569,-7.814594795679465,-5.121347527498796,71.02999999996973
313443.8227,-18.007174456362716,-10.022221803285056,-10.130199943524763,-7.486402990598914,71.03100000001723
313443.8237,-19.068041976517197,-11.819116324847888,-11.772109431717634,-9.329096805261216,71.03200000000652
313443.8247,-19.09991409444982,-12.84857908869102,-12.537412201469502,-10.459629200685455,71.03299999999581
313443.8257,-17.992359846296235,-12.971065335694929,-12.300756227374187,-10.755118748468595,71.0339999999851
313443.8267,-15.731985286945852,-12.131783739984519,-11.027819822455262,-10.171480619017563,71.03499999997439
313443.8277,-12.406793957114035,-10.36660084634687,-8.780128780573305,-8.747661559277502,71.03600000002189
313443.8287,-8.20103269759987,-7.799127620335539,-5.710698169394464,-6.601825556049837,71.03700000001118
313443.8297,-3.3809100210118297,-4.629261381217504,-2.0508668007863093,-3.9198682028710765,71.03800000000047
313443.8307,1.7275450790372746,-1.1142918261362735,1.9104518930731074,-0.9373848807445538,71.03899999998976
313443.8317,6.766454200091956,2.4555927046939634,5.853140149019743,2.083144971426269,71.03999999997905
313443.8327,11.377292088668451,5.78501436535602,9.455355361354261,4.877730206047309,71.04100000002654
313443.8337,15.232402219016127,8.601630733294686,12.423300206288149,7.206322177482995,71.04200000001583
313443.8347,18.063866972215994,10.682124548034821,14.518431310964464,8.875870264030755,71.04300000000512
313443.8357,19.687018443161687,11.873424898488901,15.57949743817098,9.758734534673032,71.04399999999441
313443.8367,20.01638143323663,12.107091889215663,15.5372943706201,9.804666775816912,71.0449999999837
313443.8377,19.072558120325482,11.40546449616659,14.42072491537026,9.045200887371625,71.04599999997299
313443.8387,16.979424929511527,9.878975997702646,12.35359058767023,7.590036233951819,71.04700000002049
313443.8397,13.951933066184502,7.714904321796048,9.542435101510028,5.615780254255322,71.04800000000978
313443.8407,10.275696037125094,5.158661455817058,6.256621918404879,3.348162947630338,71.04899999999907
313443.8417,6.280324162381139,2.4894548456617973,2.8025749916115155,1.039472820660168,71.04999999998836
313443.8427,2.309052705261908,-0.00729683644570942,-0.5053290490725507,-1.0565707325617362,71.05099999997765
313443.8437,-1.3124495242747727,-2.0680947985212654,-3.374411903762233,-2.7100452296886575,71.05200000002515
313443.8447,-4.305142761801219,-3.4772869800159047,-5.561037886119555,-3.737682408483624,71.05300000001444
313443.8457,-6.460824266083139,-4.0882562369625735,-6.8930336046102685,-4.021118764395192,71.05400000000373
313443.8467,-7.659240046304077,-3.8378000117000246,-7.285050816344727,-3.5187559984304326,71.05499999999302
313443.8477,-7.876556811466494,-2.7522985401539106,-6.7454318380477165,-2.270075109142709,71.0559999999823
313443.8487,-7.184494247250838,-0.9450725985694632,-5.37396676458089,-0.3919875176935491,71.0569999999716
313443.8497,-5.740324476229838,1.3948059068184624,-3.350818759526758,1.9324136008307389,71.05800000001909
313443.8507,-3.7688270761363887,4.02115093940813,-0.9177512574143801,4.471595052051764,71.05900000000838
313443.8517,-1.538058647348993,6.654918953481164,1.6464645521865238,6.968077138201783,71.05999999999767
313443.8527,0.6686190043862569,9.011707890935492,4.054024560571353,9.163474167001315,71.06099999998696
313443.8537,2.581464812200935,10.829804864813047,6.0366922115551835,10.82362998616837,71.06199999997625
313443.8547,3.971382524042509,11.896036150443143,7.372219111824461,11.761389781473492,71.06300000002375
313443.8557,4.672398288192125,12.066889259255644,7.906006179970733,11.85478346431211,71.06400000001304
313443.8567,4.597416841131331,11.282840640717465,7.565903687933778,11.058847841069552,71.06500000000233
313443.8577,3.7457624259359648,9.574488473422296,6.368731253186027,9.40993996400083,71.06599999999162
313443.8587,2.201835294838627,7.059892806317541,4.417918986632402,7.022131203048498,71.06699999998091
313443.8597,0.1251014832620488,3.933386335976527,1.8925478854869198,4.076048293371458,71.0679999999702
313443.8607,-2.267505028617067,0.4469540021310268,-0.9710849996906481,0.8012676971536031,71.0690000000177
313443.8617,-4.724937475193204,-3.1139934331267933,-3.903516306125653,-2.5459995129312936,71.07000000000698
313443.8627,-6.988751426547243,-6.458078789862336,-6.629370627053317,-5.707735228598622,71.07099999999627
313443.8637,-8.820455169358754,-9.315962719543036,-8.895097463583276,-8.449013597542455,71.07199999998556
313443.8647,-10.026714956007737,-11.466153144772106,-10.494426556156377,-10.580527473012355,71.07299999997485
313443.8657,-10.479855813657178,-12.756097305671563,-11.289007784897661,-11.976533809761378,71.07400000002235
313443.8667,-10.131574285466762,-13.116498153468822,-11.222182400345542,-12.586462989714171,71.07500000001164
313443.8677,-9.018462475370747,-12.567462840805787,-10.324515546833274,-12.439062501228719,71.07600000000093
313443.8687,-7.258765364321943,-11.215893406952807,-8.710538506303138,-11.63868157080719,71.07699999999022
313443.8697,-5.040674059516268,-9.24438972376574,-6.5670221562094095,-10.354077870782234,71.07799999997951
313443.8707,-2.6033091695437713,-6.892767969448171,-4.133944754032185,-8.800864144509267,71.07900000002701
313443.8717,-0.21228643601794245,-4.43402255071993,-1.6800443488717787,-7.219339047833891,71.0800000000163
313443.8727,1.8676921943631704,-2.147104341045893,0.5246128937469094,-5.849901064268515,71.08100000000559
313443.8737,3.4004696280872646,-0.2891997899815494,2.236315889341802,-4.908482247309497,71.08199999999488
313443.8747,4.203498076942672,0.9297567972217602,3.2628791897934035,-4.564436292948695,71.08299999998417
313443.8757,4.1677890385373395,1.3678264966702673,3.4837782844691203,-4.923073167852672,71.08399999997346
313443.8767,3.270695882697267,0.9650213212448712,2.863218348693563,-6.014573944104392,71.08500000002095
313443.8777,1.5801769133054058,-0.2509017537252181,1.454798227810042,-7.790389650876704,71.08600000001024
313443.8787,-0.7499752190929376,-2.1673772595765763,-0.6027415961536979,-10.127488773335488,71.08699999999953
313443.8797,-3.4935589882350278,-4.598405825772086,-3.098318646806188,-12.840042259268902,71.08799999998882
313443.8807,-6.3728057500714375,-7.3032414281164,-5.7686414138430315,-15.69739896261318,71.08899999997811
313443.8817,-9.084657332278333,-10.010542980136458,-8.323732541802649,-18.446580948982923,71.09000000002561
313443.8827,-11.329948629414078,-12.445600590114715,-10.475359379892751,-20.837078609242695,71.0910000000149
313443.8837,-12.842660356452791,-14.357940387560381,-11.965591756932783,-22.645494599327506,71.09200000000419
313443.8847,-13.416380210528086,-15.546570757047986,-12.592681840081255,-23.697596294920054,71.09299999999348
313443.8857,-12.92536450897693,-15.880361444544894,-12.231711259513212,-23.885587988579072,71.09399999998277
313443.8867,-11.33810294058458,-15.311523141629754,-10.84795237192824,-23.17888200137334,71.09499999997206
313443.8877,-8.72200714725098,-13.880832261830045,-8.50159492166134,-21.62728641715366,71.09600000001956
313443.8887,-5.238699730584593,-11.714057345618006,-5.343327803462631,-19.35627360061353,71.09700000000885
313443.8897,-1.130290574217244,-9.009910207162365,-1.601156248577072,-16.554774650919136,71.09799999999814
313443.8907,3.3020967903269742,-6.020681423229377,2.4403095725253072,-13.45668360337064,71.09899999998743
313443.8917,7.725530334478583,-3.0274437998507775,6.466121619147891,-10.317878732012618,71.09999999997672
313443.8927,11.805626221419029,-0.3122477406477621,10.160297917971223,-7.3910151818872185,71.10100000002421
313443.8937,15.237164845316022,1.8699643315643453,13.235343342896911,-4.900569136495776,71.1020000000135
313443.8947,17.772041999605698,3.3169612647011677,15.459140392579544,-3.0205962421453756,71.1030000000028
313443.8957,19.241882586480003,3.8998158912048395,16.67661361107479,-1.8574074068105235,71.10399999999208
313443.8967,19.573155364609875,3.5764421542033,16.824074868026504,-1.4388884891931537,71.10499999998137
313443.8977,18.79334820398084,2.396716167141406,15.934864374427054,-1.7115432393742471,71.10599999997066
313443.8987,17.02762410773712,0.4986396881978175,14.135745094426097,-2.5455843624221295,71.10700000001816
313443.8997,14.486295152212234,-1.904122155345141,11.634403938974954,-3.747609541233855,71.10800000000745
313443.9007,11.44433530435425,-4.542154703704477,8.699274434320364,-5.079654807696799,71.10899999999674
313443.9017,8.214917869587975,-7.115756004523637,5.633638462783868,-6.2827897109394595,71.10999999998603
313443.9027,5.1195348176883195,-9.323500023845517,2.7465167790181257,-7.102968863169354,71.11099999997532
313443.9037,2.4575780378355927,-10.891147068952622,0.3231655799642525,-7.316626834312993,71.11200000002282
313443.9047,0.4783055822306676,-11.598109279101813,-1.4019703742480645,-6.753520504480608,71.11300000001211
313443.9057,-0.6421246325084309,-11.298912409167814,-2.2672417474388267,-5.314583461221374,71.1140000000014
313443.9067,-0.8163715435222231,-9.937577524098682,-2.1986068514565305,-2.9830356846079265,71.11499999999069
313443.9077,-0.0529069298460085,-7.553530604460815,-1.2158652505502867,0.17235786033651418,71.11599999997998
313443.9087,1.5463284748081407,-4.278467706536086,0.5702562433160507,4.00222722536369,71.11700000002747
313443.9097,3.797318100691672,-0.3244783310866664,2.969842341449815,8.289290005709942,71.11800000001676
313443.9107,6.453242433418255,4.03542521633838,5.733171252325715,12.767599267508702,71.11900000000605
313443.9117,9.229699985140932,8.492491725148462,8.575816443110567,17.146514290914002,71.11999999999534
313443.9127,11.833373100882206,12.730697975197273,11.206992052315565,21.13710350759063,71.12099999998463
313443.9137,13.991309865344729,16.455755641601787,13.358355945024924,24.478452956922467,71.12199999997392
313443.9147,15.477945216683171,19.421869504933728,14.810447321397241,26.961362458651337,71.12300000002142
313443.9157,16.13721767845248,21.45368369670906,15.414174757662503,28.44716460083953,71.12400000001071
313443.9167,15.897629509070507,22.461326993129795,15.105261851060312,28.87987391668971,71.125
313443.9177,14.778798959640115,22.447144746467515,13.910252884534232,28.290519269707747,71.12599999998929
313443.9187,12.888894720088478,21.50351766560892,11.943511851727159,26.79326862212314,71.12699999997858
313443.9197,10.41324185675937,19.802036866681302,9.395533305492638,24.573748436746136,71.12800000002608
313443.9207,7.595257380286014,17.575145510076567,6.513736099686854,21.87071281748147,71.12900000001537
313443.9217,4.711626890087371,15.092087873145179,3.5776477262745376,18.95285696031395,71.13000000000466
313443.9227,2.0441977938107927,12.631555695455422,0.8709355707152163,16.093033500796935,71.13099999999395
313443.9237,-0.14861570705553698,10.45373570522353,-1.346951554279593,13.542373992173848,71.13199999998324
313443.9247,-1.6580764371421577,8.774511034906496,-2.8667326587301294,11.50681763561339,71.13299999997253
313443.9257,-2.3464127241009356,7.7443483680627025,-3.550274821526943,10.128305900868593,71.13400000002002
313443.9267,-2.16103882460146,7.433934108702932,-3.3445348818064304,9.472438939599115,71.13500000000931
313443.9277,-1.140293725791018,7.827952814015609,-2.2870861255686066,9.523753176259714,71.1359999999986
313443.9287,0.5898772422385373,8.827595440429794,-0.5026814143249564,10.189031532794745,71.13699999998789
313443.9297,2.8279790808999388,10.261522702125117,1.8088143460638986,11.308271570077759,71.13799999997718
313443.9307,5.316580194321358,11.90417459265978,4.391940947230868,12.672189223625574,71.13900000002468
313443.9317,7.767553291837398,13.49959264607765,6.960694933484289,14.04449972989528,71.14000000001397
313443.9327,9.890458610623172,14.788377797864852,9.226658531373207,15.186754761292853,71.14100000000326
313443.9337,11.421271532143463,15.535097004423333,10.927443755834883,15.883270668650225,71.14199999999255
313443.9347,12.148619588820198,15.553406413318555,11.852657742482917,15.963680621864988,71.14299999998184
313443.9357,11.934935903388682,14.726382267504619,11.86483727015182,15.320883204707831,71.14399999997113
313443.9367,10.73043365373192,13.020020966980619,10.913292808940684,13.922617859294201,71.14500000001863
313443.9377,8.57851048990847,10.488540707129735,9.039496996696927,11.815528371594276,71.14600000000792
313443.9387,5.612033890049474,7.27092309592138,6.3734811288235145,9.121317332275906,71.1469999999972
313443.9397,2.040855594586097,3.5789951163158977,3.1215848073769608,6.025374374592188,71.1479999999865
313443.9407,-1.868232608174118,-0.321814763738156,-0.4532480930120991,2.7590024818954495,71.14899999997579
313443.9417,-5.817143309136815,-4.137189361840317,-4.056702675779139,-0.4230029154134003,71.15000000002328
313443.9427,-9.505224944918965,-7.571705520363844,-7.391388144357427,-3.2672097269483453,71.15100000001257
313443.9437,-12.65825856375339,-10.356980428511534,-10.185426274414516,-5.546387544113471,71.15200000000186
313443.9447,-15.054866404723379,-12.277432426828913,-12.218534837365558,-7.081877240643946,71.15299999999115
313443.9457,-16.547727408286004,-13.191133618713614,-13.34305201038776,-7.761282401349194,71.15399999998044
313443.9467,-17.0774997688641,-13.043705210007856,-13.497842690895245,-7.549732036858101,71.15499999996973
313443.9477,-16.678062892901764,-11.873881095408647,-12.713724556852465,-6.493594882288838,71.15600000001723
313443.9487,-15.472541131175596,-9.810174949836071,-11.109882464610266,-4.7162664598360395,71.15700000000652
313443.9497,-13.660476315604232,-7.058951857060795,-8.881623010645015,-2.406428331125735,71.15799999999581
313443.9507,-11.497386885489934,-3.8850427003655725,-6.280670294457626,0.20008174950766666,71.1589999999851
313443.9517,-9.268702872205457,-0.5867663033649639,-3.5899359026506086,2.843022238492754,71.15999999997439
313443.9527,-7.260624419158505,2.532230426187258,-1.0952391362376472,5.262901406483858,71.16100000002189
313443.9537,-5.730761833513718,5.191593666568851,0.9432457476692956,7.226073590259549,71.16200000001118
313443.9547,-4.881446582459054,7.1605792680716585,2.317009582823346,8.54732324207183,71.16300000000047
313443.9557,-4.838351581529698,8.279523305966036,2.890135795732565,9.10772619157268,71.16399999998976
313443.9567,-5.636549612079657,8.474397345485361,2.6130722437736966,8.86603846550895,71.16499999997905
313443.9577,-7.2154200765306795,7.763052956204142,1.527883332903188,7.862495473998984,71.16600000002654
313443.9587,-9.422956370854719,6.252569547137361,-0.23554856236300742,6.214646432983555,71.16700000001583
313443.9597,-12.029112422546868,4.127985747567426,-2.4720177271818606,4.105627877417268,71.16800000000512
313443.9607,-14.746946437284286,1.6335326900576543,-4.920979594549187,1.7660197407323759,71.16899999999441
313443.9617,-17.25955847882989,-0.9517842152016801,-7.292084774653276,-0.5489446952936794,71.1699999999837
313443.9627,-19.25025047570216,-3.3418611888489527,-9.293777431574313,-2.5845891125411935,71.17099999997299
313443.9637,-20.433018083562292,-5.271722967981732,-10.662170533405119,-4.111962060147174,71.17200000002049
313443.9647,-20.580444766938715,-6.523545847233588,-11.187380427532378,-4.950503901614444,71.17300000000978
313443.9657,-19.546313430946512,-6.947943185148747,-10.734748308766726,-4.9859988713648695,71.17399999999907
313443.9667,-17.28075618155303,-6.478448197574019,-9.258872522598047,-4.18205943111205,71.17499999998836
313443.9677,-13.83647920591729,-5.1377986848547055,-6.809074775895306,-2.584022575736783,71.17599999997765
313443.9687,-9.365457660384589,-3.0354337314212394,-3.525756886842496,-0.3148795915594687,71.17700000002515
313443.9697,-4.106411390648084,-0.3564743945513719,0.3720087668277961,2.436360620761318,71.17800000001444
313443.9707,1.6357427673990776,2.6567055111155757,4.606459073237006,5.432735401515644,71.17900000000373
313443.9717,7.516498417092649,5.728487918877007,8.866758361696812,8.412052767367244,71.17999999999302
313443.9727,13.18188661082055,8.577223674822962,12.83777593543276,11.112055668202329,71.1809999999823
313443.9737,18.29925306352347,10.942965389824485,16.22923909013392,13.295568729384897,71.1819999999716
313443.9747,22.585765780450288,12.612988583256733,18.802444711519204,14.773174232258844,71.18300000001909
313443.9757,25.831966050838243,13.442591569445325,20.39195440104288,15.421208343553488,71.18400000000838
313443.9767,27.918168353576814,13.36913268795636,20.920190974985395,15.193329004035085,71.18499999999767
313443.9777,28.822218533271965,12.417931811726085,20.40354971189347,14.124538226958157,71.18599999998696
313443.9787,28.617965449149278,10.699465835961771,18.94946767271746,12.327281892999615,71.18699999997625
313443.9797,27.464706230232192,8.398146138205787,16.744777454315464,9.980026845104396,71.18800000002375
313443.9807,25.588740719661647,5.753795464045208,14.036521381718739,7.309452017126239,71.18900000001304
313443.9817,23.258931144621467,3.0376608450716507,11.107135248751652,4.568015223356443,71.19000000000233
313443.9827,20.758734416551793,0.5253373566415942,8.24645560729698,2.009108840505251,71.19099999999162
313443.9837,18.35750132651869,-1.5307180874473179,5.723308103868027,-0.1377483180792026,71.19199999998091
313443.9847,16.28388790185897,-2.9263630259246978,3.7594669855200387,-1.6892420111680486,71.1929999999702
313443.9857,14.703995092941522,-3.526142984411312,2.5085347355375993,-2.525921677592829,71.1940000000177
313443.9867,13.706367013827453,-3.276841887251826,2.041799786035967,-2.603454573766866,71.19500000000698
313443.9877,13.295283593340148,-2.212860531090898,2.3424378058917736,-1.9563738234664707,71.19599999999627
313443.9887,13.392949523791792,-0.45287901722189067,3.308596319664805,-0.6939594201298812,71.19699999998556
313443.9897,13.850290264106818,1.8118820772017281,4.765024554778113,1.0113330656751427,71.19799999997485
313443.9907,14.46520552062835,4.336658284811583,6.482066693071,2.941746202025594,71.19900000002235
313443.9917,15.006385930745562,6.847534920507782,8.200109989354326,4.856624620867146,71.20000000001164
313443.9927,15.240243003631203,9.068842053559209,9.657040878294309,6.517128516492475,71.20100000000093
313443.9937,14.95819047483024,10.750854591807473,10.615965085642674,7.7108056862986505,71.20199999999022
313443.9947,14.001477838730606,11.695065286057057,10.890421072294549,8.273581460708227,71.20299999997951
313443.9957,12.281017640484578,11.774530626972311,10.364562509204058,8.106976166090663,71.20400000002701
313443.9967,9.790143456003493,10.947267426532216,9.006280745534903,7.188825604272127,71.2050000000163
313443.9977,6.60893662519464,9.261354747731088,6.871933795591877,5.57641589660573,71.20600000000559
313443.9987,2.899597716003179,6.851205632203781,4.102175965790588,3.4016877230710967,71.20699999999488
313443.9997,-1.106769126770346,3.92533657618764,0.9092606270978814,0.8589436830657305,71.20799999998417
313444.0007,-5.130732262656209,0.7467954129133335,-2.442968444914055,-1.8137700569916848,71.20899999997346
313444.0017,-8.870502170180949,-2.391871365530674,-5.664457100216112,-4.357812749474737,71.21000000002095
313444.0027,-12.030778931841244,-5.1966933555048245,-8.46721702986402,-6.519384393789172,71.21100000001024
313444.0037,-14.351658995197683,-7.4006727375740375,-10.593730060944393,-8.07477270626063,71.21199999999953
313444.0047,-15.634755830957614,-8.7897456742363,-11.842690663192093,-8.852948117641317,71.21299999998882
313444.0057,-15.763941714357113,-9.223784268161818,-12.089548585599342,-8.753294835859469,71.21399999997811
313444.0067,-14.718625697961938,-8.650593685941026,-11.299814454437197,-7.756733760751253,71.21500000002561
313444.0077,-12.578196722882396,-7.111537741994593,-9.533792361841135,-5.9291312767182465,71.2160000000149
313444.0087,-9.517111293614402,-4.738238430207896,-6.942236472179166,-3.4166343963399415,71.21700000000419
313444.0097,-5.791009332460055,-1.7406612848405858,-3.753312049152582,-0.4333545222251895,71.21799999999348
313444.0107,-1.7151115036912887,1.6122655596287836,-0.2520886696374528,2.7574370730552653,71.21899999998277
313444.0117,2.3630984849117684,5.017626792957881,3.2454781595937487,5.866811368744183,71.21999999997206
313444.0127,6.094345675151445,8.166676792032094,6.421582521936599,8.60613751091463,71.22100000001956
313444.0137,9.158318757402924,10.773459169366586,8.985830952837135,10.713014159488067,71.22200000000885
313444.0147,11.29180482772351,12.601129834318465,10.701919374181715,11.974704661544509,71.22299999999814
313444.0157,12.311549635201045,13.483453074055143,11.409161576742923,12.246851631723233,71.22399999998743
313444.0167,12.129694869507013,13.33941543049524,11.036807221621855,11.465709742878067,71.22499999997672
313444.0177,10.760357805541863,12.179577377886085,9.609788672525843,9.652769271102322,71.22600000002421
313444.0187,8.316770766106496,10.103591810983872,7.245369600445312,6.911385023989608,71.2270000000135
313444.0197,4.999305418882046,7.289181882922353,4.141052722585895,3.415802973798137,71.2280000000028
313444.0207,1.0755815402844116,3.9737042235792917,0.5549527869106924,-0.6062859475068614,71.22899999999208
313444.0217,-3.145383543242215,0.4301454367478692,-3.219428966814075,-4.895910985130195,71.22999999998137
313444.0227,-7.342463617686475,-3.0600606037884575,-6.8815524833941515,-9.187500982464957,71.23099999997066
313444.0237,-11.21231047078253,-6.234702503153742,-10.152534854940637,-13.233640339350075,71.23200000001816
313444.0247,-14.496957505635418,-8.876216028121481,-12.801394900733554,-16.82747084919063,71.23300000000745
313444.0257,-17.006497579388494,-10.832360084020287,-14.666294878826594,-19.820554984346185,71.23399999999674
313444.0267,-18.63468837327659,-12.03011467692289,-15.668725556565226,-22.134477034836465,71.23499999998603
313444.0277,-19.36604230413453,-12.481445077012985,-15.819279206257523,-23.765088348226637,71.23599999997532
313444.0287,-19.27380040454349,-12.280382927769196,-15.214485517066505,-24.779039578152673,71.23700000002282
313444.0297,-18.50908804311769,-11.591735348662805,-14.02506645755962,-25.303013651404335,71.23800000001211
313444.0307,-17.282416737955415,-10.632562648929778,-12.476811368590988,-25.506802085694765,71.2390000000014
313444.0317,-15.839445765627818,-9.648282600916248,-10.826000109292073,-25.581982423750905,71.23999999999069
313444.0327,-14.433476444606782,-8.885793797306288,-9.33183864837909,-25.718395162580798,71.24099999997998
313444.0337,-13.297466242953503,-8.566309824781774,-8.228665433094985,-26.080841063615892,71.24200000002747
313444.0347,-12.618388647903945,-8.860630281942667,-7.700709302358825,-26.788401978728572,71.24300000001676
313444.0357,-12.516524508991049,-9.86934047870833,-7.861928378451734,-27.89853179142374,71.24400000000605
313444.0367,-13.0317751840978,-11.60995173863191,-8.742958859030805,-29.397593719996895,71.24499999999534
313444.0377,-14.118386181762736,-14.012315458485055,-10.286501972079234,-31.198882090038666,71.24599999998463
313444.0387,-15.648631250478008,-16.922832862161794,-12.351645234931576,-33.1484233462038,71.24699999997392
313444.0397,-17.425113621931185,-20.117118143659237,-14.726732184124153,-35.038075554445925,71.24800000002142
313444.0407,-19.20048132484228,-23.319940093792948,-17.149549453470552,-36.624714232269405,71.24900000001071
313444.0417,-20.702611818911713,-26.230547958868584,-19.332874456787188,-37.65367710837292,71.25
313444.0427,-21.662770727013754,-28.55095174455196,-20.99289227043119,-37.8842021390882,71.25099999998929
313444.0437,-21.84394447072435,-30.014428045917658,-21.87769921631391,-37.11437532478828,71.25199999997858
313444.0447,-21.066517342897022,-30.411489230355432,-21.793091880674467,-35.203129565759944,71.25300000002608
313444.0457,-19.228713122458306,-29.610789900829307,-20.623095963079727,-32.087101257597645,71.25400000001537
313444.0467,-16.31972552252898,-27.572927167721378,-18.343194654292834,-27.790632277888232,71.25500000000466
313444.0477,-12.424171341724199,-24.355773413895974,-15.024921961096194,-22.42785508381233,71.25599999999395
313444.0487,-7.717345769637991,-20.110795514296104,-10.831323669400605,-16.196554865319968,71.25699999998324
313444.0497,-2.451658120470248,-15.070683441609933,-6.003675709555634,-9.36429167650411,71.25799999997253
313444.0507,3.0645096912790115,-9.529449199521954,-0.8406999110913729,-2.2480105089493496,71.25900000002002
313444.0517,8.493535030921857,-3.816882463159421,4.327752558127778,4.811004117797123,71.26000000000931
313444.0527,13.498337762277217,1.7302084300541871,9.170040739768611,11.474521513127465,71.2609999999986
313444.0537,17.772370367647223,6.797235112829477,13.382292002814204,17.43456924699774,71.26199999998789
313444.0547,21.066941916327384,11.118771587017415,16.715352001953168,22.43792649707547,71.26299999997718
313444.0557,23.21325406186563,14.500653006619025,18.996552383461957,26.305641604702377,71.26400000002468
313444.0567,24.137034003197247,16.83515871740468,20.144225032351617,28.945784396713375,71.26500000001397
313444.0577,23.864362300164288,18.107882873982348,20.173595643703752,30.35829078945205,71.26600000000326
313444.0587,22.518143096096146,18.3957055046477,19.193525705862285,30.631513039677493,71.26699999999255
313444.0597,20.305567801592446,17.85614141484956,17.394458912791734,29.930880373928296,71.26799999998184
313444.0607,17.497792501321307,16.70917938156926,15.028778979152298,28.480824836414666,71.26899999997113
313444.0617,14.403799484624887,15.213448219442805,12.385517783587627,26.541763351603844,71.27000000001863
313444.0627,11.340971248854006,13.63908894336591,9.761894373341997,24.38438767890744,71.27100000000792
313444.0637,8.605216765009922,12.240020679044529,7.434463953644651,22.26375478805812,71.2719999999972
313444.0647,6.443524527790307,11.228332421549144,5.632682698330854,20.39566833347463,71.2729999999865
313444.0657,5.03157179997658,10.753309326402059,4.5174468190767305,18.93759818241654,71.27399999997579
313444.0667,4.458518729431923,10.887133296286965,4.166667413474583,17.97592378180231,71.27500000002328
313444.0677,4.7204088711862005,11.618629600055456,4.569245176219796,17.520654149726973,71.27600000001257
313444.0687,5.722753446061357,12.855630015827488,5.6279796944686575,17.50803477976376,71.27700000000186
313444.0697,7.291978124791396,14.435667431932634,7.1710682118516065,17.81067268042945,71.27799999999115
313444.0707,9.194546206782285,16.143891149149177,8.971004764539817,18.254071526780496,71.27899999998044
313444.0717,11.161825363772277,17.73637750095783,10.7689652087154,18.637841840901512,71.27999999996973
313444.0727,12.918209588683863,18.966477087363128,12.302227917870695,18.75939750216892,71.28100000001723
313444.0737,14.209697785851587,19.611540295704167,13.331886221404307,18.437713877805656,71.28200000000652
313444.0747,14.830095628716602,19.497326259490368,13.668085589109857,17.534727207807002,71.28299999999581
313444.0757,14.64225093872867,18.517630503606107,13.190268164230673,15.972198696643943,71.2839999999851
313444.0767,13.592230638059592,16.647140532977886,11.860404764913284,13.742325652746676,71.28499999997439
313444.0777,11.715050113935755,13.946199833910805,9.727890829700934,10.911010455217015,71.28600000002189
313444.0787,9.131404335815143,10.5569630513769,6.9256093850817155,7.613433959529726,71.28700000001118
313444.0797,6.035741740883823,6.691279442038965,3.6575395949469973,4.042350500553972,71.28800000000047
313444.0807,2.676879027117991,2.6114638905787904,0.17912766043270414,0.4302508526562512,71.28899999998976
313444.0817,-0.6669067176226542,-1.3941762516356977,-3.227644706143639,-2.972844601834503,71.28999999997905
313444.0827,-3.7158252424688634,-5.038664464912787,-6.282031018679864,-5.923758462058758,71.29100000002654
313444.0837,-6.216774684442129,-8.063843861473188,-8.732381226518923,-8.210266609341696,71.29200000001583
313444.0847,-7.96898548952932,-10.265320348411414,-10.38132978604834,-9.672534162775648,71.29300000000512
313444.0857,-8.844545273368272,-11.512389560870627,-11.105804381158682,-10.219719649836865,71.29399999999441
313444.0867,-8.80174654569444,-11.760961284753598,-10.869853615860308,-9.84005834400485,71.2949999999837
313444.0877,-7.88990595786264,-11.05817590877234,-9.728994282899796,-8.603372002713659,71.29599999997299
313444.0887,-6.245144414686658,-9.538218174341281,-7.825610010266104,-6.6556939934715,71.29700000002049
313444.0897,-4.077509416613096,-7.4096947103387185,-5.375811694285858,-4.206473201331879,71.29800000000978
313444.0907,-1.6506766943441957,-4.935769096448912,-2.64900994134435,-1.5095510839928452,71.29899999999907
313444.0917,0.7437965744351778,-2.408960289667852,0.057831686288893645,1.1602780971686482,71.29999999998836
313444.0927,2.8151522719110926,-0.12303718328689617,2.4487670994889945,3.53287411157893,71.30099999997765
313444.0937,4.302234762885685,1.6552680597128397,4.257483232161743,5.3680545134833055,71.30200000002515
313444.0947,4.999585935066883,2.711981166216519,5.273170810259461,6.478146059894115,71.30300000001444
313444.0957,4.778257998420257,2.9065390655347882,5.361122162261391,6.745595001490389,71.30400000000373
313444.0967,3.5992806013502388,2.185362290736739,4.476037321477397,6.133922305934523,71.30499999999302
313444.0977,1.5184324326374725,0.5870199555674268,2.6667271533554406,4.690952892055523,71.3059999999823
313444.0987,-1.3181854545687988,-1.7615223455316518,0.07173870159150682,2.543996413192628,71.3069999999716
313444.0997,-4.687379703586009,-4.6572139700968185,-3.0936883600716274,-0.11256207033356637,71.30800000001909
313444.1007,-8.3096428361788,-7.840599088628879,-6.558080767734407,-3.036066358113691,71.30900000000838
313444.1017,-11.875485479334367,-11.020956613895118,-10.01963006836468,-5.958972331643214,71.30999999999767
313444.1027,-15.074783711516814,-13.904460268432917,-13.175024028462273,-8.61455007770349,71.31099999998696
313444.1037,-17.62630515805964,-16.222625190554616,-15.748418873034845,-10.762420980996664,71.31199999997625
313444.1047,-19.30455665799815,-17.758280459604084,-17.517746738086228,-12.211464077149662,71.31300000002375
313444.1057,-19.961354313984955,-18.366549215631373,-18.335812998170386,-12.837884505657659,71.31400000001304
313444.1067,-19.54002839259416,-17.988805971291224,-18.14414667675781,-12.596710483371435,71.31500000000233
313444.1077,-18.080890903460496,-16.65826654653739,-16.978274219597264,-11.525627498679093,71.31599999999162
313444.1087,-15.717442851792278,-14.496682720194269,-14.963923346987011,-9.740806564674045,71.31699999998091
313444.1097,-12.663698132608937,-11.702481312893921,-12.304547686734601,-7.425164172493758,71.3179999999702
313444.1107,-9.193863847659376,-8.5315211442161,-9.261407971119496,-4.810228671767206,71.3190000000177
313444.1117,-5.616358148667033,-5.272359625528219,-6.128169125615842,-2.1534090823479244,71.32000000000698
313444.1127,-2.244694111039001,-2.21845345322076,-3.20250386264502,0.2870929311593676,71.32099999999627
313444.1137,0.6319418228732293,0.35998706565706995,-0.7574805332887024,2.2772624551345726,71.32199999998556
313444.1147,2.7755648426461086,2.2417418337232724,0.9844719873909971,3.6296937683478743,71.32299999997485
313444.1157,4.021123493270981,3.275415045177213,1.8724880154249486,4.2212647078482854,71.32400000002235
313444.1167,4.291000235133966,3.3933373074565543,1.84104937954173,4.004343758017176,71.32500000001164
313444.1177,3.600905347888556,2.617196839493703,0.9153069292654038,3.010450905393039,71.32600000000093
313444.1187,2.0566347224310446,1.0548745599591354,-0.7925505917524015,1.3460389730738835,71.32699999999022
313444.1197,-0.15794124053702915,-1.1111776792108687,-3.0954893185379238,-0.8191599915452316,71.32799999997951
313444.1207,-2.800431041236511,-3.642846149935507,-5.751152106238758,-3.2700450549707454,71.32900000002701
313444.1217,-5.59505342559873,-6.270667287054593,-8.486757072160481,-5.7685178808208075,71.3300000000163
313444.1227,-8.260838395370394,-8.721129299734468,-11.026893104044575,-8.078079380281023,71.33100000000559
313444.1237,-10.54009290687926,-10.744258345867193,-13.121449406740862,-9.988195443980503,71.33199999999488
313444.1247,-12.224305786494847,-12.138758713106421,-14.570904934103002,-11.335997570169987,71.33299999998417
313444.1257,-13.17492402705578,-12.772219403844005,-15.24646540995913,-12.023146090966296,71.33399999997346
313444.1267,-13.336943019155697,-12.594387082106547,-15.103044901679281,-12.026159996061908,71.33500000002095
313444.1277,-12.74396622613853,-11.642189617424267,-14.183795611937365,-11.399161431451608,71.33600000001024
313444.1287,-11.514235253489904,-10.036008263244224,-12.61572435081265,-10.268731685882818,71.33699999999953
313444.1297,-9.838026092696785,-7.967559931891453,-10.596815098707307,-8.821355431441924,71.33799999998882
313444.1307,-7.957663563160266,-5.680579291440064,-8.375917661167929,-7.284664594080233,71.33899999997811
313444.1317,-6.1421394121254105,-3.4462021608968767,-6.22738005043002,-5.904310306887953,71.34000000002561
313444.1327,-4.6588579537860895,-1.5354769746692665,-4.42292631323345,-4.918730204512182,71.3410000000149
313444.1337,-3.7453234265498527,-0.19171824684333455,-3.2035603986600223,-4.534295518308687,71.34200000000419
313444.1347,-3.583596631320645,0.3945633526725612,-2.754282664746064,-4.903296358162754,71.34299999999348
313444.1357,-4.280083247504268,0.10566771751699613,-3.184137826244932,-6.106956349123295,71.34399999998277
313444.1367,-5.852698202889061,-1.090345175666108,-4.513597449914012,-8.145185171437028,71.34499999997206
313444.1377,-8.226730124826865,-3.1350678824491003,-6.67056672341473,-10.934126384953831,71.34600000001956
313444.1387,-11.239877644467313,-5.884007050701169,-9.495463785804144,-14.31180160054653,71.34700000000885
313444.1397,-14.656028591705162,-9.11931363564545,-12.754932643749813,-18.05136434392735,71.34799999999814
313444.1407,-18.186492175820167,-12.569770341078536,-16.162904402802173,-21.880734741371345,71.34899999998743
313444.1417,-21.516657561873505,-15.936111147418258,-19.406999081560908,-25.50676197337988,71.34999999997672
313444.1427,-24.335512211821527,-18.919221523727252,-22.177732470088312,-28.64161635875284,71.35100000002421
313444.1437,-26.365163169971304,-21.248480814540766,-24.197711185310222,-31.028890575934547,71.3520000000135
313444.1447,-27.38749294157387,-22.70748867667231,-25.24799204808227,-32.46691181677881,71.3530000000028
313444.1457,-27.265350309964095,-23.154667491788853,-25.189050152772808,-32.82703165280382,71.35399999999208
313444.1467,-25.95619952064134,-22.53672819280267,-23.9743176159615,-32.06514244614674,71.35499999998137
313444.1477,-23.51687798809204,-20.893679688469064,-21.654971693778297,-30.225321440232634,71.35599999997066
313444.1487,-20.098972355303694,-18.3548845064953,-18.375496991418277,-27.435262780001196,71.35700000001816
313444.1497,-15.935231601509978,-15.1265351340181,-14.36043943200036,-23.893949766508765,71.35800000000745
313444.1507,-11.318305315432866,-11.471761665455254,-9.893622466227555,-19.852767549100722,71.35899999999674
313444.1517,-6.573840372742516,-7.685300057620394,-5.291825534560506,-15.591887402898013,71.35999999998603
313444.1527,-2.030517294883738,-4.065181250517344,-0.8754598948825567,-11.39420633836866,71.36099999997532
313444.1537,2.0100950672400963,-0.8841926491848973,3.0609345792470575,-7.5193560509993205,71.36200000002282
313444.1547,5.300970333699765,1.6361136205163087,6.275534252993953,-4.180280845786512,71.36300000001211
313444.1557,7.671708802077243,3.3463390667329267,8.600843099032756,-1.5246267401290243,71.3640000000014
313444.1567,9.043163097575292,4.183051636421522,9.958008028365114,0.3772912439616111,71.36499999999069
313444.1577,9.433218758175377,4.174153746071902,10.362488454402829,1.5368229972097838,71.36599999997998
313444.1587,8.953203309711027,3.4352901346014257,9.920573763412277,2.043252231960949,71.36700000002747
313444.1597,7.795308169713638,2.1576544167292577,8.817133946682182,2.0524227597878633,71.36800000001676
313444.1607,6.2122803710190535,0.5883925711279255,7.295841334599548,1.7688902554741774,71.36900000000605
313444.1617,4.491390485221737,-0.9944759768176342,5.633831919601307,1.42339767470829,71.36999999999534
313444.1627,2.925236166135838,-2.310164120409575,4.1133119020461875,1.2479253699948083,71.37099999998463
313444.1637,1.7822435311488898,-3.103499038868916,2.992906526113734,1.450798539387155,71.37199999997392
313444.1647,1.279751723698484,-3.170803281812236,2.4815657373281432,2.1943225105719364,71.37300000002142
313444.1657,1.562307363481479,-2.3807426770023885,2.7175832502407147,3.5771619418739,71.37400000001071
313444.1667,2.6872806452121902,-0.6881008446982558,3.7547777709109003,5.623208464404704,71.375
313444.1677,4.61919409412701,1.8608686559754866,5.557177319432063,8.278038995461078,71.37599999998929
313444.1687,7.233299035676309,5.132038710310239,8.002709329108566,11.41331701699857,71.37699999997858
313444.1697,10.328027493320825,8.915605791515256,10.895512680142389,14.838705138783208,71.37800000002608
313444.1707,13.645077293982975,12.94570048500827,13.985639956952387,18.320116155145936,71.37900000001537
313444.1717,16.89514074533512,16.925500791135477,16.994192072523987,21.602504223088467,71.38000000000466
313444.1727,19.78673544310764,20.55540143073476,19.64139409403015,24.434949052424063,71.38099999999395
313444.1737,22.055293489414996,23.561495599685763,21.67483282434674,26.595558066602294,71.38199999998324
313444.1747,23.489642127786947,25.72159714208886,22.895061607579997,27.91372667162935,71.38299999997253
313444.1757,23.9532666712685,26.88627357903784,23.17603731148001,28.28755353105844,71.38400000002002
313444.1767,23.398260225108174,26.992849964126307,22.478362955752377,27.694680879191345,71.38500000000931
313444.1777,21.870583648389402,26.07103208510732,20.854017049774015,26.19547300047481,71.3859999999986
313444.1787,19.50611292155391,24.239617576719095,18.4420879079493,23.928195997821373,71.38699999998789
313444.1797,16.517855864189798,21.694634690640484,15.45591585473283,21.096645336759334,71.38799999997718
313444.1807,13.175587274283698,18.69008545508332,12.16289149846508,17.9514075988587,71.38900000002468
313444.1817,9.77989604451955,15.513190814389295,8.85888119779784,14.766566889179346,71.39000000001397
313444.1827,6.633186703435268,12.456569558014857,5.839780525286635,11.81411327694777,71.39100000000326
313444.1837,4.010477367465834,9.790078248423566,3.372980968735903,9.338536729738575,71.39199999999255
313444.1847,2.132856962114656,7.7350671946106,1.6715463759464628,7.534073102077904,71.39299999998184
313444.1857,1.1462047775922841,6.44356528960033,0.8736326048512146,6.526810542766491,71.39399999997113
313444.1867,1.1072604649349571,5.984418206135721,1.0291722449813219,6.363390511259658,71.39500000001863
313444.1877,1.978412940302358,6.337718103334201,2.0951362475901627,7.007393909914683,71.39600000000792
313444.1887,3.631722869182881,7.398046100097449,3.939845406627772,8.343752702484418,71.3969999999972
313444.1897,5.861789090403762,8.986181542046422,6.355919062872155,10.190744263928389,71.3979999999865
313444.1907,8.406203080469577,10.868099644735086,9.080602921396958,12.318386265375407,71.39899999997579
313444.1917,10.971592174518031,12.779363103614001,11.821495310958584,14.471426511979722,71.40000000002328
313444.1927,13.26270452606104,14.452483934533198,14.285162361875209,16.39467580147493,71.40100000001257
313444.1937,15.011690310555936,15.6445410300766,16.20584924842721,17.858206176519456,71.40200000000186
313444.1947,16.00471365373487,16.16231515659739,17.371484593073134,18.679953890854947,71.40299999999115
313444.1957,16.10329012685575,15.882448644378023,17.644439353209016,18.74352420067226,71.40399999998044
313444.1967,15.258259882404463,14.764627688541404,16.97501413114927,18.00946832777436,71.40499999996973
313444.1977,13.515026145532062,12.856472779449584,15.406339659055744,16.51894511041056,71.40600000001723
313444.1987,11.009542369661412,10.28963979183158,13.07021459813091,14.38942790684102,71.40700000000652
313444.1997,7.955435354632811,7.267500452769226,10.17429055513525,11.802897834944648,71.40799999999581
313444.2007,4.623517548185884,4.045601217998228,6.981859630342168,8.987700855190036,71.4089999999851
313444.2017,1.3156848985613532,0.9068124644769714,3.786222113340785,6.19586633152603,71.40999999997439
313444.2027,-1.6642556577471226,-1.8663946789897496,0.8821404641841514,3.6781277778468837,71.41100000002189
313444.2037,-4.039986193596048,-4.019820236501659,-1.4628312074186336,1.6591091636471302,71.41200000001118
313444.2047,-5.5894416135097655,-5.352813388256854,-3.034342921925963,0.31512071115482987,71.41300000000047
313444.2057,-6.166332733028266,-5.738464178920748,-3.692034478543351,-0.24325135900444625,71.41399999998976
313444.2067,-5.714337474255821,-5.136711577368922,-3.3830873249764295,0.017949446643206867,71.41499999997905
313444.2077,-4.272586376518853,-3.5990618942817134,-2.1472283707275115,1.052717663582155,71.41600000002654
313444.2087,-1.9719195271852974,-1.2644315109322732,-0.11270886984297429,2.7396498526604374,71.41700000001583
313444.2097,0.9777068779276366,1.653503941586966,2.516335158042787,4.893949984165401,71.41800000000512
313444.2107,4.307423048263397,4.886240468216648,5.479891760595682,7.2856889729181615,71.41899999999441
313444.2117,7.7152752411075305,8.13573014107239,8.487482307272415,9.662515699153426,71.4199999999837
313444.2127,10.895154736857261,11.102567703871772,11.246476218105856,11.77457886414662,71.42099999997299
313444.2137,13.566000519596223,13.514342739503713,13.490535003765645,13.399201444473483,71.42200000002049
313444.2147,15.498429108574996,15.151403119184971,15.00540049716734,14.36287364728699,71.42300000000978
313444.2157,16.536202698762914,15.867527087470657,15.649506121778055,14.55839372058723,71.42399999999907
313444.2167,16.610457556561112,15.603497644009515,15.367400843713758,13.955462836686143,71.42499999998836
313444.2177,15.745328140324167,14.392265266217153,14.194682833193395,12.603683700716262,71.42599999997765
313444.2187,14.054448509735586,12.355205690584748,12.25397431831055,10.627659353733918,71.42700000002515
313444.2197,11.728708154300381,9.689848099869419,9.742348737830856,8.214665516599068,71.42800000001444
313444.2207,9.01649653123434,6.650280638878365,6.91145979818941,5.596100487148125,71.42900000000373
313444.2217,6.1984053194934905,3.522153345559965,4.042337204051786,3.024529328912406,71.42999999999302
313444.2227,3.558897711553385,0.594723600363073,1.417335593171849,0.748573719736315,71.4309999999823
313444.2237,1.3577471486853914,-1.867325222336594,-0.7079994991794932,-1.0118873172390448,71.4319999999716
313444.2247,-0.19593477177237675,-3.6495428929903815,-2.1303790548279045,-2.0877685213459265,71.43300000001909
313444.2257,-0.9645213760537139,-4.608350819881272,-2.7190279538616675,-2.3779111077707547,71.43400000000838
313444.2267,-0.8954964780342091,-4.684656234251265,-2.4287607757543537,-1.8596068563236976,71.43499999999767
313444.2277,-0.026546290758265676,-3.909128784157551,-1.3045916790530803,-0.5914692779822923,71.43599999998696
313444.2287,1.5183751895195752,-2.3986445065120967,0.5225729297985284,1.2916438728664534,71.43699999997625
313444.2297,3.5416089907073656,-0.344268050281546,2.8487331473296997,3.5911746334123187,71.43800000002375
313444.2307,5.791732289979133,2.0080272762804423,5.416824961469643,6.0636624251555356,71.43900000001304
313444.2317,7.988899818248642,4.38199173792458,7.942008567169334,8.443969918805362,71.44000000000233
313444.2327,9.853074279804973,6.4986513820421035,10.139726822878306,10.470678184386975,71.44099999999162
313444.2337,11.132348648410796,8.104064537077905,11.753772599568672,11.911179538772693,71.44199999998091
313444.2347,11.628552796029805,8.99455020381166,12.581602680563334,12.584025839256899,71.4429999999702
313444.2357,11.217603039091076,9.03690742793348,12.494406266358308,12.376358369645057,71.4440000000177
313444.2367,9.862569754641841,8.181639640061523,11.44995149577399,11.25472661677625,71.44500000000698
313444.2377,7.618154527349625,6.467887623022707,9.496943134332136,9.268249977707535,71.44599999999627
313444.2387,4.6261140089571136,4.019591488711161,6.770459031642669,6.543825375317102,71.44699999998556
313444.2397,1.1020597412111948,1.0332656414077839,3.4789101814260173,3.2738614785647555,71.44799999997485
313444.2407,-2.685086037614063,-2.24140359500599,-0.1161969210210703,-0.30224951216667156,71.44900000002235
313444.2417,-6.438972748490284,-5.526221247331007,-3.725708356887794,-3.9211003253081893,71.45000000001164
313444.2427,-9.864506648897454,-8.541972979820557,-7.060980391046032,-7.320422848094201,71.45100000000093
313444.2437,-12.696522530072341,-11.036026304981062,-9.861977527076085,-10.263962664832443,71.45199999999022
313444.2447,-14.72562101788167,-12.807317099813535,-11.922545674634133,-12.563639412919365,71.45299999997951
313444.2457,-15.818623015882467,-13.72625027355426,-13.110370540261583,-14.09682832112787,71.45400000002701
313444.2467,-15.931615901291353,-13.747541916318678,-13.379651619973766,-14.8170805341428,71.4550000000163
313444.2477,-15.11428872817964,-12.914722955772767,-12.775236350342686,-14.75724712127093,71.45600000000559
313444.2487,-13.50510526151884,-11.355843403317353,-11.427797112061198,-14.024720493767202,71.45699999999488
313444.2497,-11.317760829116468,-9.27078141510915,-9.540513734296342,-12.789283824593005,71.45799999998417
313444.2507,-8.820223876410786,-6.911387808962461,-7.3685596359749495,-11.264787720192693,71.45899999997346
313444.2517,-6.308391957594025,-4.556403303339525,-5.193398790869987,-9.686482285935845,71.46000000002095
313444.2527,-4.076923195116411,-2.483603212197385,-3.2944136929430257,-8.286262025571741,71.46100000001024
313444.2537,-2.390085780025215,-0.94190176602592,-1.9206509758301216,-7.268288479716355,71.46199999999953
313444.2547,-1.4554720750120198,-0.12615824592635447,-1.2654649782926641,-6.78742063530611,71.46299999998882
313444.2557,-1.4031496781177508,-0.15716850279611178,-1.4465607318640685,-6.932609180330106,71.46399999997811
313444.2567,-2.272295993102439,-1.068823285108293,-2.4934136512393548,-7.716924338870252,71.46500000002561
313444.2577,-4.006636655575366,-2.8037180763561826,-4.343324753142969,-9.07523584681666,71.4660000000149
313444.2587,-6.4591524376890845,-5.217675883765204,-6.846527687416885,-10.869811356998042,71.46700000000419
313444.2597,-9.405617555381713,-8.09277507973117,-9.779879593147982,-12.90331988310305,71.46799999999348
313444.2607,-12.56567271026188,-11.157643975570622,-12.86782827646377,-14.93799622498387,71.46899999998277
313444.2617,-15.629402691044266,-14.113073520556672,-15.80863558670284,-16.71911232528489,71.46999999997206
313444.2627,-18.286852589229433,-16.66047884757418,-18.303320899078788,-18.00047206686837,71.47100000001956
313444.2637,-20.257630960940293,-18.530460267105095,-20.084519830810468,-18.569439356664336,71.47200000000885
313444.2647,-21.317740439823385,-19.50870215027075,-20.94245809036974,-18.269045885746735,71.47299999999814
313444.2657,-21.321047038621312,-19.456705134236316,-20.745518298855536,-17.015001342677802,71.47399999998743
313444.2667,-20.213322090853854,-18.325348099817777,-19.453401623930294,-14.805918254500385,71.47499999997672
313444.2677,-18.037514268636173,-16.159972422834446,-17.121604960049282,-11.725718362718833,71.47600000002421
313444.2687,-14.929762548187925,-13.096504040269743,-13.896777945506685,-7.937943660339947,71.4770000000135
313444.2697,-11.10656089273934,-9.348998458479311,-10.003409912998015,-3.6724791432788986,71.4780000000028
313444.2707,-6.844343805770787,-5.189825004508824,-5.723138390879837,0.7940705216317948,71.47899999999208
313444.2717,-2.453494925495127,-0.9244182225560308,-1.3686858192628841,5.162493553907726,71.47999999998137
313444.2727,1.7506830289063788,3.1369530730940105,2.74505007890635,9.13728175008792,71.48099999997066
313444.2737,5.477211563942115,6.707665844145902,6.32995490265084,12.45263668818272,71.48200000001816
313444.2747,8.486057282547518,9.55072324464535,9.150909108094018,14.895700510790745,71.48300000000745
313444.2757,10.609561718818897,11.499739631168136,11.046730657071233,16.324811977308553,71.48399999999674
313444.2767,11.766629409323503,12.47293067398479,11.943847034799838,16.681073321244405,71.48499999998603
313444.2777,11.968340966838777,12.478799763205343,11.861409689684114,15.992163968108441,71.48599999997532
313444.2787,11.314504341734613,11.613029049554106,10.907403310133462,14.368089655020286,71.48700000002282
313444.2797,9.98154952530253,10.04694677412235,9.266183958167806,11.989336322138437,71.48800000001211
313444.2807,8.2030219920907,8.008767272085297,7.178717519224217,9.08863099647871,71.4890000000014
313444.2817,6.244654729770781,5.759505283836144,4.917501179072206,5.928125218739886,71.48999999999069
313444.2827,4.376526704629448,3.56598286792652,2.758666104855481,2.774250618818093,71.49099999997998
313444.2837,2.8450953728029513,1.6736247483370577,0.9540288350614198,-0.1272910929144012,71.49200000002747
313444.2847,1.8478951249329039,0.2817493302598843,-0.29414410771463606,-2.573970550626218,71.49300000001676
313444.2857,1.5134221976096514,-0.4761929679390348,-0.853168629527981,-4.4241399011612215,71.49400000000605
313444.2867,1.8882065495413936,-0.5454796116717738,-0.6728020764858261,-5.608322185187221,71.49499999999534
313444.2877,2.9323538718570927,0.04519069332600166,0.21032888429817403,-6.133037706055268,71.49599999998463
313444.2887,4.523997048546333,1.1876217921448475,1.6771533140625057,-6.076868078028599,71.49699999997392
313444.2897,6.472209197651359,2.7062532274236215,3.5389788309136274,-5.57922981187702,71.49800000002142
313444.2907,8.537087352622162,4.377276897637397,5.557425307484439,-4.823051745046259,71.49900000001071
313444.2917,10.454999999237478,5.952814307329964,7.469477725279069,-4.01315324741942,71.5
313444.2927,11.966473685935023,7.187724148281561,9.015157924792023,-3.3525436644099558,71.50099999998929
313444.2937,12.843924964074626,7.866342478169619,9.965052731558988,-3.0190662876402037,71.50199999997858
313444.2947,12.916450718580496,7.826456742575025,10.144945834025169,-3.144772401899395,71.50300000002608
313444.2957,12.08917215330528,6.978080726738836,9.455081993946278,-3.8001364655659042,71.50400000001537
313444.2967,10.355157863205852,5.315104406056189,7.882117205187719,-4.984739367990811,71.50500000000466
313444.2977,7.798677729340407,2.918591058400249,5.50252585899024,-6.625400736839728,71.50599999999395
313444.2987,4.589390667359472,-0.0486844893630062,2.4770754928341203,-8.581997146667069,71.50699999998324
313444.2997,0.9679620542195754,-3.3559985465213042,-0.9631410477679629,-10.660434189861006,71.50799999997253
313444.3007,-2.7755466993478173,-6.725462458408383,-4.53779350351627,-12.631522559599052,71.50900000002002
313444.3017,-6.328456683115743,-9.857849280276815,-7.943495231016603,-14.253912418967465,71.51000000000931
313444.3027,-9.384841070261345,-12.460977920864924,-10.882543590053292,-15.298825296293062,71.5109999999986
313444.3037,-11.674642418983794,-14.27790451646088,-13.09142647438202,-15.574129720416417,71.51199999998789
313444.3047,-12.989705645419376,-15.112174206033869,-14.366315420608363,-14.945355174494738,71.51299999997718
313444.3057,-13.204182808031188,-14.847658395425205,-14.583051383847598,-13.35152439775837,71.51400000002468
313444.3067,-12.287303174288844,-13.461016905385982,-13.709659209617545,-10.814179025415154,71.51500000001397
313444.3077,-10.307236346406107,-11.025531240954932,-11.810149413473406,-7.4386298785633835,71.51600000000326
313444.3087,-7.425636027296127,-7.705885879145704,-9.039210586579417,-3.4072168880798537,71.51699999999255
313444.3097,-3.8833535105239174,-3.74434807816852,-5.628280089411435,1.0348589501241179,71.51799999998184
313444.3107,0.021334753358482235,0.560371853951034,-1.8643182894159633,5.599844043267064,71.51899999997113
313444.3117,3.9599155954225367,4.879589680194464,1.9366793959204214,9.981991635363347,71.52000000001863
313444.3127,7.603648632864784,8.883939663662261,5.458887254475746,13.88406305936818,71.52100000000792
313444.3137,10.653528716382633,12.272710903671618,8.415762125149126,17.043265428805533,71.5219999999972
313444.3147,12.867338568563738,14.800444140906322,10.576265869666614,19.254167053415657,71.5229999999865
313444.3157,14.081212316388996,16.298271254551516,11.78568180396813,20.386417154467807,71.52399999997579
313444.3167,14.223664537480246,16.68798914536557,11.97903713027271,20.39559280530361,71.52500000002328
313444.3177,13.320771738174919,15.98756331897516,11.185864446705578,19.32615524523048,71.52600000001257
313444.3187,11.492052410306417,14.307585669354088,9.525879298343582,17.306255706398627,71.52700000000186
313444.3197,8.937494130148215,11.839084905333314,7.196034992799219,14.534913890161999,71.52799999999115
313444.3207,5.917033527912897,8.83392162370208,4.450254122169033,11.2628240118635,71.52899999998044
313444.3217,2.7245237391779975,5.579712055658885,1.5738465181472876,7.768652670762469,71.52999999996973
313444.3227,-0.3412468946807015,2.371745752612903,-1.144863643381377,4.333120413781616,71.53100000001723
313444.3237,-3.0056430962634693,-0.5153576452235374,-3.4429132226886217,1.2133632084638426,71.53200000000652
313444.3247,-5.044536188268379,-2.8534958736894316,-5.108297139773023,-1.3799686165553526,71.53299999999581
313444.3257,-6.305359109481547,-4.481936602541275,-6.0002859920647245,-3.300694075199589,71.5339999999851
313444.3267,-6.720827460590352,-5.321177028104315,-6.0624877279279055,-4.478477336286668,71.53499999997439
313444.3277,-6.314017977471233,-5.378507734174339,-5.327394567627684,-4.922558147735205,71.53600000002189
313444.3287,-5.194349873707661,-4.744799272125099,-3.911996906232528,-4.717552127159485,71.53700000001118
313444.3297,-3.544911989766289,-3.5828964983047027,-2.004926864712829,-4.011814942136111,71.53800000000047
313444.3307,-1.6024316516137849,-2.1088327154556055,0.15357089883515898,-2.999592976807285,71.53899999998976
313444.3317,0.36809403415334185,-0.5677820644841318,2.2968364191903428,-1.898790181329554,71.53999999997905
313444.3327,2.1015580958053652,0.7928147829419965,4.15964512463202,-0.9266070551626979,71.54100000002654
313444.3337,3.3608735904088993,1.7502403448884896,5.50593482711095,-0.27551146824185846,71.54200000001583
313444.3347,3.9622551000575275,2.1308853202022093,6.153642304703848,-0.09196241384465477,71.54300000000512
313444.3357,3.7951138274854976,1.829568033666184,5.9941654393745125,-0.46003069346292036,71.54399999999441
313444.3367,2.8345587665313174,0.8218295434360491,5.004494121998477,-1.391572203896325,71.5449999999837
313444.3377,1.1452250758585552,-0.8320589361582887,3.250773407903994,-2.823957880715807,71.54599999997299
313444.3387,-1.1239937610846114,-2.991819026669475,0.8829051954271039,-4.625613413711176,71.54700000002049
313444.3397,-3.7538349840820584,-5.450196069584452,-1.8793225385122527,-6.608845304253247,71.54800000000978
313444.3407,-6.47584850461801,-7.953050423339358,-4.767253686134081,-8.548703930177108,71.54899999999907
313444.3417,-8.998818987445643,-10.224558044433843,-7.489496190826192,-10.206030333430633,71.54999999998836
313444.3427,-11.0378508330282,-11.995056026948623,-9.760625823048835,-11.352410838544204,71.55099999997765
313444.3437,-12.343265973020705,-13.028796537758573,-11.329657333071763,-11.79456399123162,71.55200000002515
313444.3447,-12.726470161093813,-13.1488682242271,-12.005491161441954,-11.395727494760413,71.55300000001444
313444.3457,-12.08022760433892,-12.256808375806253,-11.676829325194046,-10.091894864596505,71.55400000000373
313444.3467,-10.391318869579083,-10.344936284108671,-10.324584928837968,-7.901245079380187,71.55499999999302
313444.3477,-7.744290994677569,-7.5001389748560525,-8.025534318698886,-4.925765525223734,71.5559999999823
313444.3487,-4.315870148210224,-3.8986664390434163,-4.946808591091339,-1.3448249449293064,71.5569999999716
313444.3497,-0.3605120401125052,0.20763592629854397,-1.3317093064886614,2.598764896941036,71.55800000001909
313444.3507,3.8115746549434424,4.51239970648432,2.5218247922159875,6.618928874922138,71.55900000000838
313444.3517,7.861865235565698,8.681143818549915,6.288059655475727,10.410870433287505,71.55999999999767
313444.3527,11.453818321527216,12.380537527673289,9.643060348588604,13.6776692586368,71.56099999998696
313444.3537,14.283160191447397,15.307753394244026,12.294214559051403,16.156424063269508,71.56199999997625
313444.3547,16.105276308214034,17.217137890163947,14.006868577746985,17.641469041756558,71.56300000002375
313444.3557,16.75711091517607,17.94168655723436,14.625539478715252,18.002471223738052,71.56400000001304
313444.3567,16.171506075461267,17.407312865803792,14.087693562225052,17.195706865204556,71.56500000000233
313444.3577,14.382641985140676,15.638596123153587,12.428801963069652,15.26747027854508,71.56599999999162
313444.3587,11.522099486329067,12.75551573435058,9.77822918088439,12.349324160927893,71.56699999998091
313444.3597,7.805969593204608,8.961546478052583,6.346396612926993,8.645682846504094,71.5679999999702
313444.3607,3.5142953709535716,4.524317540145214,2.4045044293532296,4.414952743239504,71.5690000000177
313444.3617,-1.0351351551875014,-0.2492538663506066,-1.7411907163186446,-0.05393379868167668,71.57000000000698
313444.3627,-5.516091543466253,-5.040924215190741,-5.778027125005069,-4.467323226104182,71.57099999999627
313444.3637,-9.623460884326365,-9.549470445562942,-9.415732926956426,-8.55250644701763,71.57199999998556
313444.3647,-13.100220148233337,-13.516697123515883,-12.412580793409136,-12.080799952308247,71.57299999997485
313444.3657,-15.759246600229728,-16.748631275991155,-14.596393027779442,-14.885867319251842,71.57400000002235
313444.3667,-17.497913134247796,-19.129925019860202,-15.878406331472313,-16.875587510060395,71.57500000001164
313444.3677,-18.304135458004968,-20.630170683665884,-16.25871753937113,-18.036421248315875,71.57600000000093
313444.3687,-18.253385993272975,-21.301641577386636,-15.822866624751635,-18.429971346523892,71.57699999999022
313444.3697,-17.49708167449837,-21.268823989975566,-14.729989062289137,-18.182203825182533,71.57799999997951
313444.3707,-16.243601818534543,-20.71091828020876,-13.193800087001883,-17.466518181470423,71.57900000002701
313444.3717,-14.733914551602366,-19.839179048598133,-11.458376920597832,-16.48245636736628,71.5800000000163
313444.3727,-13.214315105289453,-18.871468256610292,-9.771212628518944,-15.43226196758218,71.58100000000559
313444.3737,-11.909055295448951,-18.006661345000403,-8.356277211302597,-14.497702464006801,71.58199999999488
313444.3747,-10.995643840791892,-17.401548930006772,-7.389812299256175,-13.81952880741503,71.58299999998417
313444.3757,-10.585322146826341,-17.152615585043485,-6.98130656810139,-13.481671905470495,71.58399999997346
313444.3767,-10.71069713973497,-17.28457861724007,-7.161577441920069,-13.501792427811008,71.58500000002095
313444.3777,-11.32179342889638,-17.746883130929227,-7.879172344214572,-13.829156413970724,71.58600000001024
313444.3787,-12.290942542295365,-18.418543102654098,-9.005470005234681,-14.350068268899578,71.58699999999953
313444.3797,-13.426040561661907,-19.120871601862458,-10.347991293293774,-14.900328131481308,71.58799999998882
313444.3807,-14.490864650298134,-19.63684059618985,-11.670605649152032,-15.283467953146053,71.58899999997811
313444.3817,-15.230426711889784,-19.73513162737087,-12.718624742262913,-15.292930499407468,71.59000000002561
313444.3827,-15.398829116633252,-19.19645056723977,-13.24627806400694,-14.735946442289775,71.5910000000149
313444.3837,-14.786823921732678,-17.839431430432,-13.043815062255765,-13.45667752161695,71.59200000000419
313444.3847,-13.246289610086805,-15.543471022557535,-11.961500108090174,-11.356247396346927,71.59299999999348
313444.3857,-10.709127274679549,-12.266117160705265,-9.928058380197285,-8.407571587066553,71.59399999998277
313444.3867,-7.19861354911965,-8.053151433256037,-6.9616644307419655,-4.66339590212608,71.59499999997206
313444.3877,-2.8319782753353575,-3.0402126972159578,-3.1722887586100157,-0.25661051396138407,71.59600000001956
313444.3887,2.186170451337085,2.5543690020729257,1.2449395217110766,4.607339786527131,71.59700000000885
313444.3897,7.579056191149695,8.444997158070018,6.024816310358625,9.665353360304852,71.59799999999814
313444.3907,13.020213565604376,14.301146610076335,10.854224708888042,14.617560490290412,71.59899999998743
313444.3917,18.161154233842876,19.774580818826553,15.399308652162391,19.15228972313968,71.59999999997672
313444.3927,22.661619776949017,24.5289213069764,19.33509094607772,22.972785458832632,71.60100000002421
313444.3937,26.219556669683623,28.26879151539175,22.37471741527142,25.823161906002195,71.6020000000135
313444.3947,28.597961242371053,30.76577535298697,24.29553124082284,27.511133270548584,71.6030000000028
313444.3957,29.646032311762088,31.878716279194325,24.959475815271848,27.925353340351343,71.60399999999208
313444.3967,29.312608099060576,31.56640881381462,24.325862237178303,27.045701423256393,71.60499999998137
313444.3977,27.65059991833566,29.8914503875034,22.455266780454632,24.9455172824219,71.60599999997066
313444.3987,24.81199641919166,27.014858312540024,19.50417345608291,21.785550861694063,71.60700000001816
313444.3997,21.03391514134185,23.18193339625797,15.710864486196959,17.800179233301186,71.60800000000745
313444.4007,16.617034933481882,18.70068340013044,11.373900757498445,13.27717703950451,71.60899999999674
313444.4017,11.898470048190227,13.91482554275118,6.825243452018948,8.532936574679775,71.60999999998603
313444.4027,7.221673735746669,9.17389911173128,2.4005781033716445,3.885460474852435,71.61099999997532
313444.4037,2.906234766116217,4.803287403397623,-1.590336234163316,-0.37234750022109075,71.61200000002282
313444.4047,-0.7795720907959158,1.0769467628421916,-4.890482445187146,-3.9966092760217844,71.61300000001211
313444.4057,-3.6409004485841616,-1.8046302146277937,-7.31704000066221,-6.811413038488867,71.6140000000014
313444.4067,-5.571060032254061,-3.7292037138742233,-8.775482496730309,-8.721055890889959,71.61499999999069
313444.4077,-6.557533667746183,-4.679020433967553,-9.265043364287353,-9.714532427395815,71.61599999997998
313444.4087,-6.678813348044641,-4.728014379599804,-8.875118392437546,-9.861967820816602,71.61700000002747
313444.4097,-6.092481929863501,-4.030369942661889,-7.77305638012799,-9.303474298460689,71.61800000001676
313444.4107,-5.015818856706161,-2.8016734764965574,-6.184624962075154,-8.23163956032907,71.61900000000605
313444.4117,-3.7009319806506924,-1.2945879010982855,-4.369145869984289,-6.869463725600471,71.61999999999534
313444.4127,-2.406942419479478,0.22849809187008258,-2.591803657365256,-5.445988724657796,71.62099999998463
313444.4137,-1.3720243264955132,1.5231188652249457,-1.0958946913124148,-4.1720693991943945,71.62199999997392
313444.4147,-0.7880998938676971,2.3879430738726577,-0.07777368008693998,-3.218699439112956,71.62300000002142
313444.4157,-0.7807124188458684,2.6850711519663397,0.33302545946654394,-2.7000318635904854,71.62400000001071
313444.4167,-1.3960744734696966,2.353444055160643,0.08654105445075122,-2.662750494260587,71.625
313444.4177,-2.5965661318438475,1.414081542172111,-0.7832311670113316,-3.082803773800471,71.62599999998929
313444.4187,-4.265111083106169,-0.0333146644485966,-2.1627223110557674,-3.8697691921478876,71.62699999997858
313444.4197,-6.217969818585863,-1.821997040647233,-3.8714730142094966,-4.878348901376331,71.62800000002608
313444.4207,-8.22464652505388,-3.736832633365543,-5.681817159831471,-5.925780596852769,71.62900000001537
313444.4217,-10.032892912706503,-5.5380747940914326,-7.343571520799189,-6.813353109470336,71.63000000000466
313444.4227,-11.396278344959837,-6.987825721345119,-8.611236100918997,-7.349802070306005,71.63099999999395
313444.4237,-12.10153211021907,-7.876501361801284,-9.27095659082144,-7.374168379466999,71.63199999998324
313444.4247,-11.99287668808993,-8.046608345699777,-9.16451878966519,-6.775750148235822,71.63299999997253
313444.4257,-10.990859447815339,-7.411406886641071,-8.207933389723856,-5.509062729750154,71.63400000002002
313444.4267,-9.103726319777453,-5.966537943319462,-6.402699958000732,-3.602213620465028,71.63500000000931
313444.4277,-6.430112195381442,-3.7933878389797373,-3.838559283836586,-1.1577511041777362,71.6359999999986
313444.4287,-3.1526775054055935,-1.0537806751368632,-0.6873828181812851,1.6542065559414103,71.63699999998789
313444.4297,0.47678524130934263,2.0235520423662723,2.811275725446128,4.609984374204802,71.63799999997718
313444.4307,4.159405050802302,5.163458570288803,6.371614521244533,7.452212753538087,71.63900000002468
313444.4317,7.576361572848631,8.069851134613215,9.687955110657557,9.913652591506196,71.64000000001397
313444.4327,10.418492380803604,10.453724789288845,12.463505752776019,11.742688214989025,71.64100000000326
313444.4337,12.415520896443475,12.060986628847093,14.438722593390542,12.728007409061851,71.64199999999255
313444.4347,13.362066086182674,12.697375891358021,15.416499289707536,12.720044888490685,71.64299999998184
313444.4357,13.137891261326724,12.24802695057201,15.281711784108499,11.647060457420762,71.64399999997113
313444.4367,11.720394738516331,10.689739027242284,14.01318383701601,9.524227670639306,71.64500000001863
313444.4377,9.188086972433284,8.094718810245425,11.686868378464403,6.454774321648893,71.64600000000792
313444.4387,5.71466499176803,4.625386522004546,8.4698886774111,2.622977970948905,71.6469999999972
313444.4397,1.5542012335189659,0.5207017467509437,4.605968940646408,-1.7203961187615158,71.6479999999865
313444.4407,-2.98117814531345,-3.9247120862753127,0.3936197493514049,-6.278897270585199,71.64899999997579
313444.4417,-7.5490243886596815,-8.386666772023272,-3.840851977074242,-10.73550992812918,71.65000000002328
313444.4427,-11.807082436434595,-12.540247317635227,-7.772934937716612,-14.779750352517322,71.65100000001257
313444.4437,-15.443698914683935,-16.088639039347033,-11.109279689382777,-18.134202952977624,71.65200000000186
313444.4447,-18.205239403831776,-18.78919640485217,-13.61403219088386,-20.578010126667145,71.65299999999115
313444.4457,-19.917922892942844,-20.47427609149901,-15.129621208248546,-21.965120048942765,71.65399999998044
313444.4467,-20.50202263644375,-21.0648675439561,-15.590023999825306,-22.235599464535152,71.65499999996973
313444.4477,-19.97712214636876,-20.57575611446713,-15.025264465211455,-21.41898437283833,71.65600000001723
313444.4487,-18.45798066708026,-19.111777974659073,-13.556748420481641,-19.62940583790653,71.65700000000652
313444.4497,-16.141469797493265,-16.855591763739298,-11.383928867080842,-17.053016643258974,71.65799999999581
313444.4507,-13.285903527246912,-14.04821469316256,-8.76363338487078,-13.928980474078063,71.6589999999851
313444.4517,-10.184814037108234,-10.964270117494467,-5.984094231734819,-10.525897226199115,71.65999999997439
313444.4527,-7.137754193633264,-7.8844010906539586,-3.3362303132844837,-7.115966547061999,71.66100000002189
313444.4537,-4.420983510195604,-5.067570668102949,-1.0849894049131008,-3.949395399158639,71.66200000001118
313444.4547,-2.2608909732582316,-2.725968878326218,0.5564562166453483,-1.2315148914054834,71.66300000000047
313444.4557,-0.8127263990689941,-1.0049787658080895,1.447155463619794,0.8952086755810862,71.66399999998976
313444.4567,-0.14667997662038595,0.02985374174946205,1.531492271547287,2.36257575072164,71.66499999997905
313444.4577,-0.24261991062708457,0.3975990640471577,0.8437183474584138,3.180431067172193,71.66600000002654
313444.4587,-0.9939424353273267,0.19804419525169664,-0.49649968519560006,3.4325335560573635,71.66700000001583
313444.4597,-2.2200909885687077,-0.4004544843208544,-2.2970406440203224,3.265014320562197,71.66800000000512
313444.4607,-3.6864500551006363,-1.1801183547239613,-4.313484524356304,2.868645610156723,71.66899999999441
313444.4617,-5.129597486574354,-1.897954329419895,-6.2744477219677925,2.4567481879672943,71.6699999999837
313444.4627,-6.285377528577322,-2.312583985470662,-7.909577140418341,2.240987120051958,71.67099999997299
313444.4637,-6.916986139830174,-2.2109958263555614,-8.97742616050272,2.4075057455433373,71.67200000002049
313444.4647,-6.840266586471147,-1.4325298255218333,-9.290452145165403,3.095805251274517,71.67300000000978
313444.4657,-5.94369561934805,0.11232372880738666,-8.73466299059032,4.382497490725661,71.67399999999907
313444.4667,-4.201070595361437,2.4302175982048713,-7.281970648679859,6.271569366118052,71.67499999998836
313444.4677,-1.675633201500474,5.441539936804784,-4.9940302113091,8.6921466754979,71.67599999997765
313444.4687,1.4847856106135142,8.985693160952485,-2.0171831236911673,11.503998014091037,71.67700000002515
313444.4697,5.06112593139221,12.834588707147388,1.4310001994594599,14.510248761997715,71.67800000001444
313444.4707,8.783649471632893,16.713074215004333,5.0822557685243295,17.4760572619132,71.67900000000373
313444.4717,12.357654314135827,20.32432209069807,8.643220138741128,20.151410646836787,71.67999999999302
313444.4727,15.491816821092868,23.377713671653357,11.823566242552836,22.2957849317646,71.6809999999823
313444.4737,17.926363177417755,25.616500025743626,14.363913969078686,23.702223572404645,71.6819999999716
313444.4747,19.458288539467933,26.84253380270452,16.060770813945975,24.218439498810852,71.68300000001909
313444.4757,19.961131676064596,26.935645405355846,16.786050193078278,23.762832738123542,71.68400000000838
313444.4767,19.3973487871787,25.865753928893707,16.499248504242253,22.333811021960624,71.68499999999767
313444.4777,17.822059135312667,23.696508317019877,15.251084289007169,20.01145565022915,71.68599999998696
313444.4787,15.377785487299354,20.58007805871667,13.178242918058066,16.951325083616986,71.68699999997625
313444.4797,12.280700434826684,16.74357486844951,10.489745542498033,13.370960603316204,71.68800000002375
313444.4807,8.799727987411451,12.468402735678456,7.446285593502094,9.530376086721777,71.68900000001304
313444.4817,5.230555801718099,8.064523557965309,4.33456880613057,5.708406954887243,71.69000000000233
313444.4827,1.8671173787720894,3.842121661935247,1.4391854428467201,2.17720330194389,71.69099999999162
313444.4837,-1.0266443075009977,0.08340418923424055,-0.9852124394158754,-0.8226613052962815,71.69199999998091
313444.4847,-3.24194510069837,-2.982739377450752,-2.738684356694604,-3.104049394481602,71.6929999999702
313444.4857,-4.644772882400392,-5.20077513433609,-3.695279690169063,-4.54996389136529,71.6940000000177
313444.4867,-5.188004118779118,-6.501335449063012,-3.814914780197946,-5.123474252346741,71.69500000000698
313444.4877,-4.914819927309013,-6.905584692016157,-3.146670472152017,-4.869901766036131,71.69599999999627
313444.4887,-3.9530757781198336,-6.520748284243768,-1.8231764232529124,-3.911056604491629,71.69699999998556
313444.4897,-2.5011727938428683,-5.52727761100852,-0.04662719364974608,-2.432095552984449,71.69799999997485
313444.4907,-0.8068205392775422,-4.158941290134417,1.932198339400361,-0.6622907975569385,71.69900000002235
313444.4917,0.8592116957932148,-2.677824803630685,3.8398496120610863,1.148403981136007,71.70000000001164
313444.4927,2.2317556208170113,-1.3467178529991775,5.408492976920263,2.754692108145274,71.70100000000093
313444.4937,3.079469138374222,-0.40162321739042767,6.403778959880302,3.9406915384146113,71.70199999999022
313444.4947,3.2298098628450673,-0.02710737736156703,6.64952387447289,4.541681760303771,71.70299999997951
313444.4957,2.588249254573563,-0.33693293625943044,6.046746013255084,4.460703501944483,71.70400000002701
313444.4967,1.1497755869486301,-1.3618932628117517,4.58514326583226,3.678377351903876,71.7050000000163
313444.4977,-0.9985164819647953,-3.0460615801541184,2.3458346202728455,2.254970204122273,71.70600000000559
313444.4987,-3.684081714607372,-5.25183921444161,-0.5049591241866777,0.3244967380173051,71.70699999999488
313444.4997,-6.664251408015626,-7.773321878715739,-3.730733256619983,-1.918577131012969,71.70799999998417
313444.5007,-9.648804448250772,-10.356683478631952,-7.046619378664827,-4.238736950209955,71.70899999997346
313444.5017,-12.32763793236415,-12.725584244876558,-10.146311950019399,-6.383037399582945,71.71000000002095
313444.5027,-14.400882640126126,-14.60911190626315,-12.731408431085724,-8.106628706991495,71.71100000001024
313444.5037,-15.608555232084417,-15.769509976990921,-14.540325394187818,-9.197695378290287,71.71199999999953
313444.5047,-15.756867845035728,-16.026961091028678,-15.37398413662932,-9.49936407960967,71.71299999998882
313444.5057,-14.738624501985552,-15.278974463114649,-15.115763851430952,-8.92642908039868,71.71399999997811
313444.5067,-12.545692892904137,-13.512447633348273,-13.743768886698732,-7.4752450974915545,71.71500000002561
313444.5077,-9.272295618188126,-10.807182840421223,-11.334195808278082,-5.225799738091673,71.7160000000149
313444.5087,-5.108743743581637,-7.3304683569496625,-8.055443992200141,-2.335736391539608,71.71700000000419
313444.5097,-0.3261522749020043,-3.323203890731689,-4.153506818312494,0.9731206389216401,71.71799999999348
313444.5107,4.746457027214231,0.9211280940170322,0.0699777386592974,4.434459883865022,71.71899999998277
313444.5117,9.750529215244873,5.082646845421631,4.284930137165317,7.761514053617137,71.71999999997206
313444.5127,14.32916479787188,8.843913109192663,8.162693165580842,10.673128602155728,71.72100000001956
313444.5137,18.15819377693402,11.91866477113198,11.405709734215739,12.919372001606458,71.72200000000885
313444.5147,20.974219518053655,14.077698284270129,13.77418948367033,14.304239829347631,71.72299999999814
313444.5157,22.59701185128924,15.169422518981774,15.107234775567546,14.703290155952466,71.72399999998743
313444.5167,22.944175612487456,15.133128552780274,15.336436962577213,14.074542703952089,71.72499999997672
313444.5177,22.036766059811224,14.003725363166534,14.49068594278341,12.46163019568539,71.72600000002421
313444.5187,19.995393550375113,11.907518320203913,12.691788319506816,9.988942920498651,71.7270000000135
313444.5197,17.027271733410213,9.049473997526356,10.141378788423115,6.849283157002874,71.7280000000028
313444.5207,13.405527671464718,5.6932365283644355,7.100448925946461,3.285268868534491,71.72899999999208
313444.5217,9.442824929052192,2.1358574001814694,3.8635255967953115,-0.43367448470098297,71.72999999998137
313444.5227,5.4618809631596195,-1.320295603097673,0.7300389410205411,-4.036477449432632,71.73099999997066
313444.5237,1.7657372092188,-4.395722503546575,-2.024321767446668,-7.275293255349235,71.73200000001816
313444.5247,-1.3893619780589668,-6.8593452363425955,-4.173481816118335,-9.947660689361376,71.73300000000745
313444.5257,-3.815905604789611,-8.548979348071466,-5.561589278060496,-11.913837058409552,71.73399999999674
313444.5267,-5.409821384743329,-9.3847803177658,-6.116393295838609,-13.107663508796685,71.73499999998603
313444.5277,-6.156630500079396,-9.37441939855898,-5.854148939562008,-13.539972341706243,71.73599999997532
313444.5287,-6.128583431885195,-8.609561376533083,-4.875645409404677,-13.294288259868505,71.73700000002282
313444.5297,-5.473200669560066,-7.254073356967652,-3.35383114837716,-12.515339389574383,71.73800000001211
313444.5307,-4.394487355996239,-5.525205468860538,-1.5143365772327586,-11.391604112193455,71.7390000000014
313444.5317,-3.12880634379361,-3.6696716048172977,0.3891085264212954,-10.1337062639631,71.73999999999069
313444.5327,-1.9179097552372415,-1.937053696104693,2.10186873274497,-8.950876440672422,71.74099999997998
313444.5337,-0.9818947851227248,-0.5532081951344334,3.3954638642036854,-8.027881226874772,71.74200000002747
313444.5347,-0.49483968815894375,0.3036563157058083,4.0917754219744635,-7.504767245453382,71.74300000001676
313444.5357,-0.5655923444320635,0.5218348084926586,4.081968304127555,-7.461478670353465,71.74400000000605
313444.5367,-1.2256551536436702,0.06802888667182988,3.33822921681277,-7.908913962152438,71.74499999999534
313444.5377,-2.4253890419086317,-1.0088930796100202,1.917142322673944,-8.787338959644869,71.74599999998463
313444.5387,-4.038917742475363,-2.582656334242203,-0.045641771424967295,-9.972333344719894,71.74699999997392
313444.5397,-5.877234732402456,-4.462388433388243,-2.3489181392900753,-11.287689180701209,71.74800000002142
313444.5407,-7.708186373573066,-6.412201061292975,-4.746277731766008,-12.523978806512924,71.74900000001071
313444.5417,-9.281308049903336,-8.17559269651258,-6.9712677795336155,-13.46093436350232,71.75
313444.5427,-10.354994491499703,-9.502235496492334,-8.764850039889405,-13.891389714800267,71.75099999998929
313444.5437,-10.7232402604547,-10.174465926891871,-9.902408302492315,-13.64436650415395,71.75199999997858
313444.5447,-10.239216080351751,-10.03081952581654,-10.217592146775356,-12.604956700499606,71.75300000002608
313444.5457,-8.833248754272157,-8.984233931747392,-9.620588108724007,-10.728957696291243,71.75400000001537
313444.5467,-6.523317406992404,-7.033063252078879,-8.10895252456769,-8.050723412670859,71.75500000000466
313444.5477,-3.416913304358386,-4.263750215493733,-5.769869203942157,-4.683356369735008,71.75599999999395
313444.5487,0.29603759231088755,-0.8448213936681869,-2.7735382586844888,-0.8111165343482438,71.75699999998324
313444.5497,4.35860468566699,2.987275243584494,0.6417229202932915,3.3253106879200502,71.75799999997253
313444.5507,8.469218919605957,6.94916592569123,4.191265373370427,7.449338002740588,71.75900000002002
313444.5517,12.308862492439976,10.736377965937242,7.570694869759405,11.272864244245927,71.76000000000931
313444.5527,15.570478114756485,14.05151332547504,10.484690567247668,14.522208239250096,71.7609999999986
313444.5537,17.987756032860222,16.632043815439342,12.675256259542945,16.963103444053296,71.76199999998789
313444.5547,19.360497015310084,18.27502877056953,13.946646715189829,18.42234381570676,71.76299999997718
313444.5557,19.574064179490424,18.856346134452764,14.184524154842567,18.803982149139184,71.76400000002468
313444.5567,18.610995910718305,18.3425542632202,13.36745266072886,18.098498335619883,71.76500000001397
313444.5577,16.553602146669007,16.79421322987951,11.569577624231407,16.384026763278495,71.76600000000326
313444.5587,13.577234128354108,14.360321654700487,8.954191225795261,13.81949419719292,71.76699999999255
313444.5597,9.934818840421588,11.26438734441864,5.758770099101251,10.630297835533213,71.76799999998184
313444.5607,5.9340958440786915,7.783463027700915,2.272901280666136,7.087872044416705,71.76899999997113
313444.5617,1.9097032968285046,4.222162696612355,-1.1887938982566901,3.4850814516889326,71.77000000001863
313444.5627,-1.8072378023247557,0.8841625026380409,-4.316139097964332,0.10978012354255878,71.77100000000792
313444.5637,-4.919146057105504,-1.9560650924315635,-6.832449698815637,-2.7809478495453703,71.7719999999972
313444.5647,-7.1887482690214215,-4.0785582500033515,-8.520350156188805,-4.983419126275401,71.7729999999865
313444.5657,-8.46004580917959,-5.337776874079389,-9.241876342126137,-6.364711314477256,71.77399999997579
313444.5667,-8.67149009369553,-5.675207449014614,-8.95093053942854,-6.873123538612858,71.77500000002328
313444.5677,-7.860131452603874,-5.123463918684912,-7.6968983858896465,-6.540778882256065,71.77600000001257
313444.5687,-6.156378722761875,-3.801516522306897,-5.6190947906539686,-5.478173189256929,71.77700000000186
313444.5697,-3.7699150523753784,-1.9015458817912214,-2.9325960469463226,-3.8612557741753415,71.77799999999115
313444.5707,-0.9681702316324173,0.33126375157337906,0.0931487823263826,-1.9123506425692176,71.77899999998044
313444.5717,1.9505319349556596,2.623990164874792,3.160834183583737,0.1231786122131419,71.77999999996973
313444.5727,4.686521127104953,4.703803707614442,5.974353463675832,2.0022089298553984,71.78100000001723
313444.5737,6.968137712233756,6.325620535983679,8.267561085815725,3.508589655571121,71.78200000000652
313444.5747,8.578040742424179,7.296856737360493,9.8299433533932,4.474894785097439,71.78299999999581
313444.5757,9.373912795451016,7.496848243134452,10.526704912174303,4.799063780490317,71.7839999999851
313444.5767,9.30156153174458,6.889026646360239,10.311327772320062,4.454307032366687,71.78499999997439
313444.5777,8.399166354940068,5.524653370699856,9.229398090815945,3.4913184581080228,71.78600000002189
313444.5787,6.792288579858677,3.53774441385413,7.413351557295949,2.03259739847846,71.78700000001118
313444.5797,4.680169957569071,1.1316839112716344,5.068677203766409,0.25946049627008627,71.78800000000047
313444.5807,2.314698653731342,-1.4411577491702106,2.4529548700374657,-1.606954654725333,71.78899999998976
313444.5817,-0.02585969310467441,-3.904796650246159,-0.15019828225447726,-3.3287992668722675,71.78999999997905
313444.5827,-2.065755625277759,-5.987501526709,-2.4597003333670355,-4.676434854195537,71.79100000002654
313444.5837,-3.560407469219104,-7.449407703993194,-4.225280050914371,-5.4526840407160355,71.79200000001583
313444.5847,-4.321968621098663,-8.10715364182049,-5.252670641328528,-5.513991343732607,71.79300000000512
313444.5857,-4.239271319856724,-7.853102462641246,-5.423241563180254,-4.78637540717338,71.79399999999441
313444.5867,-3.2901596375528475,-6.667237346823222,-4.706135280651151,-3.274563296767388,71.7949999999837
313444.5877,-1.5449711387784244,-4.620533743512524,-3.1617120790692073,-1.063365123237629,71.79599999997299
313444.5887,0.8392049134414602,-1.8694432122094464,-0.9359592747902519,1.6888919019920046,71.79700000002049
313444.5897,3.6329597713235633,1.358007926254641,1.7535922393094094,4.76427131846254,71.79800000000978
313444.5907,6.556301452031458,4.7831819725779905,4.639067961543183,7.905156553179213,71.79899999999907
313444.5917,9.30559053969652,8.102840677286988,7.428491832153749,10.838287037301571,71.79999999998836
313444.5927,11.583058395737828,11.017693638879175,9.834500879905228,13.300579744991326,71.80099999997765
313444.5937,13.126033494700064,13.260723678232129,11.602719517692691,15.064233694504953,71.80200000002515
313444.5947,13.733025072150902,14.622546964872626,12.53701241499139,15.958678195829318,71.80300000001444
313444.5957,13.284115000503464,14.97135134418047,12.519138872653576,15.887226948340961,71.80400000000373
313444.5967,11.753659259795388,14.265481388078944,11.52087791417721,14.836810146005392,71.80499999999302
313444.5977,9.214045718442547,12.55745187412623,9.607428365601068,12.879825799216006,71.8059999999823
313444.5987,5.830122348483767,9.98900303322647,6.9317400601615216,10.167914262594815,71.8069999999716
313444.5997,1.8448147579305796,6.777679791174643,3.720317617777896,6.918242049711401,71.80800000001909
313444.6007,-2.4426942708281505,3.1962385589017583,0.2518704258485255,3.393606129713451,71.80900000000838
313444.6017,-6.704130944987519,-0.4531212107755999,-3.169119858465967,-0.12173266557197462,71.80999999999767
313444.6027,-10.61203470454484,-3.867205070651375,-6.241347899448031,-3.3481669495879296,71.81099999998696
313444.6037,-13.86953190391288,-6.770200896490162,-8.695338832492785,-6.036304997622847,71.81199999997625
313444.6047,-16.237128729687445,-8.939248738424215,-10.319027914302932,-7.989530288356245,71.81300000002375
313444.6057,-17.553968855004296,-10.224746723039697,-10.977787552510401,-9.081406976367125,71.81400000001304
313444.6067,-17.751545012144927,-10.563455712826089,-10.626967269450667,-9.266284929759443,71.81500000000233
313444.6077,-16.858591838041608,-9.983172505242525,-9.315744219624229,-8.582122324972342,71.81599999999162
313444.6087,-14.99674758043793,-8.598566939447227,-7.181930589222104,-7.145302440465282,71.81699999998091
313444.6097,-12.367470273667236,-6.598641477459383,-4.4382664499196665,-5.1380000318376435,71.8179999999702
313444.6107,-9.231541946310736,-4.227088143259291,-1.3515560837417067,-2.7893753999917608,71.8190000000177
313444.6117,-5.883209468688963,-1.7575073172979543,1.7832986673990499,-0.35247041874894225,71.82000000000698
313444.6127,-2.621523066189729,0.5340515412375116,4.671820791473836,1.9209077534812222,71.82099999999627
313444.6137,0.2783064710512909,2.3965139028557236,7.04824531013945,3.8048427927013835,71.82199999998556
313444.6147,2.59072825269029,3.6284690823867676,8.700810300811828,5.121088582181264,71.82299999997485
313444.6157,4.160338372435417,4.0977028471942125,9.491591097782587,5.755848030560832,71.82400000002235
313444.6167,4.915061087856828,3.7536685277390247,9.368958129919926,5.6699281404736634,71.82500000001164
313444.6177,4.870782733196803,2.631693915477491,8.371467425579771,4.901307222454024,71.82600000000093
313444.6187,4.127048608534922,0.8485409451973136,6.622837251254032,3.5599028309325966,71.82699999999022
313444.6197,2.8543211800338,-1.410208581174231,4.318541711367029,1.8151012411646146,71.82799999997951
313444.6207,1.274135016658245,-3.9096594023030735,1.705376294552965,-0.12267483310238479,71.82900000002701
313444.6217,-0.3658124454090274,-6.390038150002715,-0.9439595658422053,-2.0244944243309404,71.8300000000163
313444.6227,-1.8190942489542208,-8.593607309230682,-3.358729531151747,-3.6672720104722423,71.83100000000559
313444.6237,-2.867722352911231,-10.291362409423147,-5.297704928189792,-4.857496197698098,71.83199999999488
313444.6247,-3.3462897189332077,-11.306838250959744,-6.573649100858871,-5.451944819112307,71.83299999998417
313444.6257,-3.1606260422939343,-11.534635314623419,-7.072307683769286,-5.3732958909008035,71.83399999997346
313444.6267,-2.2990528010672957,-10.951798996180061,-6.764014527969205,-4.6190486719633785,71.83500000002095
313444.6277,-0.8350595686617828,-9.620890726574814,-5.706752900229467,-3.2628311024922594,71.83600000001024
313444.6287,1.0789220256647691,-7.684411965821205,-4.040356094061661,-1.4479241181501952,71.83699999999953
313444.6297,3.2260817911874393,-5.351098698159329,-1.972407798082243,0.6263943711641631,71.83799999998882
313444.6307,5.346731963089488,-2.8754111508123517,0.2427756002928527,2.7243686275108865,71.83899999997811
313444.6317,7.164646465246028,-0.532221556679405,2.330011903965654,4.597243912212786,71.84000000002561
313444.6327,8.41564490392967,1.4108149684302778,4.021416306439783,6.008401300050145,71.8410000000149
313444.6337,8.87558743845662,2.7204826455924676,5.084074400289641,6.757670118284655,71.84200000000419
313444.6347,8.38498460905761,3.2221252033745476,5.344478438305031,6.702408074036379,71.84299999999348
313444.6357,6.867739345372796,2.8182624701828027,4.707290181349572,5.773244343951176,71.84399999998277
313444.6367,4.342096704661572,1.4998320659484616,3.1665434063439952,3.9828933693049247,71.84499999997206
313444.6377,0.9226262940275134,-0.6510999568125814,0.808135113636821,1.4271169617750084,71.84600000001956
313444.6387,-3.1870700881334613,-3.4674853531135645,-2.1966952474079315,-1.722325753131792,71.84700000000885
313444.6397,-7.710331881663723,-6.711758352527017,-5.606317787788522,-5.232121455566208,71.84799999999814
313444.6407,-12.320653774828296,-10.097266640758695,-9.130688374359606,-8.827898691198834,71.84899999998743
313444.6417,-16.669990199751457,-13.314633221980094,-12.458251717940596,-12.218844802002133,71.84999999997672
313444.6427,-20.419497255928775,-16.060527752977855,-15.285187530149159,-15.124106730192096,71.85100000002421
313444.6437,-23.26981203383032,-18.06608504460896,-17.344180858677248,-17.298460465962783,71.8520000000135
313444.6447,-24.988002720386213,-19.122236380621967,-18.429937268390407,-18.55479989793092,71.8530000000028
313444.6457,-25.428633695817886,-19.099513579650488,-18.418974014905682,-18.7812996825826,71.85399999999208
313444.6467,-24.546948045870696,-17.960417736852293,-17.281769552739274,-17.951618871685458,71.85499999998137
313444.6477,-22.4029213495651,-15.763162480324382,-15.086091879261346,-16.12718246759779,71.85599999997066
313444.6487,-19.155812255458144,-12.656435332025247,-11.991179301149378,-13.45134139909974,71.85700000001816
313444.6497,-15.049742522462726,-8.865689012237407,-8.233331951383583,-10.135993155843341,71.85800000000745
313444.6507,-10.391693745734413,-4.672292544031156,-4.104302429509778,-6.441969258896404,71.85899999999674
313444.6517,-5.524026974881243,-0.387559999499521,0.07543169722295687,-2.6550913523289723,71.85999999998603
313444.6527,-0.7941452123791751,3.6758343833453644,3.9859397978756888,0.9397929441198375,71.86099999997532
313444.6537,3.475822205270571,7.232299966987082,7.3368408969727685,4.084299828440225,71.86200000002282
313444.6547,7.016454734148797,10.048900277867718,9.893258086550933,6.569090118596775,71.86300000001211
313444.6557,9.633033783230857,11.965607135213498,11.496250632927127,8.251403451529185,71.8640000000014
313444.6567,11.220076625194965,12.908321641669353,12.075795409985245,9.0659128141842,71.86499999999069
313444.6577,11.76713124338665,12.89345777291934,11.655121756455516,9.027928568270228,71.86599999997998
313444.6587,11.355410469119334,12.02371273138915,10.346051233790918,8.228735798576967,71.86700000002747
313444.6597,10.14573838094964,10.475511408506877,8.335872935778637,6.823621703125905,71.86800000001676
313444.6607,8.359125349197233,8.479425646505424,5.867109809734294,5.013864935343204,71.86900000000605
313444.6617,6.251997852437081,6.295552860550434,3.212221136914719,3.024546143952206,71.86999999999534
313444.6627,4.088616079061492,4.186326075663757,0.6457734545818228,1.080440916278707,71.87099999998463
313444.6637,2.113467213437969,2.3894709490571415,-1.5831507174438886,-0.6175663228728461,71.87199999997392
313444.6647,0.5264008959807709,1.093801244237476,-3.27557287744703,-1.9131732853830588,71.87300000002142
313444.6657,-0.5370214535247665,0.42025512513659824,-4.301838773773017,-2.710380923347288,71.87400000001071
313444.6667,-1.0180301546468267,0.41004917741133895,-4.613554102726114,-2.982674585607921,71.875
313444.6677,-0.9387985938956037,1.021117060669366,-4.2470796413316565,-2.7747550605906235,71.87599999998929
313444.6687,-0.3978831001281154,2.1331750728778247,-3.318271618455175,-2.196659222048156,71.87699999997858
313444.6697,0.4425284642311456,3.5608988308617886,-2.0090250756109143,-1.410875727622349,71.87800000002608
313444.6707,1.376213236493717,5.0738881811293215,-0.5469941103436778,-0.613767109922732,71.87900000001537
313444.6717,2.177318060773871,6.4214207900939675,0.8194571843367532,-0.013185821654123846,71.88000000000466
313444.6727,2.627048214749096,7.359515259753092,1.8485425848074244,0.1954387415656317,71.88099999999395
313444.6737,2.5398806696934244,7.677589373265736,2.3318234858152627,-0.14789874153589797,71.88199999998324
313444.6747,1.7865823640644924,7.2220315115007425,2.1177498874160454,-1.1480533185631432,71.88299999997253
313444.6757,0.3116255021618287,5.91430043761455,1.1295765619876406,-2.8403282615590033,71.88400000002002
313444.6767,-1.8568555495813082,3.761701569993855,-0.6241895190244563,-5.182930654057162,71.88500000000931
313444.6777,-4.605681943340351,0.8597044403809623,-3.0479188688295573,-8.057144963008893,71.8859999999986
313444.6787,-7.744085642046682,-2.6145039095543123,-5.965827887623409,-11.275325709152668,71.88699999998789
313444.6797,-11.019382446006272,-6.41667266122088,-9.137172800892689,-14.596036786486104,71.88799999997718
313444.6807,-14.139417355616864,-10.256981418061345,-12.278239136222892,-17.74495363036831,71.88900000002468
313444.6817,-16.799650375370508,-13.826330413956818,-15.089018288507491,-20.43956532304313,71.89000000001397
313444.6827,-18.71227147208601,-16.824903042027984,-17.281989510532316,-22.41532404987375,71.89100000000326
313444.6837,-19.634508934266087,-18.990243562197048,-18.610204495155692,-23.450727823736305,71.89199999999255
313444.6847,-19.393348690305842,-20.122128360605842,-18.891924716231664,-23.38890556035294,71.89299999998184
313444.6857,-17.90420884593993,-20.101810495058185,-18.02938414574246,-22.153593997792882,71.89399999997113
313444.6867,-15.181682581605978,-18.903755338977966,-16.01981074315998,-19.757922998266647,71.89500000001863
313444.6877,-11.34121860150585,-16.59870763999792,-12.957584738717042,-16.305108615724915,71.89600000000792
313444.6887,-6.591478116351316,-13.34776689353719,-9.027267689576757,-11.980925849895943,71.8969999999972
313444.6897,-1.2180061870154328,-9.3880170730379,-4.4881201167687585,-7.038620294431685,71.8979999999865
313444.6907,4.4403045043929295,-5.011073719493779,0.3484490140477837,-1.7776434547771627,71.89899999997579
313444.6917,10.019779824362853,-0.5365965001528542,5.1463712227235625,3.4818101786808695,71.90000000002328
313444.6927,15.16289222448581,3.716698226807347,9.574735675302243,8.426082892019805,71.90100000001257
313444.6937,19.54864937847688,7.459750010226643,13.337096998047544,12.774594875462903,71.90200000000186
313444.6947,22.919589300383482,10.458846514220514,16.19748412073104,16.30316345466412,71.90299999999115
313444.6957,25.102851081363813,12.555845776717696,18.000639274311425,18.86192867965267,71.90399999998044
313444.6967,26.02335859264081,13.681012778535681,18.684574831780555,20.3862341206214,71.90499999996973
313444.6977,25.707912601700876,13.857274140934365,18.284279669033076,20.89949082165278,71.90600000001723
313444.6987,24.279861122399115,13.195529854981366,16.92626364395608,20.50782398874654,71.90700000000652
313444.6997,21.944923474759854,11.88153008779096,14.814515131530145,19.387091174951042,71.90799999999581
313444.7007,18.969592387388143,10.155643534494045,12.2092759286485,17.763590843405698,71.9089999999851
313444.7017,15.654247966531104,8.287531696049308,9.400729445297591,15.890380417035221,71.90999999997439
313444.7027,12.303618490290471,6.5482338430368685,6.680184588921948,14.021535155975828,71.91100000002189
313444.7037,9.19746709453942,5.182412578627219,4.311571837124517,12.386863715779025,71.91200000001118
313444.7047,6.56434691024109,4.383486123894578,2.5060270626527124,11.169535553374441,71.91300000000047
313444.7057,4.560953892935465,4.274083289857629,1.402026985152254,10.488775922984095,71.91399999998976
313444.7067,3.259047281071689,4.893729176892502,1.0529883947477197,10.389275785622754,71.91499999997905
313444.7077,2.641157172330944,6.19495578063567,1.4235056887390016,10.83829664674941,71.91600000002654
313444.7087,2.6054306152262847,8.048201858840498,2.394550094801677,11.73068968320338,71.91700000001583
313444.7097,2.979066851576449,10.255001899675278,3.777072600323405,12.90126909051219,71.91800000000512
313444.7107,3.538947058838626,12.568149450704729,5.3326273560364355,14.143257665960054,71.91899999999441
313444.7117,4.037356828449836,14.716835113379181,6.7989439287314966,15.230928794043912,71.9199999999837
313444.7127,4.230199843376243,16.43427115368793,7.917892565272335,15.944161137873705,71.92099999997299
313444.7137,3.9048576528916676,17.48507063083197,8.463053901353272,16.0924400921017,71.92200000002049
313444.7147,2.904886872034943,17.689672976814585,8.264145958909214,15.535900897214201,71.92300000000978
313444.7157,1.1490579317851402,16.943397593751456,7.225872618304167,14.201305883451552,71.92399999999907
313444.7167,-1.3572020141099281,15.22823379216955,5.339308369681461,12.091353034571638,71.92499999998836
313444.7177,-4.519150010416074,12.616187582361096,2.6846699435443857,9.286375078591849,71.92599999997765
313444.7187,-8.15917315686374,9.263833617494972,-0.5748258452747546,5.938242379418767,71.92700000002515
313444.7197,-12.031761142229442,5.398582835327644,-4.207440332150494,2.2570547956807316,71.92800000001444
313444.7207,-15.845583530001411,1.2979885660055763,-7.934327786138008,-1.5080785267947323,71.92900000000373
313444.7217,-19.290544646671766,-2.7359034979027026,-11.455802579977501,-5.09228691730275,71.92999999999302
313444.7227,-22.06719135783652,-6.40466988265563,-14.479894314542245,-8.239929221696986,71.9309999999823
313444.7237,-23.915608002277796,-9.441354709211597,-16.75039768717373,-10.728869114114955,71.9319999999716
313444.7247,-24.640972076385946,-11.635337617712935,-18.071669069453336,-12.391643098240198,71.93300000001909
313444.7257,-24.133260268901175,-12.851806614029178,-18.327736490729595,-13.131432545092544,71.93400000000838
313444.7267,-22.379156405656868,-13.043945395378195,-17.493843181940164,-12.93125975126059,71.93499999999767
313444.7277,-19.46496596866518,-12.256656746949494,-15.639282792099296,-11.855492359438305,71.93599999998696
313444.7287,-15.570212586332474,-10.621470680374408,-12.921234538189555,-10.043495287389666,71.93699999997625
313444.7297,-10.952495218414562,-8.343147050557196,-9.570185587458187,-7.6960404093452714,71.93800000002375
313444.7307,-5.925032450326875,-5.679293077513381,-5.868349771678518,-5.0557958720975025,71.93900000001304
313444.7317,-0.8290295707484641,-2.9149971143031053,-2.1231757807885163,-2.3837991859599756,71.94000000000233
313444.7327,3.9964943288945998,-0.33496448275512547,1.3614827359427,0.06578611972422674,71.94099999999162
313444.7337,8.244537080699542,1.8041181399653596,4.3137351689264785,2.0701603658676215,71.94199999998091
313444.7347,11.666755439650567,3.2982899297616157,6.51880649397749,3.4592264074715113,71.9429999999702
313444.7357,14.094384354424614,4.0156860428086,7.838536694242568,4.131686959986414,71.9440000000177
313444.7367,15.451458375827107,3.9086890314667606,8.223343758329449,4.0643231955332215,71.94500000000698
313444.7377,15.759110548952181,3.0176910276178677,7.715505491451892,3.3135450759355645,71.94599999999627
313444.7387,15.130592809948455,1.4661214976705572,6.44346571564086,2.0090613296483864,71.94699999998556
313444.7397,13.75756383766643,-0.5527461172928315,4.607749259768624,0.34028977999552673,71.94799999997485
313444.7407,11.88903734788088,-2.7958881387198793,2.459891343410653,-1.4631588670991014,71.94900000002235
313444.7417,9.805093239656323,-4.995526924755405,0.27647008038247073,-3.1550085165387443,71.95000000001164
313444.7427,7.787956605335196,-6.886551487812441,-1.6691910614949297,-4.4975463902116175,71.95100000000093
313444.7437,6.093296481668362,-8.233647762572842,-3.134857749814399,-5.286074150357608,71.95199999999022
313444.7447,4.9245635018603195,-8.855454345288237,-3.9340108907281133,-5.370176592678398,71.95299999997951
313444.7457,4.412876848978503,-8.64335399713722,-3.954836102732685,-4.669712508551974,71.95400000002701
313444.7467,4.604416681398927,-7.57304066596973,-3.1717036696741054,-3.1839470211100385,71.9550000000163
313444.7477,5.456533093356738,-5.707714193321499,-1.648005270679966,-0.9929143232135934,71.95600000000559
313444.7487,6.842919944852496,-3.1925802325483263,0.469935631024402,1.7491412251173095,71.95699999999488
313444.7497,8.567306283530383,-0.24119010467963176,2.9672842508766397,4.82762351616755,71.95799999998417
313444.7507,10.384277503150626,2.885039888895277,5.582029816784776,7.987406963061515,71.95899999997346
313444.7517,12.02513532042428,5.902116923939083,8.031137893216057,10.956703859443966,71.96000000002095
313444.7527,13.226209070751088,8.531079637515928,10.03894543163312,13.472662505580974,71.96100000001024
313444.7537,13.756789418528415,10.525206559964124,11.365000236331905,15.306212449569655,71.96199999999953
313444.7547,13.443893000083264,11.694142566464462,11.828596941415492,16.283746675629992,71.96299999998882
313444.7557,12.191379054337467,11.922561647073133,11.327581692498914,16.30353965889783,71.96399999997811
313444.7567,9.991496032860875,11.181519744425872,9.849556325566729,15.345314616248283,71.96500000002561
313444.7577,6.927682806531831,9.531369146160895,7.474355358166326,13.472042618506878,71.9660000000149
313444.7587,3.1683120553134305,7.115935555100354,4.367522924586431,10.823814911190693,71.96700000000419
313444.7597,-1.0480420500476928,4.148519046690845,0.7653983189760375,7.604403478894133,71.96799999999348
313444.7607,-5.4343916119869045,0.8910861408559543,-3.0467582845765935,4.061837766994493,71.96899999998277
313444.7617,-9.68205859651055,-2.371307131441552,-6.761484738601552,0.4649076836846726,71.96999999997206
313444.7627,-13.4897229163061,-5.358348280766175,-10.07808796305462,-2.922102508537298,71.97100000001956
313444.7637,-16.59194810445113,-7.821818037841095,-12.731050545552408,-5.863976691829539,71.97200000000885
313444.7647,-18.78438164951353,-9.569759571823605,-14.51510756757423,-8.176027783408962,71.97299999999814
313444.7657,-19.943146558335833,-10.485077818893464,-15.304550052376714,-9.740369215620808,71.97399999998743
313444.7667,-20.03650467952231,-10.536722604297776,-15.064872330337911,-10.515424424661779,71.97499999997672
313444.7677,-19.127625705819213,-9.78233488068888,-13.855625948746347,-10.537771441092495,71.97600000002421
313444.7687,-17.368164906998366,-8.362072679572904,-11.824199706566258,-9.916178065253854,71.9770000000135
313444.7697,-14.983252448485583,-6.48420035503116,-9.191130213931068,-8.81845574751695,71.9780000000028
313444.7707,-12.249339468394176,-4.403836447206376,-6.228373551758975,-7.452471268446031,71.97899999999208
313444.7717,-9.46704831614966,-2.3969323651132526,-3.232655341918658,-6.043234714033063,71.97999999998137
313444.7727,-6.931667548334479,-0.7320295445825359,-0.49649665515300867,-4.808372998139746,71.98099999997066
313444.7737,-4.904167890978275,0.35743013458513323,1.7202603003080574,-3.9344616715825436,71.98200000001816
313444.7747,-3.5855700477333285,0.6975097647825087,3.21565203959571,-3.5566075842589284,71.98300000000745
313444.7757,-3.097173075164214,0.1924788362141416,3.865064821731023,-3.74335859991927,71.98399999999674
313444.7767,-3.468584268294281,-1.1640607848658258,3.633082440122202,-4.488494615369127,71.98499999998603
313444.7777,-4.634733365088328,-3.28676327649772,2.576561379513011,-5.710577391032352,71.98599999997532
313444.7787,-6.442179310916925,-6.005135175866265,0.8386410807841639,-7.260371164390693,71.98700000002282
313444.7797,-8.664112181409742,-9.0785569686104,-1.3657174374843164,-8.935466481149044,71.98800000001211
313444.7807,-11.022604590053474,-12.218325912180509,-3.7712440475485915,-10.500722411709884,71.9890000000014
313444.7817,-13.215958885405264,-15.114629416216935,-6.088814282113782,-11.712557624960818,71.98999999999069
313444.7827,-14.948497875522474,-17.46587344736629,-8.034255700365282,-12.344726131839217,71.99099999997998
313444.7837,-15.959906458094862,-19.00755471363349,-9.356686609783702,-12.213047896354407,71.99200000002747
313444.7847,-16.05127291601027,-19.537901915831434,-9.863615011964116,-11.196644678041094,71.99300000001676
313444.7857,-15.105297767020632,-18.937816717174456,-9.440343691284811,-9.253550237881756,71.99400000000605
313444.7867,-13.098703806182026,-17.183189683254728,-8.06178515234908,-6.42909100461964,71.99499999999534
313444.7877,-10.105638136197047,-14.34839740273582,-5.795532987505563,-2.8561177841607255,71.99599999998463
313444.7887,-6.291731643023058,-10.600633310105849,-2.79589148105805,1.253054915683136,71.99699999997392
313444.7897,-1.899388184099616,-6.185604199471706,0.7105508750580938,5.6223528148625626,71.99800000002142
313444.7907,2.7742737532787745,-1.4059516738393478,4.446392250428521,9.93390735298147,71.99900000001071
313444.7917,7.404692922476416,3.4055473985531717,8.109833629577924,13.854299234909412,72.0
313444.7927,11.669713999108696,7.915452196392285,11.403459580807304,17.062683512368427,72.00099999998929
313444.7937,15.279131029016497,11.81900405150311,14.062574255993246,19.27821522244311,72.00199999997858
313444.7947,18.001079337677822,14.866573601883646,15.880329624379636,20.28425626795177,72.00300000002608
313444.7957,19.682742588626375,16.884726593368235,16.727199735355224,19.947145747926548,72.00400000001537
313444.7967,20.263401007127985,17.78995642624517,16.562910818311384,18.227827865321924,72.00500000000466
313444.7977,19.77859747238511,17.593848946763778,15.439677653364337,15.185304097556692,72.00599999999395
313444.7987,18.355066584790382,16.399278932679984,13.496449206940868,10.971644344739163,72.00699999998324
313444.7997,16.196972851019115,14.388106627631371,10.94474740078624,5.819081062125507,72.00799999997253
313444.8007,13.564849615547882,11.801661719744876,8.047505709799296,0.02044493177432419,72.00900000002002
313444.8017,10.749337658844881,8.915991583338656,5.092998427676493,-6.095189969395899,72.01000000000931
313444.8027,8.042322467817652,6.014343521998138,2.3664298958098278,-12.189357258161683,72.0109999999986
313444.8037,5.708313432158321,3.3595996711922886,0.1219789542256038,-17.941048096328583,72.01199999998789
313444.8047,3.95887312791185,1.1693646524168926,-1.4419546815659237,-23.071100182028207,72.01299999997718
313444.8057,2.932594321548736,-0.4038772008171508,-2.201873580201298,-27.361939795023023,72.01400000002468
313444.8067,2.6825672682780777,-1.2856374742336214,-2.1208031819295723,-30.670971667220776,72.01500000001397
313444.8077,3.172535137620714,-1.484138005978784,-1.2512776888070634,-32.936551256166425,72.01600000000326
313444.8087,4.282074376567391,-1.086487575969749,0.2705900262824828,-34.17620917305252,72.01699999999255
313444.8097,5.820244253491777,-0.24679595343542074,2.2393576305790805,-34.47755554576154,72.01799999998184
313444.8107,7.546313473523466,0.8324987924726507,4.401405568675477,-33.982998668822646,72.01899999997113
313444.8117,9.195473790889288,1.9241422144986335,6.480896338142989,-32.86999856863005,72.02000000001863
313444.8127,10.506959494814176,2.8019908339402333,8.207971009325604,-31.32898544412212,72.02100000000792
313444.8137,11.251755681286868,3.2666967577933566,9.346392005128886,-29.54126636295746,72.0219999999972
313444.8147,11.257120431506383,3.1685217840776145,9.717894327526741,-27.6592035619427,72.0229999999865
313444.8157,10.425462147502332,2.4249449561320757,9.22082977547317,-25.790679746003832,72.02399999997579
313444.8167,8.745672176794466,1.0312515357975194,7.841248656615245,-23.98939787671668,72.02500000002328
313444.8177,6.29575946632333,-0.9370043395605088,5.655306146494751,-22.25194269763991,72.02600000001257
313444.8187,3.2364948448864026,-3.3299561988547297,2.822732951006064,-20.521821176386105,72.02700000000186
313444.8197,-0.20333706992919492,-5.93724906111229,-0.42801135595883416,-18.69997040272251,72.02799999999115
313444.8207,-3.748648040041131,-8.508387437608812,-3.8214652449743216,-16.660547227688667,72.02899999998044
313444.8217,-7.104595879115767,-10.77760512367631,-7.061656988978346,-14.270261541196515,72.02999999996973
313444.8227,-9.9853670221743,-12.490792328087752,-9.860774512053283,-11.409139912642216,72.03100000001723
313444.8237,-12.142357350103648,-13.431796769446427,-11.967208525107127,-7.990446107981615,72.03200000000652
313444.8247,-13.388967222202961,-13.44546160235146,-13.190220885113828,-3.977556149295388,72.03299999999581
313444.8257,-13.619551172154912,-12.455070338238835,-13.418816197386402,0.6041184949447235,72.0339999999851
313444.8267,-12.820629510771099,-10.472407511678421,-12.632958255820656,5.661574286191963,72.03499999997439
313444.8277,-11.073222735253237,-7.59936113635756,-10.906018857590206,11.03580128747372,72.03600000002189
313444.8287,-8.546036389605291,-4.020818777400825,-8.398201837905885,16.510563975220563,72.03700000001118
313444.8297,-5.480118945139342,0.01053764059260509,-5.341566131241254,21.827695140740953,72.03800000000047
313444.8307,-2.1664506592964115,4.19613616419058,-2.018092046518234,26.707547295001344,72.03899999998976
313444.8317,1.0813846961143783,8.218053826740972,1.2670855555882667,30.872701390357697,72.03999999997905
313444.8327,3.9568089669722246,11.76766353271214,4.2146813816396085,34.07267208154165,72.04100000002654
313444.8337,6.189276109480867,14.573645361328046,6.559686794613075,36.10720924458549,72.04200000001583
313444.8347,7.569904889309069,16.426669666347834,8.096461985878786,36.845892414797625,72.04300000000512
313444.8357,7.971233604198537,17.19837317403685,8.698061200521142,36.2420402399154,72.04399999999441
313444.8367,7.359182396144267,16.852795863395006,8.327922346229437,34.33948041356152,72.0449999999837
313444.8377,5.796065614516476,15.449172665218061,7.042798013683171,31.271396632807964,72.04599999997299
313444.8387,3.43436676060163,13.135809188706022,4.986659965936598,27.251222908815976,72.04700000002049
313444.8397,0.5018867175919501,10.135633277064805,2.37618981865039,22.556318625161172,72.04800000000978
313444.8407,-2.720285585821823,6.724819936100107,-0.5207112570164821,17.505855437153343,72.04899999999907
313444.8417,-5.924834208261722,3.2065572848648602,-3.411281659418548,12.434910906820717,72.04999999998836
313444.8427,-8.807676172864339,-0.11750993444840079,-6.006543061523739,7.6671380113408265,72.05099999997765
313444.8437,-11.096958162010651,-2.975401015147199,-8.049425679128587,3.4885270565821807,72.05200000002515
313444.8447,-12.578777991825275,-5.149773037690021,-9.33962792444551,0.124681856127181,72.05300000001444
313444.8457,-13.117143938993577,-6.497348239023049,-9.752788083691458,-2.2762962981052453,72.05400000000373
313444.8467,-12.666252778271701,-6.960941120066034,-9.252107467116366,-3.653754097078351,72.05499999999302
313444.8477,-11.273922234402356,-6.572957678363868,-7.8913080868887535,-4.036380417604804,72.0559999999823
313444.8487,-9.07588143143108,-5.450075057246718,-5.808660326855646,-3.535936053743765,72.0569999999716
313444.8497,-6.28151875391161,-3.7796736493132057,-3.2126936392927896,-2.3334842409302903,72.05800000001909
313444.8507,-3.152522515831503,-1.7994007255343327,-0.3610199517155546,-0.6595011430428185,72.05900000000838
313444.8517,0.023455956949590885,0.22808405485753375,2.4656249047315977,1.23017456479907,72.05999999999767
313444.8527,2.9615028002139776,2.042661139488557,4.991548083101596,3.080204250415695,72.06099999998696
313444.8537,5.407664411984302,3.4138592987354395,6.973686116110337,4.660913816751972,72.06199999997625
313444.8547,7.163903596336875,4.164824526338089,8.2258811609094,5.790332349815637,72.06300000002375
313444.8557,8.107326565495512,4.1907666954542195,8.637445069327956,6.350995272326685,72.06400000001304
313444.8567,8.201786974524284,3.4700474868958247,8.184173226448896,6.299925063381264,72.06500000000233
313444.8577,7.500728122927657,2.0668003847568612,6.9307150534082576,5.670878775526184,72.06599999999162
313444.8587,6.140991561038816,0.12481037776815763,5.0240608893966066,4.568715096336363,72.06699999998091
313444.8597,4.32821439559908,-2.1467546457157236,2.678781921604022,3.156509900074256,72.0679999999702
313444.8607,2.315270723363945,-4.4943617806730884,0.15547478374315726,1.6367622038822924,72.0690000000177
313444.8617,0.37590289086743944,-6.6458107699390645,-2.2654647028189303,0.22861244315227822,72.07000000000698
313444.8627,-1.2238322891883098,-8.338073999106381,-4.312149616645279,-0.8566147275067455,72.07099999999627
313444.8637,-2.2534559660620705,-9.34452207613739,-5.748792374497425,-1.439068499491688,72.07199999998556
313444.8647,-2.542510849292831,-9.498829435049872,-6.399842610224078,-1.3908375990981083,72.07299999997485
313444.8657,-1.9991021753224185,-8.713171405224559,-6.168271124531719,-0.6511474995869823,72.07400000002235
313444.8667,-0.6206582570216966,-6.988876302963218,-5.046168624858771,0.7652651139080808,72.07500000001164
313444.8677,1.5042050151397803,-4.418429573926392,-3.1165789723672406,2.7674795305163875,72.07600000000093
313444.8687,4.202957579523498,-1.178570284702574,-0.5463451414731804,5.195536068173377,72.07699999999022
313444.8697,7.234908534483793,2.484909040505742,2.4293719395670235,7.834740011458209,72.07799999997951
313444.8707,10.313943705626405,6.279235242297421,5.529422452971994,10.435753800900269,72.07900000002701
313444.8717,13.136058421215537,9.891500266139202,8.453689629386323,12.738528642536755,72.0800000000163
313444.8727,15.409015692845571,13.017707788929771,10.912183301716116,14.497738819576249,72.08100000000559
313444.8737,16.88123926549672,15.391226233855736,12.653373089982567,15.507222678185911,72.08199999999488
313444.8747,17.367112402111186,16.807903019851757,13.488994952607529,15.621019435166316,72.08299999998417
313444.8757,16.766191325208258,17.1454114998094,13.312900928795553,14.768912600431186,72.08399999997346
313444.8767,15.074424416391567,16.374955263093263,12.112095828649997,12.964917753975822,72.08500000002095
313444.8777,12.386238140370104,14.564190550398797,9.968860596041429,10.307833385839942,72.08600000001024
313444.8787,8.887233381226322,11.87107482679363,7.0537264354622335,6.97374211687958,72.08699999999953
313444.8797,4.838145526723203,8.52922558984791,3.609952282483984,3.201130873992786,72.08799999998882
313444.8807,0.551569577708971,4.826192954963012,-0.06901586654337051,-0.7299837763550283,72.08899999997811
313444.8817,-3.6363448862625485,1.0767326859403628,-3.666942465173951,-4.522955017698011,72.09000000002561
313444.8827,-7.396533535333424,-2.406353331783352,-6.874422476938502,-7.891066629794898,72.0910000000149
313444.8837,-10.437066986418294,-5.341011300360878,-9.417872669495287,-10.583228077591999,72.09200000000419
313444.8847,-12.52973929669096,-7.501607407321467,-11.085102960041208,-12.406357939924057,72.09299999999348
313444.8857,-13.530656329422879,-8.739028850233147,-11.74500806070559,-13.242328459626089,72.09399999998277
313444.8867,-13.39286325997005,-8.993311116281948,-11.359490075662126,-13.057869002624752,72.09499999997206
313444.8877,-12.169818505062123,-8.297618186685565,-9.98647644390628,-11.90650636013998,72.09600000001956
313444.8887,-10.009404496931488,-6.773244442347513,-7.7737612064547115,-9.922388812914447,72.09700000000885
313444.8897,-7.139078094725494,-4.616179519974974,-4.944286825660818,-7.306623756969083,72.09799999999814
313444.8907,-3.8436163284093157,-2.0765951294722664,-1.7743120591048764,-4.307479207911723,72.09899999998743
313444.8917,-0.43762374549151317,0.5667037558886187,1.4334019485757834,-1.196387529632318,72.09999999997672
313444.8927,2.764533061332534,3.0343383347981754,4.378776917336991,1.7579118711389563,72.10100000002421
313444.8937,5.478458429275364,5.074166027596276,6.793140090566486,4.314583965858513,72.1020000000135
313444.8947,7.476265581243106,6.486116237573194,8.464703136671789,6.282831027349186,72.1030000000028
313444.8957,8.607377764588609,7.141628266403665,9.25833967654474,7.538825591068887,72.10399999999208
313444.8967,8.811617727622478,6.995805507349962,9.127766214658804,8.035839202534817,72.10499999998137
313444.8977,8.123368181852747,6.09112107751263,8.118977264464634,7.806635071331245,72.10599999997066
313444.8987,6.666459715619371,4.552343584974558,6.364641973090703,6.957954253159585,72.10700000001816
313444.8997,4.640347289307415,2.5732159644337425,4.07005272158437,5.657700924031279,72.10800000000745
313444.9007,2.298983580502269,0.39623054249423956,1.492039640964259,4.116146673668624,72.10899999999674
313444.9017,-0.07549556355437345,-1.7124796236876236,-1.0870516900850118,2.5630566242714297,72.10999999998603
313444.9027,-2.2016602632945554,-3.490635741054116,-3.3877455429563232,1.2230346391053137,72.11099999997532
313444.9037,-3.8273961756291346,-4.706965961883981,-5.1613870359301846,0.29155252953068195,72.11200000002282
313444.9047,-4.755419668547655,-5.185324335742424,-6.214912623852375,-0.0859470959440575,72.11300000001211
313444.9057,-4.863198821777996,-4.823386364893362,-6.430014088451863,0.17020489645760614,72.1140000000014
313444.9067,-4.115339755828426,-3.60406784794612,-5.774827569494105,1.0648773136599243,72.11499999999069
313444.9077,-2.5672459458390877,-1.598531740024429,-4.307018994348656,2.526725649071292,72.11599999997998
313444.9087,-0.3597214053877671,1.039523212566011,-2.167986515738291,4.414533833738092,72.11700000002747
313444.9097,2.2949180470081214,4.087739841517491,0.4312242582889842,6.5306830120103605,72.11800000001676
313444.9107,5.133825608923542,7.275790201687616,3.230881341858717,8.640413722385473,72.11900000000605
313444.9117,7.869600693431023,10.31084816272044,5.948317811834336,10.494974118078813,72.11999999999534
313444.9127,10.21867885714371,12.90535167512459,8.305918897823373,11.856361718450806,72.12099999998463
313444.9137,11.929318497611732,14.804335264948621,10.058573415583346,12.521207502829569,72.12199999997392
313444.9147,12.806414197497222,15.809656845017884,11.017874925794418,12.341434503639785,72.12300000002142
313444.9157,12.730685718644882,15.798749788080748,11.070682209159417,11.239640159944612,72.12400000001071
313444.9167,11.670352326176332,14.736071111972066,10.190208326937888,9.217671276288366,72.125
313444.9177,9.684148864517692,12.676136384709071,8.438547489851027,6.357531278917587,72.12599999998929
313444.9187,6.915399041978153,9.757860681647895,5.96039627516377,2.814515455545079,72.12699999997858
313444.9197,3.577747910379238,6.190781004157628,2.968596942646899,-1.1967635082848593,72.12800000002608
313444.9207,-0.06601793008555196,2.23453468189022,-0.2770601196742168,-5.422095704817108,72.12900000001537
313444.9217,-3.7299488724270544,-1.826368302863457,-3.4956701863326987,-9.591208381481858,72.13000000000466
313444.9227,-7.133120223754998,-5.7099788103327445,-6.413119493183323,-13.442805677736159,72.13099999999395
313444.9237,-10.027220474657346,-9.163832007790703,-8.789290168923783,-16.74865505751615,72.13199999998324
313444.9247,-12.220789186966469,-11.98869745589472,-10.44185930474703,-19.334354401520894,72.13299999997253
313444.9257,-13.597684448971203,-14.056808053235583,-11.264320260539797,-21.09473987333232,72.13400000002002
