TimeStamp,ECR,FCR,ECU,FCU,time_index
313434.1407,-81.39794867814562,-72.48319434853072,-83.11446050804483,-76.75976958126748,61.34899999998743
313434.1417,-146.05176606263947,-134.10271433238265,-147.0739069707545,-133.00330395042445,61.34999999997672
313434.1427,-205.99577539320924,-191.3817200419693,-206.28609761157085,-185.024636041463,61.351000000024214
313434.1437,-259.58153278778485,-242.72451708187492,-259.1356982608328,-231.40043381849165,61.352000000013504
313434.1447,-305.4299982222834,-286.78836631612194,-304.2765188445479,-270.94571582319696,61.353000000002794
313434.1457,-342.4852317790806,-322.5361644079238,-340.68337399082753,-302.75947188578584,61.353999999992084
313434.1467,-370.0520619807835,-349.27387677721936,-367.6880579469493,-326.2561813104981,61.35499999998137
313434.1477,-387.8159208912074,-366.67091295778863,-384.9977295069647,-341.1817248647319,61.35599999997066
313434.1487,-395.8439892113155,-374.76254599986953,-392.6949366141118,-347.6130255358383,61.35700000001816
313434.1497,-394.56781033419037,-373.93445861650247,-391.21950587917735,-345.94164554985286,61.35800000000745
313434.1507,-384.7485601996236,-364.8904958094337,-381.333525504805,-336.84246401087796,61.35899999999674
313434.1517,-367.42713898678136,-348.6056574814511,-364.0716016741373,-321.2294066306768,61.35999999998603
313434.1527,-343.8621182647674,-326.2672135101838,-340.6794071638796,-300.20094112716765,61.36099999997532
313434.1537,-315.45927272971085,-299.2075086038205,-312.5442082517158,-274.9786366919483,61.36200000002282
313434.1547,-283.69689625987104,-268.83249291512465,-281.12150104776237,-246.84246864085472,61.36300000001211
313434.1557,-250.0513076479047,-236.55022708838828,-247.8620729854247,-217.0666970233543,61.3640000000014
313434.1567,-215.92686925904613,-203.70354415433863,-214.14370819199968,-186.86004330487387,61.36499999999069
313434.1577,-182.59446992057045,-171.5107025625597,-181.2113759079468,-157.3135333473873,61.36599999997998
313434.1587,-151.1417818375612,-141.01725353614702,-150.12909994434173,-129.35878845304197,61.367000000027474
313434.1597,-122.43773257674333,-113.06151228737686,-121.74584671327801,-103.73876884908286,61.368000000016764
313434.1607,-97.11259912653335,-88.25502612805082,-96.67675099000941,-80.99206191520125,61.369000000006054
313434.1617,-75.5540089012917,-66.97834779782623,-75.29989823226856,-61.45082940436359,61.36999999999534
313434.1627,-57.91800859541894,-49.391333131834614,-57.767784557310165,-45.25155958999993,61.37099999998463
313434.1637,-44.15332415904453,-35.456174228664196,-44.03156642666655,-32.356887977066194,61.37199999997392
313434.1647,-34.03606616298581,-24.970532801410403,-33.87537174118908,-22.586024109360324,61.37300000002142
313434.1657,-27.21150345832885,-17.60752088507734,-26.95733915366731,-15.650809768047948,61.37400000001071
313434.1667,-23.2391836154415,-12.958935985655335,-22.853730207336497,-11.1941752884789,61.375
313434.1677,-21.63764599202652,-10.578119848929198,-21.102442579282446,-8.82777390116597,61.37599999998929
313434.1687,-21.925250256914214,-10.019072826798846,-21.242538933767403,-8.165853382375834,61.37699999997858
313434.1697,-23.65420051842429,-10.868991491781097,-22.8469648866376,-8.852940990723399,61.37800000002608
313434.1707,-26.435628971995595,-12.772153844849619,-25.546407589959628,-10.58362190598793,61.37900000001537
313434.1717,-29.954539457764522,-15.443982933321642,-29.04317051396324,-13.113516996861255,61.38000000000466
313434.1727,-33.974413651541624,-18.675091798209444,-33.114924618823586,-16.261436172268677,61.380999999993946
313434.1737,-38.33225882874436,-22.32606111176943,-37.60915106941885,-19.903518948519626,61.381999999983236
313434.1747,-42.92573767661668,-26.314539491072896,-42.429929422940816,-23.960898420743554,61.382999999972526
313434.1757,-47.69469057639538,-30.59691028760734,-47.519373012297756,-28.382973940335344,61.38400000002002
313434.1767,-52.59978104486647,-35.14718080983633,-52.83641395804281,-33.12870401392229,61.38500000000931
313434.1777,-57.60113173595108,-39.9358870140192,-58.335761677418375,-38.14840835686785,61.3859999999986
313434.1787,-62.63966498025411,-44.911661752413956,-63.949695575092235,-43.36839466357637,61.38699999998789
313434.1797,-67.62343948924338,-49.987707748404944,-69.57492666578001,-48.68032347366087,61.38799999997718
313434.1807,-72.42063037867531,-55.034792559290366,-75.06612104080932,-53.936637229624125,61.38900000002468
313434.1817,-76.86000084495473,-59.8816073497814,-80.23688753512431,-58.95266837158899,61.39000000001397
313434.1827,-80.73884274190243,-64.32248384608089,-84.86817361252804,-63.515278666943345,61.39100000000326
313434.1837,-83.83750832384996,-68.13163016772484,-88.72317413769828,-67.39714485308232,61.39199999999255
313434.1847,-85.93890257898755,-71.08231005500443,-91.56712149404709,-70.3751678734461,61.39299999998184
313434.1857,-86.8507301937283,-72.96882480392922,-93.18976577589316,-72.25100800138635,61.39399999997113
313434.1867,-86.4279505436719,-73.62881909525066,-93.42802593915889,-72.87148300288432,61.39500000001863
313434.1877,-84.59282188407403,-72.96335415633582,-92.18622895510167,-72.14653721170247,61.396000000007916
313434.1887,-81.35011896001188,-70.95238161056551,-89.45155993240367,-70.06269850722597,61.396999999997206
313434.1897,-76.79556597068006,-67.66368956826882,-85.30280075862831,-66.69036653611946,61.397999999986496
313434.1907,-71.11619322565348,-63.25403490621488,-79.91109225586395,-62.18387638044829,61.398999999975786
313434.1917,-64.58213413275625,-57.96195784628512,-73.53224918893318,-56.773997193223856,61.40000000002328
313434.1927,-57.530248355361294,-52.09261849011233,-66.4910091288025,-50.75328364192736,61.40100000001257
313434.1937,-50.34079985379854,-45.99581527970189,-59.158419821389174,-44.45542350908419,61.40200000000186
313434.1947,-43.40915025442054,-40.0390599409368,-51.92428267047123,-38.23034479930843,61.40299999999115
313434.1957,-37.11497451039623,-34.57812010021284,-45.16710036467422,-32.41729778110687,61.40399999998044
313434.1967,-31.791811159306214,-29.927744623848216,-39.22427063356783,-27.318365582462917,61.40499999996973
313434.1977,-27.699791314309493,-26.335325838082095,-34.36529493190492,-23.174856294490883,61.40600000001723
313434.1987,-25.00414339531946,-23.960021207671712,-30.77052615394249,-20.14878854403162,61.40700000000652
313434.1997,-23.761566538393506,-22.859375529735406,-28.517485672672986,-18.311223384757195,61.40799999999581
313434.2007,-23.915852018993146,-22.98479868823306,-27.576084089045573,-17.63856188575951,61.4089999999851
313434.2017,-25.303277079477287,-24.186429263019054,-27.813249093345,-18.017181017380064,61.40999999997439
313434.2027,-27.667381605010963,-26.22703043673677,-29.00657828200244,-19.25599272864101,61.411000000021886
313434.2037,-30.68185360213394,-28.803707445448747,-30.86578072126696,-21.105759111244936,61.412000000011176
313434.2047,-33.97948032702456,-31.57548874787019,-33.059931736957374,-23.28335362364536,61.413000000000466
313434.2057,-37.184543172051775,-34.19424915755513,-35.248013056046815,-25.49868741578711,61.413999999989755
313434.2067,-39.945702745881,-36.33612778236869,-37.10989914797487,-27.48176711567197,61.414999999979045
313434.2077,-41.96636881304363,-37.73053906449821,-38.37491110728091,-29.007341072737738,61.41600000002654
313434.2087,-43.02978363475073,-38.18409756471017,-38.84529593284725,-29.914826369831374,61.41700000001583
313434.2097,-43.01654482296837,-37.59725554622015,-38.412478956118306,-30.121666429440502,61.41800000000512
313434.2107,-41.91300755097249,-35.972141155295844,-37.064633123775515,-29.62890458094878,61.41899999999441
313434.2117,-39.80986734726089,-33.41091788138127,-34.88494344244038,-28.518510966524566,61.4199999999837
313434.2127,-36.89115090730865,-30.10488280339615,-32.04083723334243,-26.942795699633127,61.42099999997299
313434.2137,-33.41474429359385,-26.31539547191609,-28.765314406592367,-25.107003039352282,61.42200000002049
313434.2147,-29.68637886059545,-22.34849692097624,-25.332263070665586,-23.24683556356948,61.42300000000978
313434.2157,-26.029599368522465,-18.525665430584322,-22.02821177414883,-21.60314046564602,61.42399999999907
313434.2167,-22.754598369970488,-15.153506038180897,-19.123295964740677,-20.396255404601394,61.42499999998836
313434.2177,-20.12888219827455,-12.49525123984054,-16.84427169605535,-19.80253330912753,61.42599999997765
313434.2187,-18.35252995497517,-10.746753905969456,-15.352189515466062,-19.935342417543016,61.427000000025146
313434.2197,-17.54033868172778,-10.019200141638787,-14.72686801375924,-20.832391785188587,61.428000000014435
313434.2207,-17.712461919978033,-10.330104546332358,-14.959626594708654,-22.450607396027603,61.429000000003725
313434.2217,-18.79431265581723,-11.603338467664042,-15.954917605908225,-24.669041193021297,61.429999999993015
313434.2227,-20.625597168133574,-13.678062874332563,-17.540619559685297,-27.299507529296115,61.430999999982305
313434.2237,-22.977461871058004,-16.325577165467454,-19.485901897907382,-30.103885774479316,61.431999999971595
313434.2247,-25.57595692748787,-19.272337262792878,-21.524830951960094,-32.816377883536305,61.43300000001909
313434.2257,-28.129423601685037,-22.226814111704734,-23.383328802206222,-35.16852899067729,61.43400000000838
313434.2267,-30.357054395599494,-24.907513246602008,-24.806776004480295,-36.91455423125288,61.43499999999767
313434.2277,-32.01578977501347,-27.069390505833653,-25.58549664274974,-37.85449153320994,61.43599999998696
313434.2287,-32.922909706317235,-28.52608542636536,-25.575584547131594,-37.8529199068053,61.43699999997625
313434.2297,-32.97213181199551,-29.16583274779477,-24.713000646725746,-36.85142382766646,61.43800000002375
313434.2307,-32.14169485247,-28.95955954958562,-23.01954655335432,-34.873603038666445,61.43900000001304
313434.2317,-30.49371976543893,-27.960466261411135,-20.60013181837096,-32.02216251751781,61.44000000000233
313434.2327,-28.165019709993512,-26.29524560746362,-17.63162162412831,-28.468397122002997,61.44099999999162
313434.2337,-25.350388270572836,-24.147929737342487,-14.34439212465652,-24.435132903919154,61.44199999998091
313434.2347,-22.280146284794014,-21.738089735370917,-10.998449230899176,-20.17482887387302,61.4429999999702
313434.2357,-19.19429843654009,-19.29567098972765,-7.856511328663231,-15.94501611879223,61.444000000017695
313434.2367,-16.3159845221382,-17.035077479789603,-5.156763280799892,-11.983509229581374,61.445000000006985
313434.2377,-13.826974356456912,-15.131185580913986,-3.0880275489194244,-8.485842731964746,61.445999999996275
313434.2387,-11.84774354272764,-13.699767077030279,-1.7698642406486456,-5.587160986669645,61.446999999985565
313434.2397,-10.424200984820795,-12.784351834411053,-1.2396280623964229,-3.350345968442804,61.447999999974854
313434.2407,-9.522464474713434,-12.350907697575956,-1.4478238959198977,-1.761547185831958,61.44900000002235
313434.2417,-9.032264968641979,-12.290923444939711,-2.262281395413702,-0.7335428213141532,61.45000000001164
313434.2427,-8.778684320030628,-12.432628679593417,-3.480793407498403,-0.11658333829938294,61.45100000000093
313434.2437,-8.541082341581644,-12.559256946487908,-4.851019418596708,0.28437507325925215,61.45199999999022
313434.2447,-8.077331638926465,-12.432537462634318,-6.095726907179949,0.6877764444242698,61.45299999997951
313434.2457,-7.1509263085523065,-11.819058489171743,-6.94090251048941,1.311106115796285,61.45400000002701
313434.2467,-5.558218763004719,-10.516835899606722,-7.143965108555937,2.346512998434655,61.4550000000163
313434.2477,-3.152999412194078,-8.37937533546415,-6.51928448809386,3.9388681581598965,61.45600000000559
313434.2487,0.1341283617764267,-5.334740882307743,-4.958455786125751,6.168481574302541,61.45699999999488
313434.2497,4.283632956078884,-1.3976162357515385,-2.4432780540935024,9.040245767550045,61.45799999998417
313434.2507,9.183554270057513,3.326979906715559,0.9499130749719527,12.480346165808056,61.45899999997346
313434.2517,14.63513479329266,8.648849853918303,5.05507163991655,16.340935076611398,61.460000000020955
313434.2527,20.367202567154056,14.306299950906238,9.630048747613737,20.41238174393919,61.461000000010245
313434.2537,26.058061500795926,19.987164246095286,14.37774569334455,24.44196212953584,61.461999999999534
313434.2547,31.362895470965437,25.355251246574834,18.9728367925121,28.157212330316256,61.462999999988824
313434.2557,35.94413353863759,30.079748071947673,23.091534947756607,31.291701872524044,61.463999999978114
313434.2567,39.50191003250933,33.864805615658646,26.441565813146354,33.610733663828405,61.46500000002561
313434.2577,41.80171683140148,36.47648633743233,28.789483489624455,34.934470952777914,61.4660000000149
313434.2587,42.696590523528265,37.76448807387744,29.982705694325016,35.15622926920665,61.46700000000419
313434.2597,42.14168128159641,37.67654102211296,29.964145876662208,34.25413012441826,61.46799999999348
313434.2607,40.1997649799829,36.26406439714399,28.778025550077736,32.29494869140541,61.46899999998277
313434.2617,37.03711636070928,33.67849759894223,26.56629377722779,29.429737910375767,61.46999999997206
313434.2627,32.91007607499586,30.158607799233216,23.55598043525607,25.881603374810986,61.47100000001956
313434.2637,28.143529504949086,26.009935602049527,20.038678276102885,21.926759767771713,61.47200000000885
313434.2647,23.103284561290454,21.578289375058727,16.344101621583878,17.870646836453517,61.47299999999814
313434.2657,18.16491454091882,17.21976427905086,12.810233811564434,14.021357909078047,61.47399999998743
313434.2667,13.681964511990161,13.270089095985641,9.752896669261263,10.66289062089255,61.47499999997672
313434.2677,9.95647346551701,10.016161049160873,7.4376223832003365,8.030743030735055,61.476000000024214
313434.2687,7.214534640550237,7.67241060264889,6.056477155768168,6.292147642169133,61.477000000013504
313434.2697,5.589125594414473,6.364166209698323,5.711999643488568,5.532783793558294,61.478000000002794
313434.2707,5.1117357153224905,6.119509331559318,6.409723345607615,5.751179823567936,61.478999999992084
313434.2717,5.713470591107957,6.870289112195247,8.059918553508103,6.861271931802327,61.47999999998137
313434.2727,7.235402532112651,8.4620838805136,10.488297612494689,8.70279947755797,61.48099999997066
313434.2737,9.447053052299571,10.672039011068682,13.454563961659304,11.058463362854088,61.48200000001816
313434.2747,12.071121933307353,13.232760909312967,16.676934643431103,13.676128417270851,61.48300000000745
313434.2757,14.811993204386784,15.859877620512835,19.860200501888492,16.293874987701475,61.48399999999674
313434.2767,17.38520715633272,18.280542654006066,22.72456266785839,18.665445130830186,61.48499999998603
313434.2777,19.545021716004516,20.260091831678594,25.032429166618265,20.583609593277554,61.48599999997532
313434.2787,21.107401520455497,21.624268908679095,26.61057605084793,21.899204237737305,61.48700000002282
313434.2797,21.966246778504466,22.274893297006123,27.365550894866313,22.5340261723356,61.48800000001211
313434.2807,22.101359179775294,22.197506797366394,27.290875631147482,22.486396600483896,61.4890000000014
313434.2817,21.577470818482094,21.460340092959893,26.465423373417025,21.82892830491006,61.48999999999069
313434.2827,20.534552556083035,20.204804559399932,25.043219431204275,20.698808634665998,61.49099999997998
313434.2837,19.170482801357302,18.628555563218207,23.235764046830052,19.281647828130243,61.492000000027474
313434.2847,17.717911415409397,16.962907258779843,21.28871028227672,17.790574916533718,61.493000000016764
313434.2857,16.417722476680154,15.446933979086863,19.455282840912975,16.44272734488037,61.494000000006054
313434.2867,15.491828365447489,14.300915348662132,17.969138457744624,15.43553050962948,61.49499999999534
313434.2877,15.11808415024206,13.701839899029538,17.019415269711036,14.92517541210374,61.49599999998463
313434.2887,15.409890487866376,13.763469934862375,16.73049310017541,15.009475761060115,61.49699999997392
313434.2897,16.402577372773973,14.52300989898618,17.148511435784812,15.716842812962653,61.49800000002142
313434.2907,18.04797736229017,15.935757157705716,18.236014139283824,17.002500945980575,61.49900000001071
313434.2917,20.217773064166828,17.878313549753408,19.875276614892297,18.75234028106856,61.5
313434.2927,22.715321183711907,20.1600772837229,21.8800025147631,20.79403639817164,61.50099999998929
313434.2937,25.2948015487401,22.541902637332782,24.014238861206906,22.914337057918388,61.50199999997858
313434.2947,27.68579873196781,24.760091628012187,26.01663338957852,24.880794011611606,61.50300000002608
313434.2957,29.62086955646103,26.55333895107628,27.62761761868553,26.465766031754537,61.50400000001537
313434.2967,30.86333698517058,27.68994289386443,28.616797125450287,27.47028212132989,61.50500000000466
313434.2977,31.232511022263523,27.992551517432865,28.807796847966927,27.745355272525057,61.505999999993946
313434.2987,30.62377482962728,27.357939998285165,28.098047723473474,27.208577506569807,61.506999999983236
313434.2997,29.021466527750487,25.769789949260502,26.471488604978937,25.85428308880611,61.507999999972526
313434.3007,26.503186255524454,23.303118663548105,24.002846708657877,23.75619436565558,61.50900000002002
313434.3017,23.23499573435434,20.119819486768396,20.852983472532454,21.062202269792152,61.51000000000931
313434.3027,19.45787179764794,16.455644382375173,17.255670022790277,17.98170891013531,61.5109999999986
313434.3037,15.46663837189782,12.599800990527958,13.497001425425346,14.766696671336824,61.51199999998789
313434.3047,11.58334838070427,8.869066528132901,9.889388562963457,11.688314366410204,61.51299999997718
313434.3057,8.127644350479184,5.578867935017928,6.742609006722885,9.011224411825967,61.51400000002468
313434.3067,5.386938934415857,3.0140877414416303,4.334700062096395,6.968190717398372,61.51500000001397
313434.3077,3.589292825808955,1.4023973313728446,2.8855081428532454,5.73738122104708,61.51600000000326
313434.3087,2.8816232636239074,0.8926888782448404,2.535465133766844,5.4246115518409965,61.51699999999255
313434.3097,3.3153746339845895,1.5406961522261235,3.3316676225248063,6.052290607745021,61.51799999998184
313434.3107,4.841071834937817,3.303209077790059,5.222636610781055,7.556189692810563,61.51899999997113
313434.3117,7.312325898839979,6.041463792503225,8.062301281964787,9.790406096888004,61.52000000001863
313434.3127,10.498952459820684,9.53340897508839,11.62286167858825,12.540102445343567,61.521000000007916
313434.3137,14.107985361509334,13.493696039128185,15.61532821642194,15.540851528343602,61.521999999997206
313434.3147,17.81060549422492,17.59949844253195,19.715794305281946,18.502775794447448,61.522999999986496
313434.3157,21.272433079893315,21.51970609486513,23.59494424479374,21.137203702597173,61.523999999975786
313434.3167,24.184305858658803,24.944719085054338,26.9479860605226,23.183317298602713,61.52500000002328
313434.3177,26.29061781448493,27.61401198672273,29.52215855151695,24.432261070099074,61.52600000001257
313434.3187,27.412527999462377,29.338860907919624,31.139197526065278,24.746422025189855,61.52700000000186
313434.3197,27.46384394156546,30.01809861150582,31.710635086071285,24.07205197334537,61.52799999999115
313434.3207,26.458090993916933,29.645442223749566,31.244500282184774,22.444040587037055,61.52899999998044
313434.3217,24.506129117056837,28.30775697789611,29.842821873561576,19.98240023452484,61.52999999996973
313434.3227,21.804589357842815,26.174498218846498,27.690223238310768,16.880817878458707,61.53100000001723
313434.3237,18.6162852070377,23.479426854050782,25.034759140229976,13.388388551551293,61.53200000000652
313434.3247,15.244523353928406,20.49643749556425,22.16289046084021,9.786295510516391,61.53299999999581
313434.3257,12.003819508175965,17.51190132944906,19.37105365943543,6.3616811981041375,61.5339999999851
313434.3267,9.189861721266011,14.796252676050091,16.936602312854657,3.3812144049439854,61.53499999997439
313434.3277,7.051623672968888,12.577607768627116,15.090947760702214,1.0668775297089879,61.536000000021886
313434.3287,5.768308352009803,11.019991133819326,13.997500243987817,-0.423727769201189,61.537000000011176
313434.3297,5.433320608700884,10.208280416055098,13.73653343456814,-1.0107055730129961,61.538000000000466
313434.3307,6.046772649964143,10.14131041044386,14.298411004164091,-0.6975955475259533,61.538999999989755
313434.3317,7.517187793389376,10.73376736537139,15.585790984055583,0.43097634896321596,61.539999999979045
313434.3327,9.672166791142223,11.826634790380155,17.424542673050073,2.219424186028119,61.54100000002654
313434.3337,12.276905832889032,13.205107373005962,19.58225788431945,4.45804953632536,61.54200000001583
313434.3347,15.058691359009748,14.622152954258182,21.79249666129078,6.904906116768658,61.54300000000512
313434.3357,17.734918508772218,15.825345994523351,23.782349550036145,9.310498050402051,61.54399999999441
313434.3367,20.041843608567874,16.58427405821454,25.300578382939847,11.442863582296185,61.5449999999837
313434.3377,21.761219080172417,16.71576303063873,26.143546294038384,13.110571731860285,61.54599999997299
313434.3387,22.742177158075442,16.104382449300285,26.17637002742106,14.181377124913466,61.54700000002049
313434.3397,22.916205086085636,14.71615827513715,25.34720144583542,14.594716306900386,61.54800000000978
313434.3407,22.303741995090068,12.604090910535179,23.69322385340915,14.366843868469976,61.54899999999907
313434.3417,21.011758774787666,9.904885501946916,21.337765669256807,13.588138125522207,61.54999999998836
313434.3427,19.222575248443434,6.827170142131043,18.478809003889623,12.412881963088454,61.55099999997765
313434.3437,17.17503612161113,3.632320261616832,15.370018030996057,11.042568557632539,61.552000000025146
313434.3447,15.139923344596756,0.6097415197138786,12.296148688442418,9.704420985492167,61.553000000014435
313434.3457,13.39205344335429,-1.9509832806778977,9.545255017201573,8.627286479231131,61.554000000003725
313434.3467,12.18183794421882,-3.788359810794395,7.380424100808336,8.017324051324325,61.554999999993015
313434.3477,11.70914082117466,-4.694885778465353,6.013820063484176,8.035923113606808,61.555999999982305
313434.3487,12.102043356254999,-4.538038857898751,5.58559313854172,8.782068812376629,61.556999999971595
313434.3497,13.402645755049189,-3.2742673079029636,6.149734371693174,10.2809289641749,61.55800000001909
313434.3507,15.561343409515466,-0.9545785341502956,7.668276604119607,12.479821124290412,61.55900000000838
313434.3517,18.440181635531175,2.278863152105569,10.014424559377504,15.251987120172696,61.55999999999767
313434.3527,21.82499786717299,6.2048429282605255,12.984321249894846,18.40782832055512,61.56099999998696
313434.3537,25.445192536735185,10.542770127590348,16.31631034824821,21.712514225880565,61.56199999997625
313434.3547,28.999214512553937,14.978045354434354,19.715817777830694,24.90824266287424,61.56300000002375
313434.3557,32.18327837371562,19.19068608795304,22.883422884354605,27.738964547986473,61.56400000001304
313434.3567,34.72050509917687,22.884455320120647,25.543374553269953,29.975135890689323,61.56500000000233
313434.3577,36.38762729970083,25.813684661855277,27.469761670017416,31.436049376980048,61.56599999999162
313434.3587,37.03663031612932,27.805204147237777,28.50777516361663,32.007528872269674,61.56699999998091
313434.3597,36.60918920845292,28.773264404151032,28.587978461839334,31.653220146636553,61.5679999999702
313434.3607,35.14246133838797,28.72601693806434,27.732187728061415,30.418336132240032,61.569000000017695
313434.3617,32.76563662041739,27.76293873522121,26.050385791192895,28.42545388778878,61.570000000006985
313434.3627,29.68755022302509,26.063468187971612,23.72897364691709,25.862740717251132,61.570999999996275
313434.3637,26.176537175326594,23.86797447812839,21.011514501175842,22.965731962015532,61.571999999985565
313434.3647,22.534469263338558,21.452928487029183,18.17386398799053,19.994419618384097,61.572999999974854
313434.3657,19.067487140667993,19.10270714239899,15.49613381765878,17.207876453934542,61.57400000002235
313434.3667,16.056268481645468,17.080789758595742,13.234250186251787,14.8388887668916,61.57500000001164
313434.3677,13.72872394226391,15.603162460895254,11.593911754551453,13.07107766618298,61.57600000000093
313434.3687,12.237781435495831,14.81652960006974,10.709520365136518,12.02075274954733,61.57699999999022
313434.3697,11.646428160387915,14.783460412174517,10.630173380974389,11.725286124299899,61.57799999997951
313434.3707,11.921476765335179,15.475921084140296,11.314116865885708,12.139163222203045,61.57900000002701
313434.3717,12.936675538860213,16.777823134520926,12.632231223769654,13.138121404831933,61.5800000000163
313434.3727,14.48487520337003,18.496338666802874,14.380236365530802,14.531000730015508,61.58100000000559
313434.3737,16.29808528309567,20.38087758991541,16.29844859345153,16.078180306137135,61.58199999999488
313434.3747,18.07348695157363,22.14787483699009,18.0971799191881,17.514831784755124,61.58299999998417
313434.3757,19.50289144419128,23.508969812137607,19.485315112332838,18.576751462397848,61.58399999997346
313434.3767,20.302799831178493,24.199830850820454,20.19928684766552,19.026280108220718,61.585000000020955
313434.3777,20.242163545422837,24.006816339388482,20.029625766317622,18.675809636258055,61.586000000010245
313434.3787,19.165170827116356,22.78887699188712,18.842494396377067,17.406609022645423,61.586999999999534
313434.3797,17.006869880819792,20.492569518487464,16.594099000979103,15.181155560399574,61.587999999988824
313434.3807,13.80013735519102,17.158724719954876,13.336564076246608,12.04778723356486,61.588999999978114
313434.3817,9.673342370532716,12.920126881560627,9.21468283668758,8.137236080904726,61.59000000002561
313434.3827,4.83895937001265,7.990436471180113,4.453842551986966,3.651388169126291,61.5910000000149
313434.3837,-0.4257407118131724,2.6454389260332722,-0.6597205398564131,-1.1546335358142366,61.59200000000419
313434.3847,-5.804027604918633,-2.8015544040285123,-5.804439433729146,-5.995324747116711,61.59299999999348
313434.3857,-10.96860671023984,-8.0277638023814,-10.652253506203595,-10.580383705387266,61.59399999998277
313434.3867,-15.611267110987354,-12.729739341378048,-14.8979935094634,-14.640558145833754,61.59499999997206
313434.3877,-19.470418246915546,-16.650119688514224,-18.286496936636027,-17.951276267490094,61.59600000001956
313434.3887,-22.353871442093453,-19.5997814961345,-20.634864589900715,-20.35181043397331,61.59700000000885
313434.3897,-24.15470074926298,-21.47327004134395,-21.847749373065636,-21.75816911471574,61.59799999999814
313434.3907,-24.8587060835825,-22.25606767545978,-21.924252979843125,-22.16853399968992,61.59899999998743
313434.3917,-24.542832344300287,-22.023061975504568,-20.955827877855015,-21.66079396611155,61.59999999997672
313434.3927,-23.364789324564107,-20.928440978363724,-19.11546009355089,-20.382503322129594,61.601000000024214
313434.3937,-21.544981070805296,-19.18808345847492,-16.639256686565552,-18.53433228965093,61.602000000013504
313434.3947,-19.342605178239996,-17.056245387250396,-13.802297416220592,-16.348710394192167,61.603000000002794
313434.3957,-17.028348632260997,-14.79889764312768,-10.891161087971904,-14.065826387883934,61.603999999992084
313434.3967,-14.856431900712185,-12.666390564716322,-8.175849782267836,-11.909396392453603,61.60499999998137
313434.3977,-13.038805469125125,-10.868176872654407,-5.883878428200169,-10.0646211392056,61.60599999997066
313434.3987,-11.724078132063166,-9.552110662147616,-4.1790691967322795,-8.66052303817284,61.60700000001816
313434.3997,-10.983276619877278,-8.79037792792589,-3.1471128967030064,-7.758407397778515,61.60800000000745
313434.4007,-10.8038491063586,-8.573449165700465,-2.789280363693273,-7.3475737599357975,61.60899999999674
313434.4017,-11.0924987288329,-8.81264263912809,-3.024852923361862,-7.348674220289959,61.60999999998603
313434.4027,-11.686549068315447,-9.351027000989959,-3.7019727428250913,-7.624347842885203,61.61099999997532
313434.4037,-12.372688866630186,-9.981558888443328,-4.615776877981446,-7.99602970954131,61.61200000002282
313434.4047,-12.911202481477652,-10.470627010139152,-5.5319555523296,-8.265211952560835,61.61300000001211
313434.4057,-13.063238887668215,-10.584630534432351,-6.21333688019989,-8.236983727430344,61.6140000000014
313434.4067,-12.61836022346975,-10.116909974221242,-6.446799842421201,-7.743442112450987,61.61499999999069
313434.4077,-11.419571976521913,-8.912303944412324,-6.067784357932543,-6.664569809639219,61.61599999997998
313434.4087,-9.38327508894157,-6.886829821387284,-4.9799049577349255,-4.944418204110743,61.617000000027474
313434.4097,-6.512072461779805,-4.040458654554844,-3.1676594077079905,-2.6008922552993856,61.618000000016764
313434.4107,-2.8990604746487088,-0.46162851357452006,-0.7009078711254355,0.27193791884007434,61.619000000006054
313434.4117,1.2769281708951776,3.6770501781514553,2.2693855455535905,3.509336624483091,61.61999999999534
313434.4127,5.764772700289031,8.131578208398775,5.523789154274227,6.8887773992345425,61.62099999998463
313434.4137,10.261986698959134,12.606684076126363,8.794224265820477,10.149022841216,61.62199999997392
313434.4147,14.441154953855571,16.78139149961392,11.789058417445272,13.013616840294999,61.62300000002142
313434.4157,17.97937170207899,20.3376122896762,14.221028736977303,15.216547464436356,61.62400000001071
313434.4167,20.587858373362785,22.989031033645958,15.835261465175138,16.527607467920205,61.625
313434.4177,22.03890509739573,24.507506421920784,16.434630703999964,16.774989214263346,61.62599999998929
313434.4187,22.187525377191374,24.744443158949434,15.899947708610524,15.862901430290608,61.62699999997858
313434.4197,20.985713921604425,23.64506614730517,14.202967551159146,13.782462731513867,61.62800000002608
313434.4207,18.487905142646166,21.254208566127613,11.410894502961128,10.614766116513907,61.62900000001537
313434.4217,14.847075395234958,17.71304130894118,7.681893160699521,6.52575758343533,61.63000000000466
313434.4227,10.30183321970881,13.247043387312626,3.2519883764461492,1.7533578245360588,61.630999999993946
313434.4237,5.155710674634331,8.146356190375629,-1.5854224082216766,-3.411997940850967,61.631999999983236
313434.4247,-0.2493795478994699,2.740396561393942,-6.50549825112138,-8.651593283306436,61.632999999972526
313434.4257,-5.5629956001589065,-2.6308469702761066,-11.180845448576818,-13.64516896337209,61.63400000002002
313434.4267,-10.456485495693288,-7.646097380689817,-15.310598081907944,-18.097658162368663,61.63500000000931
313434.4277,-14.65089351317795,-12.029868020315938,-18.646894922842748,-21.763412781126053,61.6359999999986
313434.4287,-17.939814868527023,-15.574778187011107,-21.016210557783936,-24.46566003356187,61.63699999998789
313434.4297,-20.20505709172207,-18.15702008926113,-22.333498511707507,-26.109392204260942,61.63799999997718
313434.4307,-21.423671908957097,-19.743567852990896,-22.60780399113298,-26.686529535336454,61.63900000002468
313434.4317,-21.66576555680464,-20.390531118132728,-21.938835287395264,-26.272944622217153,61.64000000001397
313434.4327,-21.083395723307323,-20.232923918517347,-20.50486459499453,-25.017723430410765,61.64100000000326
313434.4337,-19.891731621415463,-19.466958793233015,-18.543174716392357,-23.12578636906162,61.64199999999255
313434.4347,-18.34440510387939,-18.326704167175983,-16.324995013525637,-20.835629824022483,61.64299999998184
313434.4357,-16.705541749353802,-17.05748863463405,-14.127406776821948,-18.394412130468407,61.64399999997113
313434.4367,-15.221276682015404,-15.88874549277697,-12.204992235645415,-16.032853105473464,61.64500000001863
313434.4377,-14.093599766021137,-15.009034486460228,-10.764023797310712,-13.94241931018787,61.646000000007916
313434.4387,-13.459135028564887,-14.545751162843075,-9.94173843802465,-12.25702822092641,61.646999999997206
313434.4397,-13.374963412217044,-14.55155995019643,-9.792740980020694,-11.041047206761709,61.647999999986496
313434.4407,-13.81289502973868,-14.99891185740953,-10.283878227895382,-10.284732751358534,61.648999999975786
313434.4417,-14.662756091443402,-15.783198067458143,-11.298092224282973,-9.907513771532079,61.65000000002328
313434.4427,-15.744359230988518,-16.73422641183184,-12.646876796141747,-9.768743080174756,61.65100000001257
313434.4437,-16.826962142028748,-17.63487389629451,-14.090113645840344,-9.684799625009857,61.65200000000186
313434.4447,-17.654273132545637,-18.24504727068544,-15.361335544320198,-9.45079390442273,61.65299999999115
313434.4457,-17.972506768309803,-18.32854623808825,-16.195926125655326,-8.864671765392595,61.65399999998044
313434.4467,-17.55868286715876,-17.68012341014558,-16.35947115983456,-7.751272462566056,61.65499999996973
313434.4477,-16.246328309906467,-16.15000143141282,-15.673453997228501,-5.983898835120488,61.65600000001723
313434.4487,-13.945986971265437,-13.663344536390403,-14.035740502097388,-3.501200480171569,61.65700000000652
313434.4497,-10.658444646159145,-10.232666334343367,-11.433801718717968,-0.31763095194915697,61.65799999999581
313434.4507,-6.47928417187151,-5.961840675306307,-7.949326754358946,3.4736279236542265,61.6589999999851
313434.4517,-1.5942317535528965,-1.0412011494653721,-3.753715230915351,7.705639639052792,61.65999999997439
313434.4527,3.7343439915280237,4.265912957254473,0.9051735265173281,12.150170649471034,61.661000000021886
313434.4537,9.188551735204456,9.64396600428489,5.723785319348873,16.536478852083476,61.662000000011176
313434.4547,14.421738777486985,14.751466216911666,10.369187570245069,20.574652422574335,61.663000000000466
313434.4557,19.088360205085593,19.25017177990257,14.508432620014693,23.98126501789227,61.663999999989755
313434.4567,22.874111870325862,22.834496044710008,17.838164079607573,26.504878192329766,61.664999999979045
313434.4577,25.52345010282017,25.258312125697852,20.11163646318809,27.94892827839072,61.66600000002654
313434.4587,26.86186851775499,26.356596680398077,21.160567727649674,28.189782492616906,61.66700000001583
313434.4597,26.81080625720307,26.059841724642713,20.909744816350685,27.188213540767467,61.66800000000512
313434.4607,25.393773345722114,24.39985455150435,19.383004947916433,24.993178133590558,61.66899999999441
313434.4617,22.73312808174844,21.506392015240998,16.700051531113445,21.73753035655551,61.6699999999837
313434.4627,19.03784551430712,17.594956161945365,13.064451495314248,17.626082785331132,61.67099999997299
313434.4637,14.583486660655298,12.946927594424986,8.744013716932812,12.917170023233872,61.67200000002049
313434.4647,9.686330056458196,7.883948206859573,4.045482749305264,7.899498283757586,61.67300000000978
313434.4657,4.674186957763838,2.7390142816958596,-0.7139735157623505,2.866519113183725,61.67399999999907
313434.4667,-0.14326568129859446,-2.1729491888041097,-5.235702421934206,-1.9091992052771336,61.67499999998836
313434.4677,-4.501764971182947,-6.582221914349603,-9.266122808723338,-6.199135689228638,61.67599999997765
313434.4687,-8.20473052180655,-10.286551765560299,-12.618336747520143,-9.837297384310302,61.677000000025146
313434.4697,-11.138399482701288,-13.166454586853714,-15.186731544045152,-12.732263277035049,61.678000000014435
313434.4707,-13.27841536481633,-15.19214389284647,-16.953205506099774,-14.871674622936878,61.679000000003725
313434.4717,-14.68730464469242,-16.42150714892292,-17.98448266734893,-16.318800663619133,61.679999999993015
313434.4727,-15.503176405734035,-16.989423882365305,-18.420864581725834,-17.201590272099306,61.680999999982305
313434.4737,-15.920847464024455,-17.089568809577944,-18.457614692425025,-17.695360725381672,61.681999999971595
313434.4747,-16.16734340197219,-16.95057752423116,-18.320899359649676,-18.000901811944093,61.68300000001909
313434.4757,-16.474281221236144,-16.809001228276223,-18.240747784904407,-18.320225214524402,61.68400000000838
313434.4767,-17.049947346517662,-16.881786826273625,-18.423787861158367,-18.8324211074905,61.68499999999767
313434.4777,-18.05391512965491,-17.34105919052546,-19.028537349106767,-19.672073250816002,61.68599999998696
313434.4787,-19.576795710817755,-18.29374967608505,-20.14577740440927,-20.912431420866984,61.68699999997625
313434.4797,-21.62720951998198,-19.768131926706833,-21.78603300251211,-22.555070384370307,61.68800000002375
313434.4807,-24.12735242630373,-21.708640099687607,-23.875481430857196,-24.527123710937126,61.68900000001304
313434.4817,-26.91768043965012,-23.97952316732994,-26.260774691803014,-26.686431278417725,61.69000000000233
313434.4827,-29.77033326143478,-26.377012532318243,-28.72237632314318,-28.834154791090402,61.69099999999162
313434.4837,-32.410048480434334,-28.64883482115985,-30.99516469865868,-30.733672937103734,61.69199999998091
313434.4847,-34.54057002512366,-30.519170354478234,-32.79432666668973,-32.13393985112272,61.6929999999702
313434.4857,-35.874000082194506,-31.716612228400773,-33.84402904615771,-32.79503902737517,61.694000000017695
313434.4867,-36.160237593744384,-32.00237476807067,-33.906063911774666,-32.51343421876052,61.695000000006985
313434.4877,-35.21361889644085,-31.195963470966618,-32.805645726080805,-31.14443203524749,61.695999999996275
313434.4887,-32.93413007370691,-29.195755181671498,-30.451796419159454,-28.619626955444748,61.696999999985565
313434.4897,-29.321071644726732,-25.99242410662541,-26.850263705915225,-24.957573576446357,61.697999999974854
313434.4907,-24.477774686189747,-21.673838862255177,-22.10762894198211,-20.266577104573972,61.69900000002235
313434.4917,-18.606823496080075,-16.42088068646722,-16.426104598908818,-14.739248461633995,61.70000000001164
313434.4927,-11.9961501695615,-10.494512623611786,-10.08941595070963,-8.639261397805889,61.70100000000093
313434.4937,-4.997242396827786,-4.2152779584800735,-3.441019799351511,-2.281498627537617,61.70199999999022
313434.4947,2.002537780802717,2.0628594702918033,3.14334845990119,3.992590750915891,61.70299999997951
313434.4957,8.610963109287587,7.981871926698017,9.286261239910424,9.842141237406064,61.70400000002701
313434.4967,14.46240125471387,13.20945110364592,14.639478271701838,14.954008721905952,61.7050000000163
313434.4977,19.246811395018476,17.466408154754873,18.912250721833587,19.067382008055862,61.70600000000559
313434.4987,22.73360653055244,20.549114036854547,21.89442988354684,21.993602482738957,61.70699999999488
313434.4997,24.788211859277478,22.344887591035185,23.472261126343174,23.629393277830463,61.70799999998417
313434.5007,25.37985871571817,22.838925408830182,23.63544783395306,23.96233877701287,61.70899999997346
313434.5017,24.580001313300237,22.112189659962567,22.474908732670418,23.06820471630315,61.710000000020955
313434.5027,22.551646924448548,20.33054717763243,20.17154355150826,21.100475049995648,61.711000000010245
313434.5037,19.530760917468104,17.72629933803542,16.977179539365984,18.273227359693706,61.711999999999534
313434.5047,15.801661291218204,14.573974832401571,13.189611594958967,14.839101079613414,61.712999999988824
313434.5057,11.668879685918906,11.162804697000531,9.12419982487162,11.064570589524223,61.713999999978114
313434.5067,7.428282788559326,7.768607530779812,5.084797014670214,7.20497390401746,61.71500000002561
313434.5077,3.3402892255455146,4.627852727473691,1.3368153528641904,3.481744448463747,61.7160000000149
313434.5087,-0.3922208158826489,1.9164371979160753,-1.914995980255172,0.06404923911667144,61.71700000000419
313434.5097,-3.6391987167193722,-0.26477038897395333,-4.541978920204404,-2.9434236553429707,61.71799999999348
313434.5107,-6.350517189869367,-1.8962467483877588,-6.498806850765618,-5.505416282816755,61.71899999998277
313434.5117,-8.554285277214396,-3.0374384185650025,-7.821967077545224,-7.653417010592892,61.71999999997206
313434.5127,-10.346705462962976,-3.8160099272781167,-8.619790798451934,-9.475741146412114,61.72100000001956
313434.5137,-11.87464366851754,-4.409870297612282,-9.05517705148597,-11.101506258648651,61.72200000000885
313434.5147,-13.31281782292507,-5.0238556689037255,-9.32288105054077,-12.680248883890027,61.72299999999814
313434.5157,-14.8380538639513,-5.863482557656745,-9.623772805466317,-14.359370121716404,61.72399999998743
313434.5167,-16.60335551087805,-7.108483519672478,-10.13876634029641,-16.261819042532224,61.72499999997672
313434.5177,-18.714556279518163,-8.888865130133885,-11.005144346885311,-18.46640272540382,61.726000000024214
313434.5187,-21.21206646897626,-11.265984157300748,-12.29775554281262,-20.992851788911814,61.727000000013504
313434.5197,-24.059719168791617,-14.220645235126707,-14.017066990011443,-23.793295866117393,61.728000000002794
313434.5207,-27.142007667843277,-17.64953039303563,-16.085360244327504,-26.751161216507075,61.728999999992084
313434.5217,-30.270162085479832,-21.370445411331435,-18.35153711362295,-29.68775583631995,61.72999999998137
313434.5227,-33.19661895189774,-25.135991203227082,-20.60412951284602,-32.37602975069345,61.73099999997066
313434.5237,-35.636582283160095,-28.65442652809495,-22.59127474838262,-34.560266582613025,61.73200000001816
313434.5247,-37.294643256641365,-31.615764283251156,-24.04570518907187,-35.97984957059015,61.73300000000745
313434.5257,-37.89389075606233,-33.72060893893498,-24.712280509209318,-36.394812014895656,61.73399999999674
313434.5267,-37.20466052224667,-34.70895043880774,-24.375313528686338,-35.61067219959932,61.73499999998603
313434.5277,-35.070065638093396,-34.38610945120926,-22.88293518384806,-33.50008784689604,61.73599999997532
313434.5287,-31.425727416468384,-32.643282979682326,-20.16601165809473,-30.019142780533947,61.73700000002282
313434.5297,-26.311657637982304,-29.47064386999965,-16.24964160643237,-25.21657255276679,61.73800000001211
313434.5307,-19.87497954026289,-24.96165395957636,-11.255973737852111,-19.23489887558985,61.7390000000014
313434.5317,-12.363044830046567,-19.308089957910795,-5.39792526910752,-12.303210667927107,61.73999999999069
313434.5327,-4.107422853053308,-12.786171953506319,1.0357322808074072,-4.72212784297281,61.74099999997998
313434.5337,4.499883519316643,-5.735039905082749,7.702608685745269,3.157765066134284,61.742000000027474
313434.5347,13.035888441604273,1.4704398608422011,14.234220067695754,10.962097932721349,61.743000000016764
313434.5357,21.07908066620803,8.450010187600808,20.266245925713196,18.32114096207537,61.744000000006054
313434.5367,28.241930097569195,14.848670856439366,25.46868216137775,24.89788964352555,61.74499999999534
313434.5377,34.20047020730163,20.364780588570163,29.57305055195802,30.413246858109492,61.74599999998463
313434.5387,38.718253654173786,24.773003614139835,32.394097455590014,34.66601226528273,61.74699999997392
313434.5397,41.662508686012906,27.939991869088672,33.843936768129865,37.545881015786186,61.74800000002142
313434.5407,43.011062823753655,29.831398247436486,33.93731381857091,39.038318217795535,61.74900000001071
313434.5417,42.84947653265484,30.50965570413455,32.78751796934924,39.22094815548551,61.75
313434.5427,41.35875828662676,30.122849561965356,30.59336944421994,38.25190322462391,61.75099999998929
313434.5437,38.79492372597836,28.885869134065683,27.618562969077836,36.35133886201906,61.75199999997858
313434.5447,35.46242923691607,27.055766057850665,24.165383710014147,33.77796371257269,61.75300000002608
313434.5457,31.684080030333067,24.903798363128992,20.545348314536657,30.80289673961163,61.75400000001537
313434.5467,27.77032973087369,22.686947623326176,17.049613228163597,27.683400365187513,61.75500000000466
313434.5477,23.99092228999395,20.621731696934667,13.922005646607536,24.63902837035697,61.755999999993946
313434.5487,20.55157495919172,18.862894380023953,11.33726816683373,21.832470650262916,61.756999999983236
313434.5497,17.577888171611676,17.489059580555253,9.38659216191746,19.356899425668242,61.757999999972526
313434.5507,15.107944912414773,16.496739879775454,8.071797413180601,17.230970053910777,61.75900000002002
313434.5517,13.094199371663054,15.803255983387567,7.308666522321337,15.40186794237711,61.76000000000931
313434.5527,11.41433673963896,15.258236249933223,6.939044859887003,13.755995699521916,61.7609999999986
313434.5537,9.889902571804756,14.66251114903724,6.750457810932431,12.136139424501964,61.76199999998789
313434.5547,8.310737399154803,13.792479856924077,6.501260610164177,10.363313620140667,61.76299999997718
313434.5557,6.462684498467806,12.427477546536085,5.9487939355616595,8.261022941907429,61.76400000002468
313434.5567,4.155721161908325,10.377366109801168,4.877723526128921,5.679440769068326,61.76500000001397
313434.5577,1.2496271254112483,7.5075381609861935,3.125723177058593,2.517012510270226,61.76600000000326
313434.5587,-2.325448730150795,3.758767633903234,0.603919401019861,-1.262755295074974,61.76699999999255
313434.5597,-6.5556552308530325,-0.8401634944185519,-2.6899724148560606,-5.621085510987111,61.76799999998184
313434.5607,-11.338754359450343,-6.168432156322072,-6.66717626226331,-10.441418505090317,61.76899999997113
313434.5617,-16.48864419750297,-12.018267822440194,-11.152556748961478,-15.534957582540304,61.77000000001863
313434.5627,-21.74873666697333,-18.108814494816595,-15.898104126272123,-20.653836811447242,61.771000000007916
313434.5637,-26.812959654953413,-24.107543904617767,-20.603953255743185,-25.51072270097793,61.771999999997206
313434.5647,-31.352395184135183,-29.657260194696008,-24.94494702954331,-29.80302233893755,61.772999999986496
313434.5657,-35.04500134883585,-34.40618257809268,-28.60020824020544,-33.23940889721514,61.773999999975786
313434.5667,-37.60555093990773,-38.03828151323639,-31.282883731064796,-35.56613598427315,61.77500000002328
313434.5677,-38.81288480886034,-40.30100620311905,-32.767200046494246,-36.590618581383666,61.77600000001257
313434.5687,-38.53182646299814,-41.027780440527444,-32.910223057698396,-36.20000968874386,61.77700000000186
313434.5697,-36.727611828414204,-40.153136717404806,-31.66622038962552,-34.372973864944655,61.77799999999115
313434.5707,-33.47140494669197,-37.71905711373084,-29.092235482630798,-31.18350559127336,61.77899999998044
313434.5717,-28.93632652292102,-33.871925785279366,-25.344326534837045,-26.796398835097413,61.77999999996973
313434.5727,-23.38433407841318,-28.850390521044417,-20.66482008691002,-21.45477046459101,61.78100000001723
313434.5737,-17.145170955031688,-22.965293068564595,-15.361790325667291,-15.460796772950731,61.78200000000652
313434.5747,-10.5893608703615,-16.573576022703666,-9.782717516413355,-9.151465721802131,61.78299999999581
313434.5757,-4.097791149972978,-10.048635574841846,-4.2848302510644976,-2.871615145015374,61.7839999999851
313434.5767,1.96925386507353,-3.749910172884984,0.7950569154561175,3.053226177161221,61.78499999997439
313434.5777,7.300708114365675,2.0054554101254376,5.16836576919618,8.34167555484744,61.786000000021886
313434.5787,11.658329184595539,6.9662569548331446,8.617635293342733,12.776734615451435,61.787000000011176
313434.5797,14.893135426577343,10.964053198650378,11.012354914337504,16.219613846200534,61.788000000000466
313434.5807,16.953225109267372,13.92171133781881,12.316342082447271,18.615964796667956,61.788999999989755
313434.5817,17.882374892813726,15.853043423925438,12.586088259515225,19.99408888958511,61.789999999979045
313434.5827,17.809716893322637,16.853778024490122,11.960381646469589,20.455477152920373,61.79100000002654
313434.5837,16.931661916256164,17.08495821329332,10.642364499975988,20.15878109304876,61.79200000001583
313434.5847,15.48798580588556,16.750590656166086,8.875914336442026,19.298948159122464,61.79300000000512
313434.5857,13.734552862057113,16.071919421598437,6.918780111536228,18.08371378231128,61.79399999999441
313434.5867,11.915460507731469,15.261008659280574,5.01520376625165,16.709881082357548,61.7949999999837
313434.5877,10.237422811973321,14.496360509502368,3.370785461667692,15.341815970630542,61.79599999997299
313434.5887,8.848964347059926,13.903065078894075,2.132105266400495,14.09434042989218,61.79700000002049
313434.5897,7.82649500269748,13.53950139608457,1.3731198521579169,13.021744933063474,61.79800000000978
313434.5907,7.168630708066937,13.391929784056485,1.0896592269436218,12.114008376774507,61.79899999999907
313434.5917,6.799284608983024,13.377504656615194,1.202524649586577,11.300573486247934,61.79999999998836
313434.5927,6.579161467716922,13.355373065985106,1.5688164068388784,10.46125096625805,61.80099999997765
313434.5937,6.324433317190177,13.144694249291858,2.000285647412726,9.443093688242056,61.802000000025146
313434.5947,5.830641494366452,12.547701492671413,2.286790751666805,8.081465688250178,61.803000000014435
313434.5957,4.899331905932642,11.375400968851489,2.222416654587148,6.223091122435445,61.804000000003725
313434.5967,3.3646404006570627,9.473215480721475,1.6315371186228385,3.7486495973426472,61.804999999993015
313434.5977,1.117032654433211,6.743863289991249,0.39209312945515906,0.592508719624875,61.805999999982305
313434.5987,-1.878330103277471,3.1650159326500127,-1.5463734780054668,-3.2425494127526,61.806999999971595
313434.5997,-5.570607549465663,-1.2002201740973222,-4.1518791385600435,-7.677269260510776,61.80800000001909
313434.6007,-9.820963309637506,-6.201254187600684,-7.307588692969321,-12.55554108261595,61.80900000000838
313434.6017,-14.409343197566606,-11.606819862420828,-10.818238033756458,-17.651952788308154,61.80999999999767
313434.6027,-19.049873359545206,-17.120191702594536,-14.424909276693606,-22.686741396463713,61.81099999998696
313434.6037,-23.4135399544143,-22.401516695443977,-17.826839267244583,-27.346869924676053,61.81199999997625
313434.6047,-27.156074933536797,-27.095250739729323,-20.708228293629467,-31.311333740165882,61.81300000002375
313434.6057,-29.94843444299283,-30.860161617498424,-22.767498075198603,-34.27835960567992,61.81400000001304
313434.6067,-31.50697102216236,-33.39907781367193,-23.746178170908504,-35.9919448721922,61.81500000000233
313434.6077,-31.620397137167963,-34.48555343868489,-23.454605415916323,-36.265215601742646,61.81599999999162
313434.6087,-30.17091714256324,-33.984886004628066,-21.791902375947974,-34.99835880964017,61.81699999998091
313434.6097,-27.147441254826955,-31.867440912057234,-18.75823156964489,-32.18937948408179,61.8179999999702
313434.6107,-22.649537084213534,-28.212954708852024,-14.45805130150313,-27.93660009918771,61.819000000017695
313434.6117,-16.881650038722626,-23.205339198764815,-9.093955788156892,-22.432594664437943,61.820000000006985
313434.6127,-10.138048598198681,-17.118408002482518,-2.95158361856209,-15.950056053870608,61.820999999996275
313434.6137,-2.779834242901182,-10.293808923279588,3.6230632752776724,-8.820856272893893,61.821999999985565
313434.6147,4.793887251290975,-3.113185707252295,10.251816710164299,-1.4102006633515902,61.822999999974854
313434.6157,12.178020063451523,4.032860481191607,16.55544901289023,5.911763380258397,61.82400000002235
313434.6167,18.993723423785667,10.77613953514218,22.184800512934306,12.798289338404643,61.82500000001164
313434.6177,24.91791542044563,16.79967641963558,26.849034472834582,18.951747827733254,61.82600000000093
313434.6187,29.707331859306397,21.861310524215526,30.338400663753912,24.144400513305726,61.82699999999022
313434.6197,33.214964787640994,25.80995792131428,32.53941564819917,28.23239994887953,61.82799999997951
313434.6207,35.39744192979456,28.59311600907108,33.44109594573622,31.161841632548434,61.82900000002701
313434.6217,36.31278159307643,30.25503680653413,33.13173893639595,32.96646245589448,61.8300000000163
313434.6227,36.10888262752493,30.925894487709957,31.786652208912272,33.75738271679975,61.83100000000559
313434.6237,35.0039958480094,30.8031371955812,29.648097141006062,33.70604888268117,61.83199999999488
313434.6247,33.26118585947745,30.126958860106868,26.99945288939544,33.022177585811924,61.83299999998417
313434.6257,31.159356599161768,29.152381414967632,24.136150964110925,31.928965685379872,61.83399999997346
313434.6267,28.963725679049166,28.12074792966532,21.336225660109474,30.6380720086409,61.835000000020955
313434.6277,26.898662048238663,27.233463116509657,18.833343618338976,29.326870873037112,61.836000000010245
313434.6287,25.12554645377546,26.63057657642024,16.79491551885573,28.120227084573262,61.836999999999534
313434.6297,23.727800274136285,26.376310171550802,15.307380317599371,27.07857212696691,61.837999999988824
313434.6307,22.704506365777267,26.452932843089243,14.370038028326347,26.193418438432705,61.838999999978114
313434.6317,21.973186657114965,26.76355265472895,13.8979609242056,25.39069656730237,61.84000000002561
313434.6327,21.381389661817476,27.143508581715004,13.733618029413863,24.541512724210072,61.8410000000149
313434.6337,20.725866189388686,27.37919045629431,13.665991369006107,23.47917923416074,61.84200000000419
313434.6347,19.777358911386962,27.23237804275028,13.455228221551412,22.020740791633933,61.84299999999348
313434.6357,18.30847462640368,26.467641466646683,12.860333092726428,19.990766967552677,61.84399999998277
313434.6367,16.12180134196249,24.880038660169756,11.667108791540794,17.244950388873807,61.84499999997206
313434.6377,13.075405415139322,22.32031087859526,9.713536202974591,13.691062923435744,61.84600000001956
313434.6387,9.10309931389896,18.715017849478077,6.910038591516095,9.30507761857599,61.84700000000885
313434.6397,4.227382812816381,14.079545996031486,3.2525830233900446,4.14073683809676,61.84799999999814
313434.6407,-1.4363207621535687,8.522618133754989,-1.1727212292617606,-1.668509503617389,61.84899999998743
313434.6417,-7.684656824945531,2.2417629635974534,-6.194029193465385,-7.915520746448783,61.84999999997672
313434.6427,-14.240176943076216,-4.4899136772799295,-11.566786576774206,-14.332977753196243,61.851000000024214
313434.6437,-20.77276760684492,-11.344462935918497,-16.99414235568868,-20.613189656797353,61.852000000013504
313434.6447,-26.926668071663002,-17.965404554740665,-22.152786680041867,-26.432368770115843,61.853000000002794
313434.6457,-32.3505215243001,-23.997140759972133,-26.721718547314865,-31.477099469854164,61.853999999992084
313434.6467,-36.72759948392267,-29.114690924183314,-30.41115783661644,-35.47050042372203,61.85499999998137
313434.6477,-39.80331380908443,-33.05093001016773,-32.98879941709039,-38.19559678302222,61.85599999997066
313434.6487,-41.40738633072753,-35.618752369943884,-34.30086459294754,-39.51367830168001,61.85700000001816
313434.6497,-41.46855786440819,-36.72607155721267,-34.285911667115606,-39.37589545464187,61.85800000000745
313434.6507,-40.02043605639213,-36.38225840828267,-32.98007307813492,-37.82699199126955,61.85899999999674
313434.6517,-37.19793498461243,-34.69544600021283,-30.5132220982874,-35.00082581034252,61.85999999998603
313434.6527,-33.224665258943176,-31.861010347938866,-27.09645550962794,-31.10811697506151,61.86099999997532
313434.6537,-28.392503100434727,-28.142383817626683,-23.002123395643125,-26.417605260293968,61.86200000002282
313434.6547,-23.03531569493198,-23.84609142108744,-18.53836044532764,-21.23242729583606,61.86300000001211
313434.6557,-17.499375087513744,-19.293446975245782,-14.020604164588816,-15.863973989505045,61.8640000000014
313434.6567,-12.113300112962204,-14.79165345912422,-9.742872218293554,-10.60571870988184,61.86499999999069
313434.6577,-7.160395732013933,-10.6070902042554,-5.951585850412023,-5.7094935614820805,61.86599999997998
313434.6587,-2.8560092171573928,-6.943335648658585,-2.8244677241184557,-1.3664366834285535,61.867000000027474
313434.6597,0.6679821540474957,-3.925991807207259,-0.4565361883810557,2.3056368378101695,61.868000000016764
313434.6607,3.370147017519492,-1.5956932738020368,1.1454861773296043,5.267327683062997,61.869000000006054
313434.6617,5.297379446113947,0.09013296207155017,2.0598645448908433,7.55484219616546,61.86999999999534
313434.6627,6.574018980651308,1.2470597621000012,2.4380383912982433,9.269692422334112,61.87099999998463
313434.6637,7.383408942866909,2.0461431695736394,2.4855360266584543,10.562055202650773,61.87199999997392
313434.6647,7.943831191684937,2.6909566696093825,2.437567447614914,11.609559528196893,61.87300000002142
313434.6657,8.481302848689452,3.3915708710166097,2.531769933758443,12.593715208198855,61.87400000001071
313434.6667,9.202021339971472,4.338169101852148,2.9808604827778145,13.676419924020214,61.875
313434.6677,10.267269114328426,5.677017845113852,3.9479569861660027,14.978964158998108,61.87599999998929
313434.6687,11.773336446126603,7.491269263412476,5.5270652099405115,16.565696294456636,61.87699999997858
313434.6697,13.738514961041991,9.788585333511222,7.730717173666856,18.43403886268,61.87800000002608
313434.6707,16.098505897381372,12.496887621680088,10.486038648128371,20.51190808502113,61.87900000001537
313434.6717,18.710745498531548,15.468721234183816,13.639688740238517,22.662845378626155,61.88000000000466
313434.6727,21.36725822433158,18.493856527247043,16.971234897609666,24.69839473143582,61.880999999993946
313434.6737,23.814794471847527,21.31892318621907,20.213688571208685,26.39653004342171,61.881999999983236
313434.6747,25.780277296355834,23.672160189384794,23.07921260965387,27.52432362937922,61.882999999972526
313434.6757,26.999044347483533,25.290842287187353,25.28749149371789,27.862611537646,61.88400000002002
313434.6767,27.243079975154686,25.94866079043521,26.593981018137786,27.230196239676218,61.88500000000931
313434.6777,26.346417065541146,25.480321917086705,26.815252215209956,25.50515405755136,61.8859999999986
313434.6787,24.22515041711143,23.80088156500567,25.848915699717093,22.641081169203463,61.88699999998789
313434.6797,20.890017892130427,20.917836454230436,23.686130928389986,18.67659240418689,61.88799999997718
313434.6807,16.45022196002614,16.934689257012817,20.415419625139098,13.737034562835689,61.88900000002468
313434.6817,11.108012541062351,12.045531381100757,16.21734406408869,8.028127486555043,61.89000000001397
313434.6827,5.1444492624509435,6.521060593941786,11.350496816849834,1.8220281722014189,61.89100000000326
313434.6837,-1.1023804572304756,0.687286045929609,6.130092354794376,-4.562950586829798,61.89199999999255
313434.6847,-7.264675685988963,-5.101111477439292,0.901170039581537,-10.78711723186789,61.89299999998184
313434.6857,-12.975216296391604,-10.490271289919821,-3.9910577971500176,-16.51638438485755,61.89399999997113
313434.6867,-17.897792244509468,-15.156720696144161,-8.230901052442464,-21.448949413843348,61.89500000001863
313434.6877,-21.754906335378934,-18.834229978177135,-11.559114168563331,-25.33918861533019,61.896000000007916
313434.6887,-24.350150509431572,-21.33542346508053,-13.794498697996545,-28.016545804264403,61.896999999997206
313434.6897,-25.58316944476167,-22.56611990791017,-14.848155986262013,-29.397675567599048,61.897999999986496
313434.6907,-25.455840967304574,-22.531076595411992,-14.729073461420278,-29.49074878474142,61.898999999975786
313434.6917,-24.069150367356876,-21.33064135461939,-13.540568716165556,-28.391580089342593,61.90000000002328
313434.6927,-21.611132371230042,-19.148693741882287,-11.468001145140699,-26.272020404726046,61.90100000001257
313434.6937,-18.337112633668504,-16.233095680829063,-8.759004814783715,-23.36179619340637,61.90200000000186
313434.6947,-14.54421648766959,-12.870590652249668,-5.698216082195013,-19.92559874985475,61.90299999999115
313434.6957,-10.542654656562789,-9.358619180829198,-2.5789950225535865,-16.23767135350798,61.90399999998044
313434.6967,-6.626591099241622,-5.976805332200911,0.3250801878203898,-12.556366385108078,61.90499999996973
313434.6977,-3.0474187123519534,-2.9608864399760346,2.7861592503067905,-9.101127161747872,61.90600000001723
313434.6987,0.007987209727547248,-0.48160491647486053,4.64298480815808,-6.034092478169563,61.90700000000652
313434.6997,2.4319744490415753,1.369418139825401,5.814667317574594,-3.4480512775595398,61.90799999999581
313434.7007,4.2024221803897905,2.5855036065804,6.306068538684484,-1.3618370237825517,61.9089999999851
313434.7017,5.380134119369343,3.2419293995471516,6.204326948491314,0.2764909608937511,61.90999999997439
313434.7027,6.097684915235871,3.484511536709645,5.666937206399685,1.5791057007374698,61.911000000021886
313434.7037,6.5409357718181464,3.510956214034899,4.902632596214663,2.7016660555492433,61.912000000011176
313434.7047,6.925160676755053,3.5469015367002106,4.147031904343518,3.822134358508307,61.913000000000466
313434.7057,7.468256566032304,3.8190914668876528,3.635530464696493,5.1173639505448705,61.913999999989755
313434.7067,8.363796998256978,4.528407409051631,3.576188177581857,6.7398801974600815,61.914999999979045
313434.7077,9.75670136232236,5.825496939672286,4.125368335635514,8.797256082641717,61.91600000002654
313434.7087,11.724029100199544,7.791483117487912,5.3686099122522,11.336222954018034,61.91700000001583
313434.7097,14.262896727848654,10.425736665572387,7.308699155455445,14.333184150479045,61.91800000000512
313434.7107,17.28680491712414,13.641996196207666,9.862194570010844,17.692160576464335,61.91899999999441
313434.7117,20.63082347011934,17.273296866031426,12.864822506017823,21.250455666461455,61.9199999999837
313434.7127,24.06519631321014,21.085296252357583,16.08528076377501,24.791555558869916,61.92099999997299
313434.7137,27.316083930759408,24.79675331413695,19.24615130556491,28.064054649173364,61.92200000002049
313434.7147,30.091440290838822,28.105203796021666,22.049912575817245,30.80478853057304,61.92300000000978
313434.7157,32.10949652150465,30.715353373748105,24.20752706176383,32.76392570276736,61.92399999999907
313434.7167,33.12704649684068,32.36742965412766,25.466811452488265,33.729559017062684,61.92499999998836
313434.7177,32.96472795471204,32.86272362422988,25.637801838447473,33.549368741610536,61.92599999997765
313434.7187,31.526767639105557,32.083811703968735,24.6126048463328,32.147198828044736,61.927000000025146
313434.7197,28.8131839424161,30.00745606826813,22.37775065866606,29.53287046010787,61.928000000014435
313434.7207,24.923164719329733,26.708884144495475,19.017784577218045,25.80420537622592,61.929000000003725
313434.7217,20.049190814702943,22.356979636315067,14.709679994918757,21.140982559680516,61.929999999993015
313434.7227,14.46237410601055,17.200795954667882,9.708544822687593,15.791332313164693,61.930999999982305
313434.7237,8.49033462577669,11.548642764378858,4.325938763354023,10.051805149502972,61.931999999971595
313434.7247,2.4896707410365493,5.741715429598217,-1.097162276053349,4.242967530218193,61.93300000001909
313434.7257,-3.184392184312162,0.12476518310219409,-6.220196211073417,-1.3171879704211171,61.93400000000838
313434.7267,-8.2083080566092,-4.983406768288392,-10.732806602861949,-6.339516761963934,61.93499999999767
313434.7277,-12.317601676535448,-9.316833160961405,-14.381764277986795,-10.587208424249555,61.93599999998696
313434.7287,-15.32875204028515,-12.684101751701636,-16.992462367600897,-13.894282142682666,61.93699999997625
313434.7297,-17.153501827413113,-14.982876727665037,-18.482952248999474,-16.177371864440598,61.93800000002375
313434.7307,-17.804256793939658,-16.20588522541761,-18.869208982749385,-17.439731791100424,61.93900000001304
313434.7317,-17.390098047092508,-16.437864302609118,-18.261162943084443,-17.767146305867634,61.94000000000233
313434.7327,-16.103835756231078,-15.843842033534871,-16.84992678044681,-17.31621164350669,61.94099999999162
313434.7337,-14.201396453878495,-14.649966633618861,-14.887496650936347,-16.296193024097086,61.94199999998091
313434.7347,-11.975573469372607,-13.118817556917412,-12.660930992791851,-14.946278648215623,61.9429999999702
313434.7357,-9.726709293818255,-11.521662045318953,-10.463538489925275,-13.51049058502301,61.944000000017695
313434.7367,-7.733167229117273,-10.11040800346621,-8.565887866813188,-12.21272941425061,61.945000000006985
313434.7377,-6.224459458124376,-9.092021425954004,-7.189458623287073,-11.234403483056605,61.945999999996275
313434.7387,-5.359628874672602,-8.607922472928681,-6.4854833986528915,-10.696827582532665,61.946999999985565
313434.7397,-5.212959158891683,-8.720373840119645,-6.5210158790405695,-10.650096036851558,61.947999999974854
313434.7407,-5.768362950679509,-9.407177599049712,-7.273543826029768,-11.069488879474811,61.94900000002235
313434.7417,-6.922942569600845,-10.565170794749266,-8.634624996229975,-11.859720528575885,61.95000000001164
313434.7427,-8.49931534078157,-12.022136959333524,-10.422136953218585,-12.866561810493206,61.95100000000093
313434.7437,-10.265434578038708,-13.555916122143364,-12.399886898667,-13.894634813955651,61.95199999999022
313434.7447,-11.959901935296573,-14.918781862174745,-14.302607355030984,-14.729567739261288,61.95299999997951
313434.7457,-13.320229122309842,-15.864630604859244,-15.863838239138687,-15.162263790413947,61.95400000002701
313434.7467,-14.11121947205447,-16.17624713866775,-16.843916837435806,-15.012826804972692,61.9550000000163
313434.7477,-14.15063060488856,-15.689898877937482,-17.055291522225016,-14.151717520171593,61.95600000000559
313434.7487,-13.329549255787425,-14.31477091173413,-16.382643016006273,-12.515985125751737,61.95699999999488
313434.7497,-11.625431678916422,-12.045258950950515,-14.795812078380555,-10.118902539006587,61.95799999998417
313434.7507,-9.106486653358987,-8.964838418851029,-12.354243912842332,-7.051983235202949,61.95899999997346
313434.7517,-5.926932015668181,-5.241056384554659,-9.202497407084408,-3.4791087977251953,61.960000000020955
313434.7527,-2.313556115625544,-1.1120675710799175,-5.557249215362844,0.37672408263498747,61.961000000010245
313434.7537,1.455125651486287,3.134029508752896,-1.687062067884179,4.252797133305789,61.961999999999534
313434.7547,5.075096243169757,7.185087054973863,2.11309884429929,7.8703533104319385,61.962999999988824
313434.7557,8.245886269805643,10.733542399074356,5.550098131756463,10.960286615120873,61.963999999978114
313434.7567,10.699604472338185,13.505023126293443,8.360834429846642,13.28834825741737,61.96500000002561
313434.7577,12.22710034365341,15.28414573741636,10.33763936169282,14.677413504540485,61.9660000000149
313434.7587,12.698682742870853,15.934994337772284,11.34836646141163,15.024628824391218,61.96700000000419
313434.7597,12.077343911821734,15.414275576323023,11.349184030618853,14.311747883145006,61.96799999999348
313434.7607,10.423165288432807,13.775852256967333,10.388800146881685,12.607620051355852,61.96899999998277
313434.7617,7.888438942281038,11.166191835225389,8.603687784929658,10.06255251292242,61.96999999997206
313434.7627,4.703942562121814,7.8111460027982,6.204760928209516,6.895053007979897,61.97100000001956
313434.7637,1.157668332877654,3.9953177946343708,3.456792053657317,3.3721979999042135,61.97200000000885
313434.7647,-2.431957576920881,0.03599101940842107,0.6525750963632638,-0.2145113686068637,61.97299999999814
313434.7657,-5.745789870967271,-3.745876911494312,-1.9156441406360551,-3.5755060751308347,61.97399999998743
313434.7667,-8.493750702857797,-7.054814966880528,-3.984677100279691,-6.449205409886284,61.97499999997672
313434.7677,-10.441816720916801,-9.647356011540538,-5.346050578137459,-8.625289393096253,61.976000000024214
313434.7687,-11.43360656313995,-11.353377458017253,-5.8662993411894435,-9.962975641211191,61.977000000013504
313434.7697,-11.404493463441938,-12.090238414704052,-5.49990155880697,-10.402575039963118,61.978000000002794
313434.7707,-10.38689453780401,-11.868391667207185,-4.29358384209362,-9.969254036181049,61.978999999992084
313434.7717,-8.506246465460586,-10.787982059139527,-2.3815666682797656,-8.76868837103389,61.97999999998137
313434.7727,-5.968082835069277,-9.026822784996382,0.027792151015471892,-6.975079767617123,61.98099999997066
313434.7737,-3.0374929137252167,-6.82098164520788,2.672655370224614,-4.812746681461068,61.98200000001816
313434.7747,-0.012980553130822154,-4.439928158775855,5.263648637599197,-2.5331205569102555,61.98300000000745
313434.7757,2.8027168147069954,-2.1587192069825547,7.512550816636802,-0.38941960405740916,61.98399999999674
313434.7767,5.131998459665994,-0.22998402963447284,9.16092428970321,1.3885099951026592,61.98499999998603
313434.7777,6.749097471905444,1.141518772863961,10.00588036678583,2.6167214522622655,61.98599999997532
313434.7787,7.501510346018072,1.819260146617832,9.920452665201521,3.174866289290874,61.98700000002282
313434.7797,7.32408621497198,1.74821065040683,8.866576664063935,3.0173495004284594,61.98800000001211
313434.7807,6.244426738017401,0.9597211886849598,6.899395280981596,2.176874758060262,61.9890000000014
313434.7817,4.379102715420539,-0.4324540679277118,4.1624577212641425,0.760066219521876,61.98999999999069
313434.7827,1.921095967164729,-2.2445829956492016,0.8742691197865637,-1.0643639590514908,61.99099999997998
313434.7837,-0.8802635943608708,-4.242581618697984,-2.6925054804292996,-3.083697724290407,61.992000000027474
313434.7847,-3.744859855416182,-6.166878188752226,-6.237160286860387,-5.063721713780558,61.993000000016764
313434.7857,-6.390307163395382,-7.760029884825368,-9.459846954330867,-6.773408324905432,61.994000000006054
313434.7867,-8.560589477666388,-8.794328475926793,-12.09043460649119,-8.009294800324342,61.99499999999534
313434.7877,-10.051980053670698,-9.096624751521274,-13.914516552577725,-8.617116870922418,61.99599999998463
313434.7887,-10.733669326892416,-8.567867655351842,-14.794025677295236,-8.50852315070264,61.99699999997392
313434.7897,-10.561051094396166,-7.195367066321589,-14.680445548548128,-7.671180387305044,61.99800000002142
313434.7907,-9.580341089694384,-5.056499091312524,-13.619326020991036,-6.171230449378234,61.99900000001071
313434.7917,-7.924056631349016,-2.313410311535853,-11.745660012161744,-4.147813833474484,62.0
313434.7927,-5.797787425268015,0.800839131882166,-9.27056937836355,-1.8001576317021244,62.00099999998929
313434.7937,-3.4595474463779006,4.0034107515311215,-6.460595384232207,0.6315384485492632,62.00199999997858
313434.7947,-1.1937317935747058,6.988098314862004,-3.611610386208677,2.8895684369526635,62.00300000002608
313434.7957,0.717761528622424,9.454484327839289,-1.0198916368609783,4.724253419709261,62.00400000001537
313434.7967,2.024399487906849,11.137031477660765,1.046825605082789,5.919043649526397,62.00500000000466
313434.7977,2.5330194749979373,11.831289717482,2.375497149160724,6.3127226649844275,62.005999999993946
313434.7987,2.1283932734778195,11.414665559090453,2.8285763381255555,5.816519442282552,62.006999999983236
313434.7997,0.7862967744402741,9.859714815084258,2.357455088348348,4.4244224451878,62.007999999972526
313434.8007,-1.4222390727351295,7.238633750140098,1.0072359031361795,2.215644905785662,62.00900000002002
313434.8017,-4.3359613952518625,3.718467183323277,-1.0876225935705852,-0.6510500733247923,62.01000000000931
313434.8027,-7.717271756801028,-0.4525563393882985,-3.7163536618637694,-3.950666969893658,62.0109999999986
313434.8037,-11.27364028692962,-4.9662991936905545,-6.6123434177067955,-7.411698369588828,62.01199999998789
313434.8047,-14.684513691468668,-9.481604490327587,-9.479002148770846,-10.740386808108266,62.01299999997718
313434.8057,-17.631133274838103,-13.654267337113138,-12.018517398909955,-13.647224167289833,62.01400000002468
313434.8067,-19.826390504549313,-17.16725957137473,-13.960681726809256,-15.87316628008192,62.01500000001397
313434.8077,-21.04183881113946,-19.758358995532667,-15.088984084559216,-17.213066544965802,62.01600000000326
313434.8087,-21.129252298673993,-21.242588302006876,-15.261424631496169,-17.534100654965254,62.01699999999255
313434.8097,-20.03464845992672,-21.527373259508938,-14.42403188988239,-16.78743880944785,62.01799999998184
313434.8107,-17.803421598840636,-20.619035099972987,-12.615777583090793,-15.012074738262044,62.01899999997113
313434.8117,-14.57609534849973,-18.620069613811218,-9.964428102445916,-12.330478831764625,62.02000000001863
313434.8127,-10.575112398639934,-15.717553635960368,-6.673759723870584,-8.936531732454538,62.021000000007916
313434.8137,-6.0839485533824105,-12.163871938032623,-3.0034104831096564,-5.076938009984121,62.021999999997206
313434.8147,-1.420581710604064,-8.251691163772907,0.7566377926921813,-1.027944634734596,62.022999999986496
313434.8157,3.092108301159026,-4.285651148761883,4.3144289771970366,2.930364908665518,62.023999999975786
313434.8167,7.1561391416922735,-0.553545150657129,7.404457706494287,6.539706147149515,62.02500000002328
313434.8177,10.52554091852593,2.7002096797025557,9.813350843401,9.586683972034473,62.02600000001257
313434.8187,13.028170626363112,5.296254145041288,11.400277756900623,11.921124402910294,62.02700000000186
313434.8197,14.580132984208316,7.135056847158306,12.11008164889106,13.467911316609447,62.02799999999115
313434.8207,15.191441739148397,8.203401233741971,11.977841327192952,14.231237244579752,62.02899999998044
313434.8217,14.962415672905951,8.572044547732991,11.124417065820463,14.290927994898157,62.02999999996973
313434.8227,14.071212514834286,8.384879553586595,9.743422729721548,13.791282869695577,62.03100000001723
313434.8237,12.753772698504855,7.840770555610358,8.080911985897739,12.923608842630978,62.03200000000652
313434.8247,11.278188269315192,7.169957685188492,6.409786133696496,11.904245941374576,62.03299999999581
313434.8257,9.916057386413463,6.607456748476159,5.001454117224243,10.95032153790305,62.0339999999851
313434.8267,8.913678308805027,6.366173781079563,4.09755013460145,10.255690121181852,62.03499999997439
313434.8277,8.465949731496032,6.612475335692987,3.8845137531488523,9.969491034635652,62.036000000021886
313434.8287,8.695575571234157,7.44670551561617,4.473561399645548,10.179492112979963,62.037000000011176
313434.8297,9.639648163930163,8.890643725603287,5.888053376987774,10.90190829656855,62.038000000000466
313434.8307,11.244955757208746,10.883202232167372,8.059538427210148,12.078738350899656,62.038999999989755
313434.8317,13.372499603672269,13.284838576066262,10.83290896357962,13.58291341426783,62.039999999979045
313434.8327,15.810797324032887,15.890286040200982,13.980207533293388,15.230772047864109,62.04100000002654
313434.8337,18.296681664849373,18.4483718254944,17.221776251743652,16.8006444974674,62.04200000001583
313434.8347,20.54156243476184,20.686979631804395,20.252719004088682,18.05571610239868,62.04300000000512
313434.8357,22.260576989546298,22.340691418348356,22.772121854587777,18.76890661398363,62.04399999999441
313434.8367,23.20176435695414,23.178363873342708,24.51220170540414,18.7472913917748,62.0449999999837
313434.8377,23.172388427647338,23.027886334273386,25.264553796888954,17.853622984850865,62.04599999997299
313434.8387,22.05980756201794,21.79562975554815,24.90094512660469,16.022784551676367,62.04700000002049
313434.8397,19.844814859974196,19.478605302977513,23.386626280377573,13.271493408862462,62.04800000000978
313434.8407,16.606103634554046,16.168056555316625,20.784857182511868,9.700226222120598,62.04899999999907
313434.8417,12.515374850321821,12.04404209372514,17.252192263760588,5.487093127777361,62.04999999998836
313434.8427,7.823513086986273,7.361443909700238,13.024964532319562,0.8741724945391823,62.05099999997765
313434.8437,2.8391260159689353,2.428675479999654,8.398258798158508,-3.8524456331670014,62.052000000025146
313434.8447,-2.0985154076696895,-2.41892062513961,3.6993889265515914,-8.38704317701579,62.053000000014435
313434.8457,-6.649555258305994,-6.848472318766861,-0.7415780328190466,-12.430784777023467,62.054000000003725
313434.8467,-10.503776668402613,-10.558982024361104,-4.621427911534438,-15.717843059886501,62.054999999993015
313434.8477,-13.408086614641674,-13.307934421662457,-7.690707518966678,-18.038657193851943,62.055999999982305
313434.8487,-15.188645052905128,-14.932571581128864,-9.77537630401781,-19.25811587013577,62.056999999971595
313434.8497,-15.7655446869816,-15.363810267658888,-10.791160975684276,-19.32694270446574,62.05800000001909
313434.8507,-15.158673101220176,-14.631484215691112,-10.74928751812841,-18.285215929602487,62.05900000000838
313434.8517,-13.484246032226057,-12.860430082764424,-9.753107087581204,-16.257711397493896,62.05999999999767
313434.8527,-10.942405271716598,-10.257818076675917,-7.9860188537463985,-13.441544517125365,62.06099999998696
313434.8537,-7.797138605487729,-7.092970918814478,-5.691937227990984,-10.087326166589621,62.06199999997625
313434.8547,-4.350517938521585,-3.6716357508949833,-3.150270637076383,-6.475667825841989,62.06300000002375
313434.8557,-0.9137933332948399,-0.30720263258898867,-0.6479039019230114,-2.8913118481135314,62.06400000001304
313434.8567,2.2218275062431836,2.70835099623594,1.549044619412331,0.4026188403081635,62.06500000000233
313434.8577,4.811870815342868,5.13099572485461,3.220913511905053,3.1877822704912866,62.06599999999162
313434.8587,6.680180637650649,6.786128577843385,4.2151250840854795,5.308986345070581,62.06699999998091
313434.8597,7.7333331010348045,7.582961470773317,4.459749519476105,6.686041039719069,62.0679999999702
313434.8607,7.966537104692675,7.520487801805698,3.9687152181610723,7.318016563654159,62.069000000017695
313434.8617,7.460525445478751,6.6845246285380115,2.838207383284266,7.279580380948128,62.070000000006985
313434.8627,6.36983500414877,5.236204279449401,1.2346735008649632,6.709866032168791,62.070999999996275
313434.8637,4.903727695087767,3.3931268337664435,-0.6243120167040558,5.795060005426759,62.071999999985565
313434.8647,3.301731506127574,1.405101663935684,-2.4943631621828946,4.74650757073978,62.072999999974854
313434.8657,1.8063115349954313,-0.4730679622975533,-4.131302955840988,3.776574267658612,62.07400000002235
313434.8667,0.6354622750593304,-2.0090197650884876,-5.318146189940544,3.0747139638230614,62.07500000001164
313434.8677,-0.041983157648726566,-3.0177358565059405,-5.889304419796398,2.7861661963479145,62.07600000000093
313434.8687,-0.12580406598827065,-3.38142125423958,-5.749548107622568,2.9954378119893637,62.07699999999022
313434.8697,0.4033959183504695,-3.062367223376403,-4.885780103823805,3.7162432226710984,62.07799999997951
313434.8707,1.4804930897904753,-2.107508281849346,-3.3703873768325905,4.888931322484133,62.07900000002701
313434.8717,2.961090896958379,-0.6442079833027542,-1.3557739789984031,6.385678991974838,62.0800000000163
313434.8727,4.635242619151995,1.1323192830336273,0.9394446071987457,8.022954896930493,62.08100000000559
313434.8737,6.248331687332732,2.9787110831866346,3.251273728723579,9.580029507519344,62.08199999999488
313434.8747,7.527069538557846,4.628334653687118,5.296181818445959,10.821699716987398,62.08299999998417
313434.8757,8.208047987198283,5.818871428589748,6.799428275578782,11.522969127440673,62.08399999997346
313434.8767,8.066011510874114,6.319864769854148,7.523091955182615,11.493220294480844,62.085000000020955
313434.8777,6.939021877945062,5.957482020139183,7.291027810154621,10.59745341923835,62.086000000010245
313434.8787,4.747973156167529,4.634007686071161,6.008264279192748,8.772443700137586,62.086999999999534
313434.8797,1.5084519622308108,2.340095334047139,3.6728841125354545,6.036159808099574,62.087999999988824
313434.8807,-2.6663262225690283,-0.8414883200390146,0.379154969389691,2.4894408171319027,62.088999999978114
313434.8817,-7.571910398276937,-4.741061768061426,-3.688477223985837,-1.6903157168378238,62.09000000002561
313434.8827,-12.927836111205796,-9.115727853427162,-8.270032154098743,-6.2629200286959295,62.0910000000149
313434.8837,-18.40031400701915,-13.670297280051232,-13.051935554339446,-10.945344715719672,62.09200000000419
313434.8847,-23.63029101215511,-18.08344878728175,-17.69420338836995,-15.435992085190891,62.09299999999348
313434.8857,-28.26426000677401,-22.036620378417304,-21.86030313610744,-19.44097127123495,62.09399999998277
313434.8867,-31.984917010773543,-25.24285240809416,-25.24686035245041,-22.699878715697626,62.09499999997206
313434.8877,-34.53876886563183,-27.472801130087117,-27.61038824773499,-25.00861645785029,62.09600000001956
313434.8887,-35.758079122827056,-28.57541095407888,-28.788501649980933,-26.237064021142473,62.09700000000885
313434.8897,-35.575077898207525,-28.491248999702762,-28.71360685672083,-26.33991421365062,62.09799999999814
313434.8907,-34.027100639193954,-27.25721633397498,-27.417783992113925,-25.35964268202544,62.09899999998743
313434.8917,-31.252189253602698,-25.00218713333606,-25.028427933825725,-23.421341220792836,62.09999999997672
313434.8927,-27.475602411054215,-21.934008144234248,-21.755104899805726,-20.719931416767796,62.101000000024214
313434.8937,-22.98855121466289,-18.319130068479836,-17.86892756318738,-17.501011375765735,62.102000000013504
313434.8947,-18.121217312317572,-14.456857767626934,-13.676469690746195,-14.037202125465784,62.103000000002794
313434.8957,-13.212650889372645,-10.650727455310394,-9.490761845797794,-10.602291859668176,62.103999999992084
313434.8967,-8.580433464057629,-7.179795275615428,-5.602182036796272,-7.445683358041174,62.10499999998137
313434.8977,-4.492997310199941,-4.272625765199246,-2.252052963364984,-4.769612510229446,62.10599999997066
313434.8987,-1.1472193914102935,-2.0865002190547517,0.38851881273733746,-2.711327658361016,62.10700000001816
313434.8997,1.3466199222668385,-0.6938501731075193,2.23254958991312,-1.3319277849354811,62.10800000000745
313434.9007,2.971152423508435,-0.07721047085441932,3.2825375203471716,-0.6129006516850243,62.10899999999674
313434.9017,3.799010424038025,-0.13314930248454895,3.626823713493995,-0.46064425613305693,62.10999999998603
313434.9027,3.9810916278185156,-0.6847512045100257,3.427390931264636,-0.7184707027774444,62.11099999997532
313434.9037,3.727266571774306,-1.501389667425577,2.9003763627231773,-1.1848576616381634,62.11200000002282
313434.9047,3.2815296871030477,-2.3238110012786652,2.291288920991541,-1.6361009379920848,62.11300000001211
313434.9057,2.894130873814126,-2.892030565969112,1.8474384821727905,-1.8510922314159672,62.1140000000014
313434.9067,2.7935089233232975,-2.9732674419716165,1.7903539044993717,-1.6357409659546776,62.11499999999069
313434.9077,3.1608536615467884,-2.387141084771738,2.29096225214624,-0.8445981634471359,62.11599999997998
313434.9087,4.1098502275109805,-1.025623733547016,3.45002401256996,0.6024802316266742,62.117000000027474
313434.9097,5.6736337730495885,1.134241165799746,5.285795670268016,2.7103009185367375,62.118000000016764
313434.9107,7.800258108987449,4.026132172348856,7.730173340494874,5.405945406014194,62.119000000006054
313434.9117,10.357129069895672,7.499194511897042,10.633729893119968,8.544284033830579,62.11999999999534
313434.9127,13.143956811673794,11.331294631213325,13.779175857874872,11.920867213469217,62.12099999998463
313434.9137,15.912929357036974,15.249504662267768,16.901938152221735,15.290938797476375,62.12199999997392
313434.9147,18.394086506153354,18.955823622474973,19.715842557315366,18.39270931375356,62.12300000002142
313434.9157,20.32335009563499,22.15562423304462,21.94137555006904,20.972602653641843,62.12400000001071
313434.9167,21.470395187539328,24.5860424155797,23.333738826035553,22.809990463232733,62.125
313434.9177,21.663553997355653,26.041527572586674,23.707921515556972,23.738973667986127,62.12599999998929
313434.9187,20.80922970492944,26.394045663414918,22.95829971121042,23.665055962450005,62.12699999997858
313434.9197,18.903832843552987,25.605947092669837,21.070802702206667,22.575051824713064,62.12800000002608
313434.9207,16.036986203373502,23.73422664027953,18.126408398662893,20.539232908956464,62.12900000001537
313434.9217,12.385603107425569,20.925743041403216,14.295575992765247,17.70547668210412,62.13000000000466
313434.9227,8.199344098166833,17.403849045673784,9.824109078785568,14.285965326224378,62.130999999993946
313434.9237,3.7788099563217696,13.447722305491219,5.011780467175324,10.537714236362657,62.131999999983236
313434.9247,-0.5514494266833311,9.366400980608823,0.18575860943807496,6.7388160518276505,62.132999999972526
313434.9257,-4.472511662482428,5.470045545814065,-4.328614610346012,3.162708406086943,62.13400000002002
313434.9267,-7.700379996150629,2.0412191796606813,-8.236884000351646,0.05296985407590606,62.13500000000931
313434.9277,-10.012154011666553,-0.6910233107178753,-11.301581957912004,-2.39890073664492,62.1359999999986
313434.9287,-11.266518365393331,-2.571723638823348,-13.362859861936238,-4.070556074951506,62.13699999998789
313434.9297,-11.416540387597767,-3.5332926411719097,-14.351671835440044,-4.919061037643342,62.13799999997718
313434.9307,-10.51351075765354,-3.6001916145771578,-14.294258148304674,-4.983345631725891,62.13900000002468
313434.9317,-8.701430327380455,-2.8845885041699972,-13.307523202423504,-4.378618660750706,62.14000000001397
313434.9327,-6.202655690516999,-1.5734393660265023,-11.585790045269574,-3.2832986683514127,62.14100000000326
313434.9337,-3.296077356613528,0.09171432396128734,-9.380252895932658,-1.9197533355717242,62.14199999999255
313434.9347,-0.28993310292304614,1.8402282772379104,-6.9731590896784725,-0.5307474576026106,62.14299999998184
313434.9357,2.508116141799622,3.4005964342696164,-4.649262695819766,0.6460768494527913,62.14399999997113
313434.9367,4.820751183872896,4.528658842813179,-2.6673538777099033,1.4031676231045995,62.14500000001863
313434.9377,6.427716177839605,5.032988285248816,-1.2346552717982835,1.5850082391865896,62.146000000007916
313434.9387,7.1869065829088665,4.794944402210542,-0.4865905903604996,1.1048623670991158,62.146999999997206
313434.9397,7.047779287700228,3.781407144733567,-0.47389939370595385,-0.045353607819954914,62.147999999986496
313434.9407,6.0557863316669875,2.0489195313351605,-1.1583476438707938,-1.7930729739532394,62.148999999975786
313434.9417,4.347405995340484,-0.26118740055546835,-2.4174372666557464,-3.9911890802644474,62.15000000002328
313434.9427,2.1362590612503736,-2.9362293797089434,-4.0576324879552175,-6.43171377895955,62.15100000001257
313434.9437,-0.3083353741954665,-5.712864539328663,-5.834782968213947,-8.865684245233913,62.15200000000186
313434.9447,-2.688275533428154,-8.303036855215785,-7.479715840912986,-11.027404386228397,62.15299999999115
313434.9457,-4.706443966720324,-10.422636679378646,-8.726460035017217,-12.660678565999008,62.15399999998044
313434.9467,-6.096430076156927,-11.820077167523067,-9.340306559137815,-13.544494402679678,62.15499999996973
313434.9477,-6.649318537625746,-12.3019885083555,-9.142923161739326,-13.515657634328038,62.15600000001723
313434.9487,-6.2349415030912,-11.753508272496296,-8.03202947047444,-12.48617108414105,62.15700000000652
313434.9497,-4.8155329799161315,-10.15116888864061,-5.993671120792336,-10.453653491954762,62.15799999999581
313434.9507,-2.450464394687563,-7.567101146366603,-3.1058563043757244,-7.503763401361141,62.1589999999851
313434.9517,0.708391354413406,-4.164115589076633,0.46683545068927146,-3.804363252982552,62.15999999997439
313434.9527,4.430208882474373,-0.18210937999300864,4.4871775468617505,0.40804558018864817,62.161000000021886
313434.9537,8.426348741117197,4.082911755262714,8.666422160665267,4.848342237981909,62.162000000011176
313434.9547,12.377026938976961,8.305190726275445,12.690589556373103,9.207365896255427,62.163000000000466
313434.9557,15.96092437764083,12.158429100206481,16.249375439886666,13.178725286657452,62.163999999989755
313434.9567,18.884865808759688,15.345049405561472,19.06487258611093,16.4852987277693,62.164999999979045
313434.9577,20.91069922878142,17.622707816519444,20.91731891681511,18.90292208482565,62.16600000002654
313434.9587,21.876787917252777,18.825526720821085,21.665372871778853,20.279041278684478,62.16700000001583
313434.9597,21.712060682097434,18.87803407770039,21.258950049449375,20.544599839397918,62.16800000000512
313434.9607,20.441298770985604,17.80050908966705,19.743380509994537,19.718092009527588,62.16899999999441
313434.9617,18.18119834564136,15.705271710081181,17.254492826191477,17.90147336563661,62.1699999999837
313434.9627,15.1276509869706,12.78433484636577,14.005116054570207,15.268409353027533,62.17099999997299
313434.9637,11.535542848440704,9.289676580031609,10.26432763707854,12.046080513489807,62.17200000002049
313434.9647,7.693101772972083,5.508103358035863,6.331481908851194,8.4923795439669,62.17300000000978
313434.9657,3.893349655460135,1.733194250160982,2.507561199598828,4.870769731842949,62.17399999999907
313434.9667,0.4054930171373743,-1.7629095485129336,-0.9333501870228531,1.425284761483235,62.17499999998836
313434.9677,-2.550918622189344,-4.7551032789295995,-3.7696848261660985,-1.6418836211856547,62.17599999997765
313434.9687,-4.826518828640201,-7.085807496736383,-5.8526082646728135,-4.188037116062209,62.177000000025146
313434.9697,-6.355319430934671,-8.678363199414614,-7.118869863944955,-6.1411746237173785,62.178000000014435
313434.9707,-7.159289853980966,-9.542056842016372,-7.595051166056323,-7.5037116044732555,62.179000000003725
313434.9717,-7.3438922406722416,-9.768330922328134,-7.392820909703648,-8.348428567834038,62.179999999993015
313434.9727,-7.085042419351983,-9.518610328365119,-6.69569032311806,-8.807138201619253,62.180999999982305
313434.9737,-6.60881868015999,-9.005005632044883,-5.738598275976239,-9.053285924461637,62.181999999971595
313434.9747,-6.165961891873531,-8.465860289125871,-4.782361328561672,-9.280301753463325,62.18300000001909
313434.9757,-6.003730687359602,-8.13861988207497,-4.085529487980973,-9.677942943283911,62.18400000000838
313434.9767,-6.3379429864990895,-8.232767846994932,-3.8764449288438114,-10.409065403382943,62.18499999999767
313434.9777,-7.328023512168433,-8.905567329961924,-4.328282834318854,-11.589217942563375,62.18599999998696
313434.9787,-9.057587082547316,-10.243073314564695,-5.539562530025154,-13.271171318955718,62.18699999997625
313434.9797,-11.522547543744711,-12.248359931735461,-7.522081622320496,-15.436001739477833,62.18800000002375
313434.9807,-14.628005015844115,-14.838195834835783,-10.197498282075573,-17.991694425534366,62.18900000001304
313434.9817,-18.19430183845144,-17.84856558790555,-13.402938343687406,-20.77948165901882,62.19000000000233
313434.9827,-21.971734726726613,-21.04855917459299,-16.905117596329976,-23.58735547016632,62.19099999999162
313434.9837,-25.662555746164458,-24.16132106187132,-20.42163234510474,-26.169474273743788,62.19199999998091
313434.9847,-28.948171715751055,-26.89004644615442,-23.64736506059495,-28.26958655414294,62.1929999999702
313434.9857,-31.51893162652258,-28.946504679679293,-26.28344595700613,-29.646182189618948,62.194000000017695
313434.9867,-33.103625855179246,-30.079308536206344,-28.065955291838623,-30.096894219551857,62.195000000006985
313434.9877,-33.495835735842256,-30.099158920622763,-28.791570258308354,-29.479729762096067,62.195999999996275
313434.9887,-32.57456634431549,-28.898577168692604,-28.33765281428083,-27.729003408329813,62.196999999985565
313434.9897,-30.317140702093234,-26.46416390612709,-26.674812168583202,-24.864351310867313,62.197999999974854
313434.9907,-26.803076988265325,-22.880143264749066,-23.870705465847994,-20.991870217527783,62.19900000002235
313434.9917,-22.208539319738787,-18.322793866999106,-20.08469117438849,-16.297187860661484,62.20000000001164
313434.9927,-16.79186246871834,-13.046251096072792,-15.553838625106911,-11.031054874496016,62.20100000000093
313434.9937,-10.871512749158043,-7.36100246198779,-10.571637183930827,-5.488777042583298,62.20199999999022
313434.9947,-4.798577098936098,-1.6071074879451754,-5.4614575516813515,0.014591243884735122,62.20299999997951
313434.9957,1.0736011178993747,3.875313930527491,-0.5473263694937337,5.170955008300697,62.20400000002701
313434.9967,6.419749230103098,8.7755154478184,3.8751660466502376,9.705261087812474,62.2050000000163
313434.9977,10.970074243143575,12.83867914547843,7.565021664748769,13.39848348335742,62.20600000000559
313434.9987,14.532162060129366,15.88707043302582,10.356541469262467,16.105336226551362,62.20699999999488
313434.9997,17.005316469030923,17.8337975312731,12.172605467395293,17.7650459757936,62.20799999998417
313435.0007,18.38602730764146,18.687899342338643,13.02927661417237,18.404186489129625,62.20899999997346
313435.0017,18.764123402950872,18.550328236799512,13.031328878640124,18.131344098956426,62.210000000020955
313435.0027,18.31007362035227,17.601278169186482,12.35918751381852,17.12417258451479,62.211000000010245
313435.0037,17.254759870883564,16.080147246551764,11.248608792215851,15.610130458189122,62.211999999999534
313435.0047,15.86377509456578,14.260135550862726,9.965134896798075,13.842802033015264,62.212999999988824
313435.0057,14.408825845805255,12.419994243225082,8.775867999906438,12.076126428717835,62.213999999978114
313435.0067,13.139091802742518,10.815710589193,7.921366107031757,10.539054726735216,62.21500000002561
313435.0077,12.255386848534645,9.654909515146347,7.590446743096073,9.413105762957647,62.2160000000149
313435.0087,11.889679346438509,9.076476287952918,7.900394706121986,8.815000504922335,62.21700000000419
313435.0097,12.091991236067438,9.137384155439335,8.884535362856047,8.78605205666321,62.21799999999348
313435.0107,12.825959576145548,9.807996466283415,10.488407744588603,9.289322248767716,62.21899999998277
313435.0117,13.973482492858222,10.976274983100081,12.574923290130815,10.214791599046434,62.21999999997206
313435.0127,15.3479687990026,12.460446934628798,14.938009609299412,11.392001826162724,62.22100000001956
313435.0137,16.714855467527297,14.028848954509563,17.323400962101605,12.608895992949952,62.22200000000885
313435.0147,17.817333638257413,15.42495814309896,19.454530350083115,13.634972441308069,62.22299999999814
313435.0157,18.404702978135877,16.39510837801528,21.060971476525275,14.24644441833926,62.22399999998743
313435.0167,18.260507220334578,16.716123819702794,21.906622048896544,14.25089911088022,62.22499999997672
313435.0177,17.227616925644522,16.22010735860434,21.814838223703056,13.508997051557728,62.226000000024214
313435.0187,15.227717839556263,14.813898950088474,20.688021768881278,11.951040915025066,62.227000000013504
313435.0197,12.273206210721476,12.491240231144056,18.519698326335497,9.586743451789696,62.228000000002794
313435.0207,8.470233070581362,9.336396445028592,15.39785460550716,6.507188801815499,62.228999999992084
313435.0217,4.012505341333249,5.51882453683283,11.499153184182813,2.878744788347544,62.22999999998137
313435.0227,-0.8336419749040285,1.279355277798305,7.074532707351895,-1.0705285449299748,62.23099999997066
313435.0237,-5.751530102046847,-3.090808653530654,2.4275417781766215,-5.070693855742936,62.23200000001816
313435.0247,-10.401678978748897,-7.276269252291137,-2.1125354081994563,-8.834083969980036,62.23300000000745
313435.0257,-14.451987182488379,-10.96626351956788,-6.220193983366493,-12.081464414501454,62.23399999999674
313435.0267,-17.60766086717773,-13.883361163550893,-9.603036415656533,-14.567692675626457,62.23499999998603
313435.0277,-19.63801679461815,-15.80924993226235,-12.028101656432593,-16.104400286579086,62.23599999997532
313435.0287,-20.3975781546331,-16.60510703548986,-13.342672696817838,-16.577509237045394,62.23700000002282
313435.0297,-19.839427149689634,-16.224577725327105,-13.487574472483912,-15.95789264542434,62.23800000001211
313435.0307,-18.01952221771318,-14.718098092374484,-12.50170188737594,-14.304152451982914,62.2390000000014
313435.0317,-15.091557812497344,-12.228138546269255,-10.517367607006818,-11.75724935589448,62.23999999999069
313435.0327,-11.292856048679354,-8.975825266916928,-7.746948175798625,-8.527507901132129,62.24099999997998
313435.0337,-6.922643393741194,-5.240233075895645,-4.462148140846429,-4.875255654711075,62.242000000027474
313435.0347,-2.314797735611653,-1.3323529992539045,-0.9679131280920439,-1.08696803691311,62.243000000016764
313435.0357,2.192319777411335,2.4337480515399843,2.426465132766532,2.5507801249005095,62.244000000006054
313435.0367,6.286059242481766,5.769789748473613,5.436245829414359,5.77705059131534,62.24499999999534
313435.0377,9.706820694984282,8.439380914277384,7.827343596649031,8.379499469088719,62.24599999998463
313435.0387,12.269941903010086,10.278855333516775,9.437130518063316,10.212371290965821,62.24699999997392
313435.0397,13.880079344269697,11.210853635190757,10.187954919294022,11.20783700214824,62.24800000002142
313435.0407,14.536764810699358,11.249377292252833,10.092118334827026,11.37964062108982,62.24900000001071
313435.0417,14.330685293935497,10.495877648860112,9.247895788860061,10.818776101179099,62.25
313435.0427,13.431141120495603,9.126821409770441,7.827067074971682,9.68169795012793,62.25099999998929
313435.0437,12.065997906915355,7.374008139789005,6.055261367200778,8.172299717905231,62.25199999997858
313435.0447,10.496177580262465,5.499623303064821,4.187122293799959,6.519501875912076,62.25300000002608
313435.0457,8.987261103545924,3.7685228526353796,2.4788063710717547,4.952715324718718,62.25400000001537
313435.0467,7.781049150849277,2.4205121419953963,1.1605848050609944,3.6776471854520394,62.25500000000466
313435.0477,7.06992018036392,1.6453768351053362,0.412301934467537,2.854872092929974,62.255999999993946
313435.0487,6.976539045806791,1.5631470550084636,0.3441547330796596,2.583309326870604,62.256999999983236
313435.0497,7.5409317781190985,2.2115553667774246,0.9847252907950249,2.89025174469483,62.257999999972526
313435.0507,8.716206417381121,3.5419354429111847,2.2774744921408083,3.7289353788507134,62.25900000002002
313435.0517,10.37333819640526,5.423971490566223,4.086061481788471,4.983883528355414,62.26000000000931
313435.0527,12.314534751861277,7.658830930191707,6.207973059566515,6.483480681412688,62.2609999999986
313435.0537,14.293842196656858,9.999380670088861,8.39511668016923,8.018506495819723,62.26199999998789
313435.0547,16.04292999816233,12.175482494763362,10.379332205892986,9.364760000343905,62.26299999997718
313435.0557,17.299472918873924,13.921855022613833,11.900280043759421,10.307488601920376,62.26400000002468
313435.0567,17.83528311734953,15.00572858367929,12.732916172000783,10.66514674898045,62.26500000001397
313435.0577,17.4813612355673,15.251531217233023,12.711792644707355,10.310064402276579,62.26600000000326
313435.0587,16.147330696847693,14.560128015617058,11.7497232489236,9.183900910493007,62.26699999999255
313435.0597,13.833265811347605,12.920664743573225,9.848899021934683,7.30626695137184,62.26799999998184
313435.0607,10.632668255290083,10.413788485169388,7.103274237470514,4.77556648279286,62.26899999997113
313435.0617,6.7262152109832325,7.205862435217622,3.691898311318491,1.761876703911919,62.27000000001863
313435.0627,2.3668107492162935,3.5346761643522804,-0.13624087681787123,-1.507528244749853,62.271000000007916
313435.0637,-2.142669258989252,-0.31200996262519437,-4.0844588383751645,-4.768672104816013,62.271999999997206
313435.0647,-6.476823698743205,-4.023039267218248,-7.835594704807967,-7.7454479185104645,62.272999999986496
313435.0657,-10.317729859954062,-7.2929956624650085,-11.081603467963772,-10.175907459660252,62.273999999975786
313435.0667,-13.3846070643784,-9.851085979321278,-13.552667598885101,-11.837722446238807,62.27500000002328
313435.0677,-15.460263240702918,-11.486965080600381,-15.04300713549108,-12.57033178294555,62.27600000001257
313435.0687,-16.411748816915253,-12.070989390741591,-15.430874557524282,-12.291592562074246,62.27700000000186
313435.0697,-16.20319594691497,-11.566918785139245,-14.690774029822707,-11.007270120824261,62.27799999999115
313435.0707,-14.89957318697544,-10.03581519534339,-12.896690304387494,-8.81238421971934,62.27899999998044
313435.0717,-12.660963019439098,-7.630737800451448,-10.21597824883094,-5.88420834903256,62.27999999996973
313435.0727,-9.727886515468184,-4.582726203145184,-6.894465324915663,-2.4675215785219957,62.28100000001723
313435.0737,-6.399066437918387,-1.1794074870372142,-3.2341685197658845,1.1465407663901555,62.28200000000652
313435.0747,-3.003752545646676,2.261721956209333,0.4342585942618895,4.646072674781138,62.28299999999581
313435.0757,0.1287407688319622,5.4227732874636105,3.781723520235124,7.726024175141415,62.2839999999851
313435.0767,2.6993655087621016,8.014868257406919,6.510657025238482,10.115274377348394,62.28499999997439
313435.0777,4.466635658886905,9.804645562901861,8.381883960896785,11.600606188368936,62.286000000021886
313435.0787,5.268280388551088,10.63533193040769,9.235848091652151,12.045333392945382,62.287000000011176
313435.0797,5.035198336420978,10.440370363402378,9.006185153682898,11.400842615988232,62.288000000000466
313435.0807,3.7964062957161695,9.248323831958993,7.724381232053315,9.709991306172324,62.288999999989755
313435.0817,1.6745516858274905,7.178622377844413,5.515117954914808,7.10208242227012,62.289999999979045
313435.0827,-1.1275250517063595,4.4286121457977305,2.5828076703251046,3.7799413392036714,62.29100000002654
313435.0837,-4.347824004324716,1.2532092925081642,-0.8093271706270668,0.0003726277050533477,62.29200000001583
313435.0847,-7.691726549209856,-2.060822291651389,-4.365558597517092,-3.9500989547337597,62.29300000000512
313435.0857,-10.861424885710779,-5.223432722272714,-7.7867554313767915,-7.781858128887211,62.29399999999441
313435.0867,-13.585348563572953,-7.969881303338432,-10.799435682091142,-11.228641623863162,62.2949999999837
313435.0877,-15.644705627380056,-10.086564317242514,-13.181938063749254,-14.071271236118484,62.29599999997299
313435.0887,-16.89454686315875,-11.431553384144964,-14.785174283032699,-16.156434448631416,62.29700000002049
313435.0897,-17.277305216332223,-11.947847171739394,-15.545963270296696,-17.408765000089467,62.29800000000978
313435.0907,-16.827505347365886,-11.66805848207722,-15.491681801376679,-17.83513827034871,62.29899999999907
313435.0917,-15.667207685794471,-10.71010187726308,-14.735821029937007,-17.52086092162266,62.29999999998836
313435.0927,-13.992662134504089,-9.264331462246625,-13.464931558513433,-16.618226106597962,62.30099999997765
313435.0937,-12.053509701874525,-7.573417697123257,-11.918283477166707,-15.328647460821497,62.302000000025146
313435.0947,-10.126601476439545,-5.906964140569193,-10.362279899791327,-13.880204846592164,62.303000000014435
313435.0957,-8.487032154221613,-4.533380318187848,-9.062173534825025,-12.502872324602132,62.304000000003725
313435.0967,-7.379258359175089,-3.691795246059948,-8.253896107887115,-11.403911960512728,62.304999999993015
313435.0977,-6.991163775788149,-3.5667914897101642,-8.118794967536282,-10.745885718773636,62.305999999982305
313435.0987,-7.433644659771749,-4.268462686511668,-8.763781918801836,-10.629465702959507,62.306999999971595
313435.0997,-8.72774901441097,-5.819775520079577,-10.208864991459867,-11.08273775704826,62.30800000001909
313435.1007,-10.800663613516672,-8.152501464267745,-12.383307146471038,-12.058043152893637,62.30900000000838
313435.1017,-13.490977505971202,-11.112144378533905,-15.130808290458347,-13.436652032537237,62.30999999999767
313435.1027,-16.562743340998132,-14.471409434539128,-18.223221575046995,-15.040784475897034,62.31099999998696
313435.1037,-19.726997506858822,-17.950923064357212,-21.381478552421527,-16.65176703029146,62.31199999997625
313435.1047,-22.668670710586262,-21.2452043637858,-24.301692164798634,-18.032505747620334,62.31300000002375
313435.1057,-25.076293392390046,-24.051374925851103,-26.683900657381123,-18.95203067544835,62.31400000001304
313435.1067,-26.671626585512627,-26.097826460411035,-28.260658553917686,-19.209662937269364,62.31500000000233
313435.1077,-27.236354989892636,-27.170069708680828,-28.82269759605332,-18.656393701970305,62.31599999999162
313435.1087,-26.63326421880773,-27.131263394312178,-28.239168946916433,-17.211340354598498,62.31699999998091
313435.1097,-24.819860216616703,-25.93544104104405,-26.470509312037446,-14.87163153168006,62.3179999999702
313435.1107,-21.85312305851854,-23.63216536658616,-23.572695492794104,-11.714721217361786,62.319000000017695
313435.1117,-17.884947749530653,-20.362174754080183,-19.69249322722871,-7.892878761450997,62.320000000006985
313435.1127,-13.148727020542964,-16.344462175932797,-15.054184356273145,-3.6203728458059077,62.320999999996275
313435.1137,-7.938387274010826,-11.856058147173055,-9.939085256996835,0.8454128743317856,62.321999999985565
313435.1147,-2.5819152170354913,-7.206494546862093,-4.659867940583463,5.227097324083875,62.322999999974854
313435.1157,2.5880613795043543,-2.709436638237982,0.4678050422607328,9.252401260347053,62.32400000002235
313435.1167,7.2638009200590785,1.345763313060491,5.153568395003345,12.678782274293306,62.32500000001164
313435.1177,11.189248651859874,4.719841411290125,9.157820469443212,15.315206086766723,62.32600000000093
313435.1187,14.181556277650538,7.244250249853559,12.311912958232247,17.03893740458688,62.32699999999022
313435.1197,16.14529482681014,8.834678606868518,14.531137996389695,17.805724625991754,62.32799999997951
313435.1207,17.07806020848067,9.496207550567986,15.819304427300558,17.65240356735655,62.32900000002701
313435.1217,17.067020742656233,9.319675070247591,16.26453003578516,16.691691982190807,62.3300000000163
313435.1227,16.2768469263038,8.469688423596095,16.026746680903095,15.099715400103705,62.33100000000559
313435.1237,14.93030816490391,7.165544945261786,15.318234744963249,13.097519994547225,62.33199999999488
313435.1247,13.283536297180584,5.657017326163513,14.379191425512804,10.928419328845546,62.33299999998417
313435.1257,11.598471388080645,4.197460051683001,13.450826330931102,8.833430661085464,62.33399999997346
313435.1267,10.115271066291555,3.016950655090101,12.748719376888113,7.027242666174332,62.335000000020955
313435.1277,9.027454851451427,2.298167567274217,12.43914622350141,5.6771015099042295,62.336000000010245
313435.1287,8.462270792697105,2.157426948241508,12.620778229165776,4.886711454132933,62.336999999999534
313435.1297,8.468241646549183,2.632781618243454,13.313626345228224,4.686748062591475,62.337999999988824
313435.1307,9.011124272682364,3.680377325921074,14.456374339976387,5.03292551507265,62.338999999978114
313435.1317,9.9786704647284,5.179434935325387,15.912407449325023,5.811809057179046,62.34000000002561
313435.1327,11.193693604106247,6.94536324334647,17.483970684302477,6.853793050824227,62.3410000000149
313435.1337,12.434110665323315,8.749691327846218,18.933072606248633,7.951950345503569,62.34200000000419
313435.1347,13.457925760467917,10.34482218602351,20.007066334505453,8.884870271555982,62.34299999999348
313435.1357,14.03061923521528,11.491118978536393,20.466357747776268,9.441198659163714,62.34399999998277
313435.1367,13.952155209969884,11.98359019673361,20.111459405919007,9.443414066988403,62.34499999997206
313435.1377,13.080845616260328,11.675465184808438,18.80665127671928,8.768438019035747,62.34600000001956
313435.1387,11.351608256168378,10.496244814459507,16.49782265680401,7.362977846746383,62.34700000000885
313435.1397,8.786701250222839,8.46234549179749,13.222623880659823,5.252009779697405,62.34799999999814
313435.1407,5.497753284611878,5.679176207555795,9.11179794543057,2.5394778068927675,62.34899999998743
313435.1417,1.6787661713398185,2.3343275835968975,4.381418953934531,-0.5989545402666886,62.34999999997672
313435.1427,-2.409340691575005,-1.3175733027393555,-0.6833472780929922,-3.9304813465941453,62.351000000024214
313435.1437,-6.461233111538149,-4.976963892164021,-5.75151187965223,-7.1857183685935615,62.352000000013504
313435.1447,-10.154594715832355,-8.326331053368984,-10.474415966263855,-10.083316107258304,62.353000000002794
313435.1457,-13.179869878642753,-11.059514160797935,-14.516132285661712,-12.356274860184906,62.353999999992084
313435.1467,-15.269449768367775,-12.910515118562099,-17.583242766054635,-13.777432697053742,62.35499999998137
313435.1477,-16.223466107545143,-13.679031821112437,-19.451160180698746,-14.181660773359829,62.35599999997066
313435.1487,-15.929666230443663,-13.250230472080066,-19.984477673531522,-13.482603772279449,62.35700000001816
313435.1497,-14.375399825606662,-11.606813886016086,-19.149390019166447,-11.682317547560675,62.35800000000745
313435.1507,-11.650498665738427,-8.832175178672353,-17.0169813017037,-8.872831632548369,62.35899999999674
313435.1517,-7.940702883445132,-5.1042782387778125,-13.757042618963489,-5.229435802918511,62.35999999998603
313435.1527,-3.512196195134117,-0.6807954211707712,-9.622986289660167,-0.9962825393150153,62.36099999997532
313435.1537,1.3113305560129058,4.123127359161185,-4.929272309927724,3.5343658916662215,62.36200000002282
313435.1547,6.17694660368907,8.96239918197083,-0.02347607042020755,8.047307487267254,62.36300000001211
313435.1557,10.733422545345244,13.492218558595328,4.744365608335231,12.2316264529299,62.3640000000014
313435.1567,14.661929587183746,17.398166687415895,9.052239507181726,15.807418451909005,62.36499999999069
313435.1577,17.703602918204897,20.423327986906205,12.6336069370004,18.549509801643282,62.36599999997998
313435.1587,19.68137747369153,22.38989525181574,15.299257205345947,20.305958037408008,62.367000000027474
313435.1597,20.514056982458044,23.213250948868858,16.951548893393007,21.009627052758866,62.368000000016764
313435.1607,20.221326676587704,22.907243646488148,17.58976610566897,20.68179956297741,62.369000000006054
313435.1617,18.919293471093436,21.580228550596885,17.306179645692666,19.42755773831233,62.36999999999534
313435.1627,16.80704979251903,19.422330866959925,16.2733026767343,17.423454772048608,62.37099999998463
313435.1637,14.145619758246958,16.685233660224053,14.723679251640233,14.898738871630387,62.37199999997392
313435.1647,11.231375180440647,13.65650607895546,12.92425959063107,12.112004930005302,62.37300000002142
313435.1657,8.366533082676545,10.631003939292121,11.147928717042525,9.325578451404853,62.37400000001071
313435.1667,5.829615283645851,7.882142782196981,9.645015488154108,6.780139744084047,62.375
313435.1677,3.8487383113903295,5.635837989010161,8.61759236409187,4.672054636369769,62.37599999998929
313435.1687,2.5803101491727887,4.0496284738205945,8.199084750784808,3.135595691770133,62.37699999997858
313435.1697,2.0951680822014924,3.1989776269511134,8.44117161169318,2.2317432750456323,62.37800000002608
313435.1707,2.373452676621549,3.072029224326807,9.309229428934271,1.9445977694166576,62.37900000001537
313435.1717,3.308649355000032,3.5732574350220654,10.686721419408263,2.1856776091850754,62.38000000000466
313435.1727,4.720325898057269,4.535571259912371,12.38804677632501,2.805596981087899,62.380999999993946
313435.1737,6.374240041111826,5.739600959552412,14.178527703601072,3.6118887401921635,62.381999999983236
313435.1747,8.007769791257802,6.938188906481545,15.799507194664095,4.391133715561129,62.382999999972526
313435.1757,9.35810072814243,7.883598845352531,16.99602686776471,4.9331363382579445,62.38400000002002
313435.1767,10.190339936488675,8.354695418308912,17.54430088952648,5.054689562038996,62.38500000000931
313435.1777,10.322740983737553,8.181355445073512,17.27622367450585,4.6205184519732425,62.3859999999986
313435.1787,9.646516693039786,7.263652562702069,16.098443225652403,3.5592767443773483,62.38699999998789
313435.1797,8.138257309218035,5.583879580964108,14.004069526209307,1.8729658400298357,62.38799999997718
313435.1807,5.863707558277813,3.210186613339298,11.075815290545266,-0.361197878709239,62.38900000002468
313435.1817,2.9725144623692765,0.2914472610234643,7.480212956078435,-2.9966886346461092,62.39000000001397
313435.1827,-0.3155460167342631,-2.9561624187416466,3.453433755603022,-5.830795943820763,62.39100000000326
313435.1837,-3.7315096795891236,-6.269562767305426,-0.7199346950219814,-8.623693909394866,62.39199999999255
313435.1847,-6.983266345366381,-9.364142264399481,-4.733098306371525,-11.12158541435015,62.39299999998184
313435.1857,-9.784129854199964,-11.96159940584441,-8.285704029364222,-13.081640575064155,62.39399999997113
313435.1867,-11.881108028120467,-13.817501059485341,-11.112129615615256,-14.296262829609079,62.39500000001863
313435.1877,-13.08006995275515,-14.745824484753546,-13.006649432846396,-14.614273504416653,62.396000000007916
313435.1887,-13.265309839250682,-14.63804091015916,-13.843011156332782,-13.956901168220503,62.396999999997206
313435.1897,-12.41155574481228,-13.474830666247081,-13.586501523661717,-12.326966631729992,62.397999999986496
313435.1907,-10.58721360632657,-11.329241117624587,-12.297311756455521,-9.810318563627838,62.398999999975786
313435.1917,-7.948499371338453,-8.3609381278401,-10.12486283585325,-6.569333104098651,62.40000000002328
313435.1927,-4.725009624778905,-4.802076949524547,-7.293634163768438,-2.829068978443399,62.40100000001257
313435.1937,-1.1981256147430703,-0.9361431271897457,-4.081869514431984,1.142609128021129,62.40200000000186
313435.1947,2.3256462495939627,2.9281929854523288,-0.7952300359739501,5.059032800667254,62.40299999999115
313435.1957,5.543792390325295,6.485671469463566,2.2620429417237813,8.64054459720214,62.40399999998044
313435.1967,8.186517381474557,9.462706875377798,4.815650820266977,11.639631638593293,62.40499999996973
313435.1977,10.042259657341164,11.642568669372245,6.646675198600818,13.862948539755578,62.40600000001723
313435.1987,10.977492184755922,12.885024686119662,7.6114637724367284,15.188102535469874,62.40700000000652
313435.1997,10.948861163667175,13.138534411254971,7.654045372914696,15.573584890012064,62.40799999999581
313435.2007,10.006466644788684,12.443807544751387,6.8098897308753115,15.060902654598612,62.4089999999851
313435.2017,8.287958521563606,10.92838893359842,5.200678301389881,13.768727847503799,62.40999999997439
313435.2027,6.00402433772357,8.792810681693247,3.0206355358468726,11.879662302952486,62.411000000021886
313435.2037,3.416693061816863,6.2896797239045865,0.5157986186417405,9.620939081125945,62.412000000011176
313435.2047,0.8125880751464358,3.6977631418307686,-2.04170348001467,7.240974490127211,62.413000000000466
313435.2057,-1.5262367071654073,1.2936258010014143,-4.381801772235293,4.984090171845842,62.413999999989755
313435.2067,-3.3510008246965812,-0.6763829558579023,-6.264272797890622,3.065902492345316,62.414999999979045
313435.2077,-4.471603774233823,-2.021028779684313,-7.50339883478175,1.6518091249418683,62.41600000002654
313435.2087,-4.776214124577547,-2.623516346641506,-7.98705298159723,0.8406967367343795,62.41700000001583
313435.2097,-4.243086799615415,-2.453321284086688,-7.688309679618808,0.6554790071044663,62.41800000000512
313435.2107,-2.9434122419586766,-1.569346868661431,-6.668418636763324,1.041401208368015,62.41899999999441
313435.2117,-1.0348780467082288,-0.11407287670636264,-5.0708322117174705,1.8722821819779811,62.4199999999837
313435.2127,1.2534664023031887,1.7007517080965036,-3.1068595119170777,2.9640817365761243,62.42099999997299
313435.2137,3.6435977093594007,3.6154887724067755,-1.0343481028797037,4.0944579913579915,62.42200000002049
313435.2147,5.835999468201859,5.348982993124055,0.8685149070352267,5.026385919979136,62.42300000000978
313435.2157,7.539572129061819,6.627349472723945,2.331704394210484,5.533503519619517,62.42399999999907
313435.2167,8.50106120489707,7.212356772380581,3.1213495317951434,5.424675415806601,62.42499999998836
313435.2177,8.531130424863006,6.9266159172398485,3.06444677889467,4.565332777345773,62.42599999997765
313435.2187,7.52452352843097,5.673089149662263,2.067836825139456,2.893456590460355,62.427000000025146
313435.2197,5.472324747957382,3.446978342720378,0.12954334711724405,0.4285886730105587,62.428000000014435
313435.2207,2.4650886310663362,0.3387889458266951,-2.6586868903033154,-2.7270691139032266,62.429000000003725
313435.2217,-1.3135092781767599,-3.471780546528114,-6.117946705929147,-6.395638118707867,62.429999999993015
313435.2227,-5.601933971229612,-7.730584546978554,-9.997250715570257,-10.338012611189855,62.430999999982305
313435.2237,-10.083536925826733,-12.131035312286018,-13.995722230788939,-14.274432254350291,62.431999999971595
313435.2247,-14.4146361001932,-16.341286312957795,-17.78977538401364,-17.90923591129882,62.43300000001909
313435.2257,-18.255265521704885,-20.034011185793798,-21.062693344282305,-20.957445893919335,62.43400000000838
313435.2267,-21.299674303455703,-22.915943772383017,-23.53376660861288,-23.170650441051507,62.43499999999767
313435.2277,-23.30368218064081,-24.754368093400796,-24.98419442667906,-24.35971664712135,62.43599999998696
313435.2287,-24.106305898965427,-25.398042939638604,-25.277263618919378,-24.412169854018757,62.43699999997625
313435.2297,-23.643627718956715,-24.79058497635727,-24.37087196351298,-23.302588920387315,62.43800000002375
313435.2307,-21.95362932263253,-22.9750640346851,-22.321203929683726,-21.09503961283847,62.43900000001304
313435.2317,-19.17158797237435,-20.08941324184662,-19.2772224834167,-17.93733493083169,62.44000000000233
313435.2327,-15.516541583931282,-16.353141918764226,-15.466528417881914,-14.047696709735881,62.44099999999162
313435.2337,-11.270186750260427,-12.046674423788366,-11.173971547200296,-9.695120809029486,62.44199999998091
313435.2347,-6.7502952818993744,-7.485342042422309,-6.71509495720275,-5.175347765638908,62.4429999999702
313435.2357,-2.2812505280303608,-2.9905592804395265,-2.4069865039895273,-0.7847537903940421,62.444000000017695
313435.2367,1.8354351258280521,1.1390281868506673,1.4606469446415322,3.205336467569234,62.445000000006985
313435.2377,5.347780273167692,4.653653447163607,4.6514005958277655,6.571471552628167,62.445999999996275
313435.2387,8.074628195358919,7.37331278161612,7.002610923372448,9.155880904205484,62.446999999985565
313435.2397,9.919575378216953,9.201469722678798,8.438381335809993,10.877624245246164,62.447999999974854
313435.2407,10.876274184413127,10.13034137364803,8.97399538261075,11.736100802762776,62.44900000002235
313435.2417,11.0247075756826,10.23736524479739,8.711366301331553,11.806692300337941,62.45000000001164
313435.2427,10.518927977331554,9.673316263526234,7.826051270100821,11.229088349192967,62.45100000000093
313435.2437,9.567594211705403,8.643365082420999,6.547183860271353,10.18956030504611,62.45199999999022
313435.2447,8.409347157597844,7.383059651056494,5.132368063786333,8.899039417258756,62.45299999997951
313435.2457,7.28556707057058,6.13170448314903,3.8400644289649786,7.569259348998348,62.45400000002701
313435.2467,6.413304163687013,5.105857965173846,2.902235762570431,6.389402347028395,62.4550000000163
313435.2477,5.961144939604931,4.4756435340883955,2.499983632609708,5.505625101381305,62.45600000000559
313435.2487,6.030473085889421,4.346278346390947,2.744601457365456,5.0055411385138155,62.45699999999488
313435.2497,6.644035737159781,4.746692265340224,3.665925649367042,4.909231148222673,62.45799999998417
313435.2507,7.742987875163607,5.626393195329605,5.209136901444214,5.167690984789014,62.45899999997346
313435.2517,9.192732614108888,6.860902906716871,7.240321216509176,5.668874647818236,62.460000000020955
313435.2527,10.796987691567162,8.265222800693172,9.56022774551728,6.250720768694137,62.461000000010245
313435.2537,12.318676488646659,9.61397712790965,11.924843899715185,6.719842116398013,62.461999999999534
313435.2547,13.505547783569527,10.666202441587968,14.070728030885139,6.8739787053084935,62.462999999988824
313435.2557,14.11794114859968,11.192273947639938,15.742563306306248,6.525923833918971,62.463999999978114
313435.2567,13.955883086406487,11.000229647137033,16.720170323301957,5.526468006174555,62.46500000002561
313435.2577,12.882746218705975,9.958795090163948,16.842262958375656,3.7839851045907915,62.4660000000149
313435.2587,10.843026180330959,8.014721785048103,16.024547524078628,1.278601331061763,62.46700000000419
313435.2597,7.872357312265887,5.202601001558798,14.270318675537558,-1.9305900934313311,62.46799999999348
313435.2607,4.098643653778281,1.6460484821504362,11.672442411907197,-5.70612747060622,62.46899999998277
313435.2617,-0.2659477568693044,-2.4499973099743726,8.406464599489402,-9.840684108390732,62.46999999997206
313435.2627,-4.941484013573195,-6.815243400647618,4.71545934741339,-14.072787066132495,62.47100000001956
313435.2637,-9.603765142396785,-11.136835597517004,0.8880491260965913,-18.10834283392468,62.47200000000885
313435.2647,-13.912635969693861,-15.086851116342777,-2.7682927786530205,-21.645976576761083,62.47299999999814
313435.2657,-17.54243347807356,-18.351885150040484,-5.956073978095606,-24.403798100371933,62.47399999998743
313435.2667,-20.211662594909964,-20.66189889170055,-8.415945041041793,-26.145045124411606,62.47499999997672
313435.2677,-21.70904668004715,-21.815545118643744,-9.951442374628217,-26.700139591337923,62.476000000024214
313435.2687,-21.9134307159121,-21.69950791084242,-10.44788639497677,-25.983018191984502,62.477000000013504
313435.2697,-20.805593693061898,-20.299954948646683,-9.883571794467898,-24.000133115512686,62.478000000002794
313435.2707,-18.470796061801277,-17.704949953571465,-8.33213262802818,-20.851211756789052,62.478999999992084
