TimeStamp,ECR,FCR,ECU,FCU,time_index
312263.9837,-7.105234870591312,-2.2803682423312184,-6.134760984001491,-11.632436926549484,21.0
312263.9847,-6.013137687950986,-1.9460761007379863,-5.337651677906802,-12.443541000039964,21.00099999998929
312263.9857,-5.213149870457176,-1.9123045583571545,-4.773049146090275,-13.466529122131002,21.002000000036787
312263.9867,-4.7706869244015,-2.2302640726072833,-4.497845191390755,-14.721532673990259,21.003000000026077
312263.9877,-4.720938142824805,-2.9232083594354967,-4.542961873558107,-16.20162631600964,21.004000000015367
312263.9887,-5.065779595075737,-3.9835426748540153,-4.910298723958946,-17.87088602148596,21.005000000004657
312263.9897,-5.773434358162464,-5.372518193756084,-5.572197301819335,-19.665074204936598,21.005999999993946
312263.9907,-6.780940244557084,-7.022570908929246,-6.473499744216136,-21.494981719599902,21.007000000041444
312263.9917,-7.999234383219661,-8.842125383061978,-7.53604020521687,-23.252208817994763,21.008000000030734
312263.9927,-9.320428752750848,-10.722461116599138,-8.665183803617865,-24.816936047383532,21.009000000020023
312263.9937,-10.626653228893842,-12.546053116748135,-9.757838177766272,-26.067043665120888,21.010000000009313
312263.9947,-11.799701497583781,-14.195665926251937,-10.711226017007894,-26.88780315647272,21.010999999998603
312263.9957,-12.730643641929198,-15.563414269384458,-11.43163606386959,-27.181300124179057,21.0120000000461
312263.9967,-13.328574130846679,-16.559009703294002,-11.842371880594332,-26.874760842657693,21.01300000003539
312263.9977,-13.527744900751971,-17.116490478992485,-11.890192061851916,-25.92704444403371,21.01400000002468
312263.9987,-13.292482626222409,-17.19887369219769,-11.549675553758433,-24.33272103443114,21.01500000001397
312263.9997,-12.619493046757498,-16.800361159430096,-10.825138057645674,-22.123368458517636,21.01600000000326
312264.0007,-11.537394147720658,-15.945954961579998,-9.749951918363946,-19.365967166328304,21.01699999999255
312264.0017,-10.10357157810484,-14.68857394550954,-8.383360945548832,-16.15853059585636,21.018000000040047
312264.0027,-8.398690274534411,-13.103986423518949,-6.805110641345648,-12.623353465515505,21.019000000029337
312264.0037,-6.519403319834892,-11.284065829768158,-5.108411663219718,-8.898469389018764,21.020000000018626
312264.0047,-4.5699533464576305,-9.329017381365064,-3.3919014780688457,-5.128062734281837,21.021000000007916
312264.0057,-2.653449174417368,-7.339301983557017,-1.7513523805815379,-1.4526634249956554,21.021999999997206
312264.0067,-0.8636131937766497,-5.407992002958257,-0.27188585808603594,2.000040096602076,21.023000000044703
312264.0077,0.7222672067173214,-3.6142321757052436,0.9786069130612264,5.123005371016296,21.024000000033993
312264.0087,2.0485813647026174,-2.018354619464628,1.9542645205072011,7.835634410477483,21.025000000023283
312264.0097,3.0844129570406422,-0.6590225175991924,2.6338796957727704,10.087139654824732,21.026000000012573
312264.0107,3.824138330577553,0.4474298676060947,3.0211678351603406,11.85728458047719,21.027000000001863
312264.0117,4.285647175323241,1.3055120166547258,3.142727449971215,13.154553888659997,21.027999999991152
312264.0127,4.506455543654323,1.937207125700141,3.04396098760889,14.012046065102204,21.02900000003865
312264.0137,4.5381790776641315,2.3771565960546353,2.7834158591497156,14.481586332852144,21.03000000002794
312264.0147,4.4399826989775315,2.666970062137469,2.426149302534036,14.626711205805986,21.03100000001723
312264.0157,4.271707989653946,2.8493037799480394,2.0368033374283407,14.515262815447278,21.03200000000652
312264.0167,4.0873934300995565,2.962355706585448,1.6730900401424942,14.21234433119058,21.03299999999581
312264.0177,3.929844985530652,3.0353650095926428,1.3803319779823482,13.774326811643697,21.034000000043306
312264.0187,3.8267917339233577,3.085583815801052,1.1875840013786727,13.244469660587294,21.035000000032596
312264.0197,3.7889861790958212,3.117022372076483,1.105692990525039,12.650535002489086,21.036000000021886
312264.0207,3.810399551574263,3.121072659880323,1.1274488267567617,12.004559390265886,21.037000000011176
312264.0217,3.8704400165303277,3.078909955128436,1.229763269319669,11.304716266321336,21.038000000000466
312264.0227,3.9379087107153548,2.9653777837595237,1.3776052256511773,10.538982592109285,21.038999999989755
312264.0237,3.976226307053796,2.7538988979741807,1.5292418286175236,9.690134962182599,21.040000000037253
312264.0247,3.9493295947918434,2.421839819967305,1.6422025208456184,8.741462940638828,21.041000000026543
312264.0257,3.8275666602989564,1.9557008932607973,1.6793110215319604,7.6825137948283,21.042000000015832
312264.0267,3.5929177090905102,1.3555134075828228,1.6141246547685923,6.514180322284824,21.043000000005122
312264.0277,3.2429365036796214,0.6378994540467877,1.4351824234372452,5.252512049447246,21.043999999994412
312264.0287,2.792937993188788,-0.1626184949679586,1.1485861021580468,3.930762642102039,21.04500000004191
312264.0297,2.276137916965107,-0.9942956575462225,0.7786101247016051,2.5993694890300136,21.0460000000312
312264.0307,1.7416619574434402,-1.790865535146407,0.36623895833935566,1.323776691222437,21.04700000002049
312264.0317,1.2505642046418366,-2.476088668080199,-0.034255329648758305,0.1802385352565337,21.04800000000978
312264.0327,0.8702050027844495,-2.9697801553787793,-0.3603789314582908,-0.7500456515705407,21.04899999999907
312264.0337,0.6675155252539035,-3.1947852899657185,-0.5476362866649577,-1.3879339755834912,21.050000000046566
312264.0347,0.7018027256181608,-3.0842615498398707,-0.5362901428815747,-1.6638216189812114,21.051000000035856
312264.0357,1.0178106879521942,-2.5885756980903682,-0.27798367721680356,-1.5248731346739541,21.052000000025146
312264.0367,1.6397461767785997,-1.6811423435950636,0.2584498539596918,-0.9412896772085018,21.053000000014435
312264.0377,2.5668976464176394,-0.3626138903207222,1.082593596724885,0.08902897850155099,21.054000000003725
312264.0387,3.7713353343521545,1.3370262394854033,2.179941832637649,1.5379267994001087,21.054999999993015
312264.0397,5.197988802872784,3.358728238086949,3.51157563120602,3.346846618948164,21.056000000040513
312264.0407,6.767175810299374,5.617045333757847,5.0161022586365025,5.429184314727307,21.057000000029802
312264.0417,8.379424220844934,8.00503406193135,6.613721550970161,7.674996511990022,21.058000000019092
312264.0427,9.92220935222688,10.401005151527716,8.212074634250909,9.957697263799524,21.059000000008382
312264.0437,11.278044068356044,12.676572956555162,9.713354838961711,12.14219417896446,21.05999999999767
312264.0447,12.333226115632476,14.705330557607866,11.022034760638876,14.093781418094645,21.06100000004517
312264.0457,12.986479678853723,16.371419519239456,12.052499664412547,15.68703862772429,21.06200000003446
312264.0467,13.156732566918754,17.577273387389308,12.735882237374105,16.813987648192292,21.06300000002375
312264.0477,12.789346517995572,18.249891311546076,13.025466763097228,17.390832159413442,21.06400000001304
312264.0487,11.860258580556422,18.3451351492736,12.900165143236135,17.362741872638143,21.06500000000233
312264.0497,10.377682889561124,17.849726774286403,12.36574983283677,16.706328848274847,21.065999999991618
312264.0507,8.38124601235232,16.780834332774756,11.45374196547508,15.429680647326943,21.067000000039116
312264.0517,5.938663867215219,15.183356430848363,10.218075996875777,13.570041971908385,21.068000000028405
312264.0527,3.1402914819213534,13.125220524427665,8.729873390737119,11.189451030691847,21.069000000017695
312264.0537,0.09206719872363378,10.691186300381624,7.070836652258676,8.368818226425041,21.070000000006985
312264.0547,-3.092487763022566,7.975770033875484,5.3259039811551085,5.201065443253836,21.070999999996275
312264.0557,-6.300478306241688,5.0759701082745865,3.575871419973382,1.7840118559830618,21.072000000043772
312264.0567,-9.427312731099718,2.08447142133415,1.8906871526742617,-1.7863092485241896,21.073000000033062
312264.0577,-12.383174659156808,-0.9160618511218301,0.32405181979622755,-5.42128779721068,21.07400000002235
312264.0587,-15.097746510761484,-3.857122389836102,-1.0901736830327622,-9.043843773799743,21.07500000001164
312264.0597,-17.522822646718513,-6.6866141986320065,-2.339432484632493,-12.590696039954034,21.07600000000093
312264.0607,-19.632664082777165,-9.369115025334965,-3.43169957007253,-16.01269123747502,21.07699999999022
312264.0617,-21.422171878872298,-11.884244429772975,-4.392586661494366,-19.273303921918885,21.07800000003772
312264.0627,-22.90317067701242,-14.22343031133975,-5.260648000270641,-22.345617688167682,21.07900000002701
312264.0637,-24.099276356163113,-16.385529402411127,-6.081388922842277,-25.208260867117076,21.080000000016298
312264.0647,-25.039954561809566,-18.371871305165172,-6.900607349083352,-27.84088257521859,21.081000000005588
312264.0657,-25.75444710060168,-20.18134978061338,-7.75776408460764,-30.21980388172873,21.081999999994878
312264.0667,-26.26624424759035,-21.80617387044694,-8.680074657203111,-32.31445941344603,21.083000000042375
312264.0677,-26.58871315035747,-23.22881625058847,-9.67794350012279,-34.08515856805144,21.084000000031665
312264.0687,-26.72236282483481,-24.420564595058643,-10.742227642762941,-35.48255116212189,21.085000000020955
312264.0697,-26.654047945309813,-25.341906944607842,-11.84363472432489,-36.44899426208092,21.086000000010245
312264.0707,-26.358204776196498,-25.94478175212758,-12.93434696230133,-36.92180413453553,21.086999999999534
312264.0717,-25.79999424512789,-26.1765176525495,-13.951739599988654,-36.8381613633564,21.087999999988824
312264.0727,-24.9400213286642,-25.985097925373022,-14.82385125766249,-36.1412403804686,21.08900000003632
312264.0737,-23.740127390013413,-25.325229475433083,-15.47608532170615,-34.78697741196158,21.09000000002561
312264.0747,-22.16963035429207,-24.164591964610235,-15.838493653634895,-32.7507898663799,21.0910000000149
312264.0757,-20.21132908284664,-22.489600520126114,-15.852929208365598,-30.033526762520665,21.09200000000419
312264.0767,-17.866599196180765,-20.310040173372915,-15.47935917639851,-26.6659685822525,21.09299999999348
312264.0777,-15.158987185524879,-17.66202019546025,-14.700704748688121,-22.711303494830197,21.094000000040978
312264.0787,-12.135850402287241,-14.60884367264097,-13.525710484348618,-18.265175854188193,21.095000000030268
312264.0797,-8.867778776598305,-11.239578187964122,-11.98953235905123,-13.45311677462081,21.096000000019558
312264.0807,-5.445751477505606,-7.665329156178138,-10.15195087038325,-8.425405399701905,21.097000000008848
312264.0817,-1.9762068135621293,-4.013437398931317,-8.093342985188432,-3.3496504792872104,21.097999999998137
312264.0827,1.425585751705586,-0.42002556031460364,-5.908762129985491,1.5983981290145806,21.099000000045635
312264.0837,4.643287437562294,2.9785159407665986,-3.7006578945757,6.245120823549385,21.100000000034925
312264.0847,7.567699585567089,6.0543999916098485,-1.570898883410692,10.429577630060436,21.101000000024214
312264.0857,10.104677566850583,8.696919486488634,0.38716961669179695,14.013484970997546,21.102000000013504
312264.0867,12.18202052511313,10.819800194946147,2.095903423017155,16.88980053654804,21.103000000002794
312264.0877,13.754693294044202,12.366790726104789,3.4991148936417726,18.989203204874993,21.103999999992084
312264.0887,14.80788446088557,13.315001191715472,4.5658831282817784,20.283926863622945,21.10500000003958
312264.0897,15.357600893984383,13.67569917816269,5.292080844916589,20.78862901421077,21.10600000002887
312264.0907,15.448725372317503,13.492496520319374,5.699496577156123,20.5582268644727,21.10700000001816
312264.0917,15.15069854457776,12.837091950352189,5.83265849005952,19.682892046328693,21.10800000000745
312264.0927,14.551206751308374,11.802951121387517,5.753682653482275,18.280636301297047,21.10899999999674
312264.0937,13.748442064443042,10.497486368884239,5.535653150242747,16.488122254063033,21.110000000044238
312264.0947,12.84263245253862,9.033426875228827,5.255176215692314,14.450477280129007,21.111000000033528
312264.0957,11.927605635740644,7.520133703228046,4.9848228865607345,12.310961494072709,21.112000000022817
312264.0967,11.083143697145928,6.055607719987716,4.786177693894418,10.201336771988496,21.113000000012107
312264.0977,10.368807588845124,4.71986274391567,4.704144845526251,8.233703482355093,21.114000000001397
312264.0987,9.819768929548273,3.5701989403680296,4.76303491739244,6.494423387174277,21.114999999990687
312264.0997,9.444994697024638,2.6387260594019364,4.964777159801832,5.040545477550657,21.116000000038184
312264.1007,9.227907126638383,1.9322705871233075,5.289392734390406,3.898915734030512,21.117000000027474
312264.1017,9.129407872363583,1.4345760838471806,5.697643159774277,3.067904406288525,21.118000000016764
312264.1027,9.092934688840954,1.1104934743221704,6.135557579828102,2.521448731524962,21.119000000006054
312264.1037,9.051031680522756,0.9116780664492153,6.540362672646154,2.214907056194505,21.119999999995343
312264.1047,8.932778328438625,0.7831795442254064,6.8472074596313535,2.09207065878533,21.12100000004284
312264.1057,8.67135078692845,0.6702421330584126,6.996004510340101,2.0925955763591366,21.12200000003213
312264.1067,8.210987811439022,0.5246305426307926,6.937705606417323,2.159105370333816,21.12300000002142
312264.1077,7.512702726417793,0.3098625261088674,6.639393726891719,2.24327693364876,21.12400000001071
312264.1087,6.55821484795718,0.004853825150305338,6.087697545090203,2.31034805760829,21.125
312264.1097,5.351755430241824,-0.3943470031509714,5.2902068616188656,2.341664199923844,21.12599999998929
312264.1107,3.919616429061836,-0.8748552423750237,4.274770253822873,2.335094458706296,21.127000000036787
312264.1117,2.307534100003356,-1.4091891163451555,3.0867694666858116,2.3033717731207215,21.128000000026077
312264.1127,0.5762116806658416,-1.9591635479797083,1.7846675195761876,2.2706274328369567,21.129000000015367
312264.1137,-1.2045346163112483,-2.480983360501866,0.43429911127734544,2.2675738501554683,21.130000000004657
312264.1147,-2.9623918498922053,-2.9309610379384186,-0.8975042638361262,2.3259242387687955,21.130999999993946
312264.1157,-4.629246450666887,-3.2712239140812147,-2.1492981846977326,2.472710350922333,21.132000000041444
312264.1167,-6.147278481230061,-3.474780546362476,-3.2707640979243284,2.7251629959126724,21.133000000030734
312264.1177,-7.47384123527951,-3.529385287209416,-4.2272169837963744,3.0867548282818595,21.134000000020023
312264.1187,-8.584643215444034,-3.43976653174955,-5.002422710219316,3.54487783073685,21.135000000009313
312264.1197,-9.474927180799135,-3.22795496571333,-5.599438894455989,4.070452135407012,21.135999999998603
312264.1207,-10.158548494945464,-2.931646134424788,-6.039394927536289,4.619556257170601,21.1370000000461
312264.1217,-10.665071609554586,-2.600736891139594,-6.358337325452832,5.136952416567977,21.13800000003539
312264.1227,-11.035207497690825,-2.292367137065749,-6.602464735006919,5.561176320395305,21.13900000002468
312264.1237,-11.315085796846699,-2.0649574425401314,-6.822242936773049,5.830689238183963,21.14000000001397
312264.1247,-11.549976219433315,-1.971843584381177,-7.06600742193286,5.89046888713541,21.14100000000326
312264.1257,-11.77813230921714,-2.0551595208326408,-7.373717758503461,5.69835695033431,21.14199999999255
312264.1267,-12.025420919778888,-2.3406055632737868,-7.771518175613103,5.230491215978659,21.143000000040047
312264.1277,-12.301323692059803,-2.8336596665538702,-8.267683317177593,4.485228714397541,21.144000000029337
312264.1287,-12.596759834932717,-3.517654371922745,-8.850394184120677,3.48510543957702,21.145000000018626
312264.1297,-12.883996148392631,-4.35396313613517,-9.48760992911017,2.2765648105853398,21.146000000007916
312264.1307,-13.118698594603247,-5.284335029400225,-10.129093944328853,0.9274027557465464,21.146999999997206
312264.1317,-13.243960797772187,-6.235206154648728,-10.710437949541012,-0.4778989636651768,21.148000000044703
312264.1327,-13.19594041611895,-7.123620340274695,-11.158726710823803,-1.8445698613062056,21.149000000033993
312264.1337,-12.910564806919451,-7.864230000793926,-11.399318495593544,-3.0751219859541883,21.150000000023283
312264.1347,-12.330649864639017,-8.376736562878172,-11.363099065612113,-4.077416277789987,21.151000000012573
312264.1357,-11.412722366087346,-8.593079665544606,-10.993511724241081,-4.77248672819894,21.152000000001863
312264.1367,-10.132852369458115,-8.463700640560752,-10.252678424744763,-5.101397453670888,21.152999999991152
312264.1377,-8.490887113851786,-7.962287255040544,-9.126006350307192,-5.0304900563447665,21.15400000003865
312264.1387,-6.512623626128172,-7.08854568030437,-7.6248132787401035,-4.554523165948349,21.15500000002794
312264.1397,-4.249650026886079,-5.8687288449087465,-5.786690188320692,-3.6973991531488624,21.15600000001723
312264.1407,-1.7768068269287551,-4.353860112562423,-3.6735331295294373,-2.510396222785194,21.15700000000652
312264.1417,0.812552068588873,-2.6158073638385098,-1.3673977374797988,-1.068056017446548,21.15799999999581
312264.1427,3.4131055640493875,-0.7415641826988516,1.0354625670392217,0.5379048176711927,21.159000000043306
312264.1437,5.915348210838095,1.1737375192156736,3.431839823671924,2.2061069575683105,21.160000000032596
312264.1447,8.21391490799609,3.0344416440705375,5.719438331722104,3.83376106316651,21.161000000021886
312264.1457,10.21569410512572,4.751911029857481,7.8046468886574605,5.324910790311209,21.162000000011176
312264.1467,11.846989156145762,6.251312587766433,9.609506883101014,6.597920976772694,21.163000000000466
312264.1477,13.05907116341437,7.477033963280967,11.077243204050244,7.59154141878772,21.163999999989755
312264.1487,13.831613266330677,8.396255827080267,12.175862154737818,8.269015579882915,21.165000000037253
312264.1497,14.173692008394983,9.000383456728688,12.899505230760145,8.619892352228469,21.166000000026543
312264.1507,14.122267533349715,9.30424826261443,13.267461886126084,8.659419301795863,21.167000000015832
312264.1517,13.73828930973791,9.343204177706118,13.32096753171159,8.425626336404783,21.168000000005122
312264.1527,13.100795366974182,9.168444527530289,13.118123381385676,7.9744271527029404,21.168999999994412
312264.1537,12.299559428165916,8.841032634176855,12.727452003871502,7.373251069913922,21.17000000004191
312264.1547,11.426973961012878,8.425257749442189,12.220729386823605,6.693852129668119,21.1710000000312
312264.1557,10.569925218643776,7.981985559273145,11.665798691722307,6.005012805759735,21.17200000002049
312264.1567,9.802412298137208,7.56266400953805,11.12006647699381,5.365859732125847,21.17300000000978
312264.1577,9.179586543719864,7.204571614805476,10.625309490365856,4.820438801414491,21.17399999999907
312264.1587,8.733747613906717,6.927764159235176,10.204286332319562,4.394063933191214,21.175000000046566
312264.1597,8.472641772828247,6.733999878152125,9.859466487943756,4.091771029754006,21.176000000035856
312264.1607,8.380184908574764,6.607720299702392,9.57397722424497,3.8989942478144446,21.177000000025146
312264.1617,8.419498989969115,6.518954076872522,9.31464742329979,3.7843569125397014,21.178000000014435
312264.1627,8.53792873412105,6.427815190196807,9.036818272612072,3.7042563860351834,21.179000000003725
312264.1637,8.673516588501943,6.290104329675806,8.69041438189304,3.608742002629751,21.179999999993015
312264.1647,8.76227690507059,6.063409268931162,8.226642667313033,3.4480555910971638,21.181000000040513
312264.1657,8.745537562974958,5.71304794086716,7.604622676555187,3.179137929349136,21.182000000029802
312264.1667,8.576616157780563,5.2172120201016545,6.797257243812015,2.7714082856558377,21.183000000019092
312264.1677,8.226168145497322,4.57074787783117,5.795726046449097,2.2111976614537903,21.184000000008382
312264.1687,7.685678995682912,3.7871481279080297,4.612119660166884,1.5043522614619274,21.18499999999767
312264.1697,6.968758203352767,2.898507261471076,3.2799149344332026,0.6767087003044723,21.18600000004517
312264.1707,6.11011171072656,1.9534013118868259,1.8522060528339137,-0.2276417344873518,21.18700000003446
312264.1717,5.16229949478331,1.0128636888498237,0.39782862744886793,-1.1501571342814243,21.18800000002375
312264.1727,4.1906042929353475,0.1448262077549455,-1.004275228732156,-2.023362220632957,21.18900000001304
312264.1737,3.266524279075437,-0.5824437208828644,-2.271925353335654,-2.7775451362072507,21.19000000000233
312264.1747,2.460538768218944,-1.10726806429119,-3.327152950641174,-3.3479733523602264,21.190999999991618
312264.1757,1.834868485198622,-1.3811554418223408,-4.103514389116099,-3.6819060874241045,21.192000000039116
312264.1767,1.4369535951279278,-1.3744003918197636,-4.552558224253664,-3.7446895168775978,21.193000000028405
312264.1777,1.2943034957630057,-1.0801001857319528,-4.648808821726132,-3.5243005446543036,21.194000000017695
312264.1787,1.411239165630249,-0.5161489905617254,-4.392766521738694,-3.0338475977882537,21.195000000006985
312264.1797,1.7678647319968515,0.2750418675551344,-3.811609783606388,-2.311729193483887,21.195999999996275
312264.1807,2.3213878979637177,1.2291332303931939,-2.957501323294904,-1.419374404813501,21.197000000043772
312264.1817,3.009680148720314,2.2645713266567933,-1.9036270348412918,-0.436722224189189,21.198000000033062
312264.1827,3.756749538778487,3.2890333756967514,-0.7383116142490176,0.5441833876219924,21.19900000002235
312264.1837,4.4796125566531195,4.207043822937528,0.44226243438879276,1.4269206398034537,21.20000000001164
312264.1847,5.095915133253,4.928081373003706,1.5420729055140103,2.119044288374543,21.20100000000093
312264.1857,5.53157946636965,5.374442677878388,2.473283442466844,2.540305013091419,21.20199999999022
312264.1867,5.727749969269351,5.488143485988433,3.163546018697919,2.629976493225509,21.20300000003772
312264.1877,5.64637848087041,5.236221091687921,3.561918274800242,2.35260977441923,21.20400000002701
312264.1887,5.273919240825093,4.613945324557951,3.642864640856211,1.7016761586592302,21.205000000016298
312264.1897,4.622785226453267,3.645635562288571,3.4079910201774304,0.7007527893335866,21.206000000005588
312264.1907,3.7304315767011698,2.3830003167988467,2.8853760121145426,-0.5978690362724903,21.206999999994878
312264.1917,2.6561581499974563,0.9011430421355918,2.1265866632560657,-2.117035547482952,21.208000000042375
312264.1927,1.475939825654877,-0.7074086093217788,1.2016819508488932,-3.760698866057303,21.209000000031665
312264.1937,0.27577903671344345,-2.3401130451437844,0.19269204337667448,-5.421465436104194,21.210000000020955
312264.1947,-0.8557876513289305,-3.892598418080388,-0.8138017069690964,-6.989045610649142,21.211000000010245
312264.1957,-1.8353214070740025,-5.266887468648117,-1.7342849566801644,-8.358847597220503,21.211999999999534
312264.1967,-2.5915369101085273,-6.378934004241698,-2.495417231457596,-9.439952614922687,21.212999999988824
312264.1977,-3.071129471071466,-7.164812613872597,-3.0399775282928014,-10.16177355048643,21.21400000003632
312264.1987,-3.242845494257021,-7.585035590134343,-3.331120082166061,-10.478829959968184,21.21500000002561
312264.1997,-3.099442975683091,-7.626651675205748,-3.35458260595585,-10.37325504386794,21.2160000000149
312264.2007,-2.657396238352234,-7.302992590226062,-3.118692761936189,-9.854867350929066,21.21700000000419
312264.2017,-1.9544189846088516,-6.651154887784551,-2.652234588406962,-8.958870339682958,21.21799999999348
312264.2027,-1.045090422478481,-5.727515133520184,-2.0004439260733045,-7.741464280836587,21.219000000040978
312264.2037,0.004949881166717831,-4.60175560755212,-1.219580365806941,-6.2738460535351885,21.220000000030268
312264.2047,1.1256392274456994,-3.3500085969212074,-0.37065560322327334,-4.635214977039353,21.221000000019558
312264.2057,2.249288567667572,-2.0477976985983837,0.4870283224603861,-2.9054835572691,21.222000000008848
312264.2067,3.3168600756281994,-0.7634581142303797,1.3018694310802745,-1.1584036589269795,21.222999999998137
312264.2077,4.2831078443375645,0.44734499875147593,2.0348813086521047,0.5442393210954167,21.224000000045635
312264.2087,5.120086089374982,1.5455036337058883,2.6630478940603326,2.1568328521921845,21.225000000034925
312264.2097,5.81869984802526,2.510432626129997,3.1807971758721583,3.6521846643032405,21.226000000024214
312264.2107,6.3881751758562,3.3399865307594845,3.5994699242584005,5.021656697572408,21.227000000013504
312264.2117,6.853539042307726,4.048409610937084,3.9448673957296068,6.27324899765488,21.228000000002794
312264.2127,7.251402230398149,4.662599183429759,4.253160292117768,7.427905746334951,21.228999999992084
312264.2137,7.624511304692784,5.2171302196591185,4.5656103267767145,8.514494664074993,21.23000000003958
312264.2147,8.01566091075971,5.748609599343198,4.9226786818306945,9.564042634153795,21.23100000002887
312264.2157,8.461622822569552,6.289990005933613,5.358160155922289,10.603881665445927,21.23200000001816
312264.2167,8.987746736425313,6.865470314691968,5.893981428026962,11.652363348355882,21.23300000000745
312264.2177,9.603819901763394,7.4865420896885775,6.536236561959141,12.71473657370529,21.23399999999674
312264.2187,10.301644964255047,8.149617496230189,7.27290905273384,13.780658985795716,21.235000000044238
312264.2197,11.054620510577383,8.83550524584017,8.073559590868236,14.823639989909502,21.236000000033528
312264.2207,11.81940409790107,9.510805224819585,8.891059135242882,15.80250950555328,21.237000000022817
312264.2217,12.539523388749494,10.131089025283455,9.665237650393445,16.66479252413956,21.238000000012107
312264.2227,13.150598768482732,10.645543253461197,10.328120816167388,17.351666448326686,21.239000000001397
312264.2237,13.5866707765721,11.002594494796265,10.810259967493861,17.80400666562455,21.239999999990687
312264.2247,13.787005009273708,11.155925227216965,11.04754130008952,17.968903266631834,21.241000000038184
312264.2257,13.702688214770014,11.070240053751142,10.987801165764308,17.805970870656157,21.242000000027474
312264.2267,13.302338416300465,10.726156713469422,10.59658139383838,17.292780704112584,21.243000000016764
312264.2277,12.576328679548078,10.123675303577096,9.8614318171268,16.42881918138568,21.244000000006054
312264.2287,11.539061513657774,9.283814516424746,8.794299837781866,15.237513306899102,21.244999999995343
312264.2297,10.229015765943053,8.24818233059806,7.431726340922807,13.766047207939605,21.24600000004284
312264.2307,8.706502386545385,7.076452999812593,5.8327762823365985,12.082908156087251,21.24700000003213
312264.2317,7.049288727977524,5.841932213376832,4.074850576296141,10.27332360008096,21.24800000002142
312264.2327,5.3464612508402105,4.625587144633633,2.2477322085548654,8.432961050661513,21.24900000001071
312264.2337,3.691072937252158,3.509078327229978,0.4463935805020467,6.660439301932333,21.25
312264.2347,2.172246870547216,2.567439772242601,-1.23678321438239,5.0493248101229815,21.25099999998929
312264.2357,0.8674687516322752,1.862101232166849,-2.7196585972987295,3.680348384688664,21.252000000036787
312264.2367,-0.16420780682436875,1.4349268249868992,-3.937150990166556,2.6145681889878127,21.253000000026077
312264.2377,-0.8873981081636118,1.3038587066878036,-4.846579848686839,1.8881257735264556,21.254000000015367
312264.2387,-1.2935615372373082,1.4606109294182803,-5.43103527212067,1.5090997005789952,21.255000000004657
312264.2397,-1.401801811209296,1.8706705626466607,-5.700456487884202,1.4567696572326612,21.255999999993946
312264.2407,-1.2572006156051918,2.4756485132237027,-5.69031575036738,1.683381060464026,21.257000000041444
312264.2417,-0.926824230612177,3.1978018562305177,-5.458028825084903,2.118267399672537,21.258000000030734
312264.2427,-0.4937615379511647,3.946344148799079,-5.077426622668791,2.6739673276244873,21.259000000020023
312264.2437,-0.049736958038968125,4.624990004905161,-4.631804135954283,3.2537870273370695,21.260000000009313
312264.2447,0.3130244790694554,5.140061675395941,-4.2061951207569885,3.7601236445895507,21.260999999998603
312264.2457,0.5099334829978502,5.408430056516173,-3.8795912284692,4.1027955877900055,21.2620000000461
312264.2467,0.4714296642592655,5.364575898104375,-3.717825848187838,4.206627002197328,21.26300000003539
312264.2477,0.14895959455875174,4.9661378206737,-3.7677757228918245,4.0176065470105895,21.26400000002468
312264.2487,-0.4809956865236124,4.1974543741659165,-4.053404116472499,3.507077660859771,21.26500000001397
312264.2497,-1.415192219993472,3.0707942964223935,-4.573990594191466,2.673605500145072,21.26600000000326
312264.2507,-2.6243229480823094,1.6251844042443595,-5.30468178393589,1.5423864662792939,21.26699999999255
312264.2517,-4.056044675436586,-0.07703249922505445,-6.19927532356098,0.16229835396549483,21.268000000040047
312264.2527,-5.640011929973073,-1.9555680737578787,-7.194937145399218,-1.3990897523424313,21.269000000029337
312264.2537,-7.294410773390935,-3.9189700999159722,-8.218370828256017,-3.062039912483428,21.270000000018626
312264.2547,-8.933349255477847,-5.872173101912618,-9.19282443150736,-4.742053763734026,21.271000000007916
312264.2557,-10.474388199450974,-7.724112795699833,-10.045247729586189,-6.357445726083929,21.271999999997206
312264.2567,-11.845493122111927,-9.394704236933196,-10.712907810267302,-7.836355279073097,21.273000000044703
312264.2577,-12.990755232098456,-10.820555575310282,-11.148833670827493,-9.122538581831874,21.274000000033993
312264.2587,-13.874359656961415,-11.958920977259682,-11.325584194951231,-10.17940927912872,21.275000000023283
312264.2597,-14.482459208185071,-12.789574400407316,-11.237006198857737,-10.99197847311576,21.276000000012573
312264.2607,-14.822824120457733,-13.314492866252687,-10.897852846000685,-11.566556611496122,21.277000000001863
312264.2617,-14.922361223946684,-13.555453320920849,-10.341347371125774,-11.928304383154952,21.277999999991152
312264.2627,-14.822807837529906,-13.549849993442665,-9.614981430852739,-12.116933492682495,21.27900000003865
312264.2637,-14.57508537848214,-13.345209571660567,-8.775011293127777,-12.181040382269833,21.28000000002794
312264.2647,-14.23292756161854,-12.99300298145653,-7.880241346982662,-12.171688724639116,21.28100000001723
312264.2657,-13.84646536225598,-12.542413397628465,-6.985750670781983,-12.135926876976246,21.28200000000652
312264.2667,-13.456449112034344,-12.03471464658886,-6.1372182310208885,-12.11092769150561,21.28299999999581
312264.2677,-13.089717510843297,-11.498843229264093,-5.366435887303684,-12.119370184391345,21.284000000043306
312264.2687,-12.75639112067175,-10.948618084564687,-4.688472524096717,-12.166552452234146,21.285000000032596
312264.2697,-12.449087323681551,-10.381887933185435,-4.100779994451741,-12.239545914669892,21.286000000021886
312264.2707,-12.144242850901927,-9.781684025844768,-3.5843294748588073,-12.308490328507645,21.287000000011176
312264.2717,-11.80540991883998,-9.119246526144515,-3.106655560863234,-12.329908036196539,21.288000000000466
312264.2727,-11.38818479193777,-8.358596482186277,-2.626486180182837,-12.251706585302168,21.288999999989755
312264.2737,-10.84625402943093,-7.462161966850548,-2.099469199098245,-12.019362060338548,21.290000000037253
312264.2747,-10.137921296068876,-6.3968528425980065,-1.4843883346969236,-11.582648891064554,21.291000000026543
312264.2757,-9.232418911761561,-5.139925238285836,-0.7492037203320039,-10.902218299452148,21.292000000015832
312264.2767,-8.115319510348822,-3.683989741207819,0.12373776342586791,-9.955333487943976,21.293000000005122
312264.2777,-6.792443598720363,-2.0405955086618577,1.1339010906376061,-8.740144877697286,21.293999999994412
312264.2787,-5.291800930840922,-0.24195855250946893,2.260613908684791,-7.278026074752771,21.29500000004191
312264.2797,-3.6632937851198926,1.659416809448184,3.463231318579999,-5.613677533402531,21.2960000000312
312264.2807,-1.976130003272621,3.5932665063240825,4.683466420607159,-3.81292200936828,21.29700000002049
312264.2817,-0.3141215554846324,5.476073832196157,5.849720698038536,-1.9583426769399352,21.29800000000978
312264.2827,1.230741926401874,7.21718336398306,6.8830442695659,-0.14312903443132843,21.29899999999907
312264.2837,2.565876845331115,8.725983610358439,7.704185923470584,1.5363235961094726,21.300000000046566
312264.2847,3.606153459553389,9.919504531716894,8.241073656153322,2.9883858852108003,21.301000000035856
312264.2857,4.281655131468304,10.729722418272873,8.436010270432147,4.133997530447645,21.302000000025146
312264.2867,4.544408756419536,11.10987872269865,8.25188144057424,4.913567344236965,21.303000000014435
312264.2877,4.373429971642387,11.039200383230412,7.676754818970283,5.292312900522335,21.304000000003725
312264.2887,3.7775744437363725,10.525549538292543,6.726390898640305,5.263522590510715,21.304999999993015
312264.2897,2.7958843298637697,9.605717158530403,5.444376169464302,4.849413708777437,21.306000000040513
312264.2907,1.495348268713963,8.343290347998074,3.8998086617624432,4.09948323058705,21.307000000029802
312264.2917,-0.03376774852827541,6.824246443255117,2.182694367838556,3.0864819301750503,21.308000000019092
312264.2927,-1.684635288801024,5.150637296069788,0.3974284517761161,1.9003650049554688,21.309000000008382
312264.2937,-3.3420494108382774,3.432904217579613,-1.345083045706228,0.6407620510091113,21.30999999999767
312264.2947,-4.891372320983032,1.781491099735866,-2.9359746112826883,-0.5913521521356208,21.31100000004517
312264.2957,-6.227449078504479,0.29848810418400906,-4.27689242940492,-1.7020303819915752,21.31200000003446
312264.2967,-7.26271046895219,-0.9299651458536364,-5.287635336955454,-2.612010916922585,21.31300000002375
312264.2977,-7.933752130526361,-1.8398593476014482,-5.912289099439218,-3.2629715106954373,21.31400000001304
312264.2987,-8.205819184852897,-2.393553251936269,-6.123314368092287,-3.6218245127124074,21.31500000000233
312264.2997,-8.074818692383698,-2.5817252078220854,-5.923235887521162,-3.6826847239118496,21.315999999991618
312264.3007,-7.5667098799862265,-2.42290632840899,-5.343800383232216,-3.46636225848219,21.317000000039116
312264.3017,-6.734362647876064,-1.9606858542517052,-4.442702206719201,-3.0174662944396204,21.318000000028405
312264.3027,-5.6522055284151635,-1.2588916325129276,-3.2981972748939414,-2.399429643304612,21.319000000017695
312264.3037,-4.409183212604053,-0.39523038325280424,-2.0021161320085996,-1.6879570109785136,21.320000000006985
312264.3047,-3.10069225421257,0.5459935715022183,-0.6519281279523907,-0.9635431707191454,21.320999999996275
312264.3057,-1.820247780950451,1.4813886726501229,0.6574124598063787,-0.3037873854381858,21.322000000043772
312264.3067,-0.6516463875081612,2.3355162307103985,1.841098217251067,0.22376016636155013,21.323000000033062
312264.3077,0.33766979755252874,3.0468209958350894,2.830898832348454,0.567546060469678,21.32400000002235
312264.3087,1.101469255604246,3.5719335974851534,3.5798347214814283,0.6962082436377274,21.32500000001164
312264.3097,1.6174086991218246,3.8879953251091206,4.064714730184172,0.6006494076929948,21.32600000000093
312264.3107,1.887349035050513,3.9928562828684697,4.286368387401384,0.2938343394151999,21.32699999999022
312264.3117,1.9353567043766329,3.903210135635043,4.267626526059556,-0.19161676884261522,21.32800000003772
312264.3127,1.8036597404745658,3.650931558531531,4.049319241725991,-0.807749286325179,21.32900000002701
312264.3137,1.5470208084271433,3.2780562131462627,3.6847463391294526,-1.4970322573032266,21.330000000016298
312264.3147,1.2261344896043702,2.8309706743119567,3.233214741401173,-2.1989379456350058,21.331000000005588
312264.3157,0.9007394301380165,2.3544489242702107,2.7533166066267456,-2.8566508353076303,21.331999999994878
312264.3167,0.6231500719053849,1.8861763486638026,2.2966338528541486,-3.423207536916293,21.333000000042375
312264.3177,0.4328567696931799,1.4523416003114782,1.902498814034576,-3.8664326201471635,21.334000000031665
312264.3187,0.35272330361494814,1.0647576769494627,1.5943228894981354,-4.172162618378137,21.335000000020955
312264.3197,0.3871395252075143,0.7198083208160214,1.3778374246743004,-4.345428533596088,21.336000000010245
312264.3207,0.5222815582748027,0.399321201108023,1.2413906416924638,-4.409478259247134,21.336999999999534
312264.3217,0.7284133311920163,0.0732649988112405,1.1582313680594183,-4.402743300934281,21.337999999988824
312264.3227,0.9639531988072387,-0.29602586611860443,1.0905059117788765,-4.374066681012054,21.33900000003632
312264.3237,1.1808490285180802,-0.7485579982298628,0.994519095667792,-4.376689652794456,21.34000000002561
312264.3247,1.3306723609545184,-1.3208922933394167,0.8266816423556764,-4.461625648414612,21.3410000000149
312264.3257,1.3707702900797574,-2.040495821801903,0.5494965768221742,-4.671117511952076,21.34200000000419
312264.3267,1.2698096109042176,-2.9208568563989767,0.13693393665171788,-5.032871565443887,21.34299999999348
312264.3277,1.012111820384167,-3.9579158697352734,-0.4213939047461872,-5.5556894311497595,21.344000000040978
312264.3287,0.6003031672476433,-5.1282364987606455,-1.1177209756772042,-6.226982785217038,21.345000000030268
312264.3297,0.0559784001660825,-6.389167256697152,-1.9255745308982213,-7.01247064606228,21.346000000019558
312264.3307,-0.5817174645113875,-7.681044380465312,-2.8012728587121614,-7.858141701746122,21.347000000008848
312264.3317,-1.2594689061507776,-8.931278624677025,-3.6873555499465778,-8.694337040447055,21.347999999998137
312264.3327,-1.9148059867846459,-10.059974830653731,-4.517627255339974,-9.441594016966162,21.349000000045635
312264.3337,-2.4822588779081918,-10.986572211828474,-5.223326647209835,-10.01771124619945,21.350000000034925
312264.3347,-2.9000298806745795,-11.636881784576673,-5.739811236476335,-10.345365951435252,21.351000000024214
312264.3357,-3.1165011436763774,-11.949846667366772,-6.013088201043351,-10.359551114033218,21.352000000013504
312264.3367,-3.095904055277259,-11.883366508366759,-6.005527771611796,-10.014107693403703,21.353000000002794
312264.3377,-2.822552255339124,-11.418607973419512,-5.700168670436058,-9.28670618963384,21.353999999992084
312264.3387,-2.303177145009205,-10.56236147488656,-5.10315766579743,-8.181774571146946,21.35500000003958
312264.3397,-1.5670893494750748,-9.347186877132028,-4.244044613121018,-6.731062365261355,21.35600000002887
312264.3407,-0.664103700229426,-7.829300095721181,-3.1738628574783623,-4.991754847817264,21.35700000001816
312264.3417,0.3396121566747061,-6.08436796096557,-1.9611420860585684,-3.042284996785628,21.35800000000745
312264.3427,1.3673964792788313,-4.2015794156764095,-0.6862052344856083,-0.9762114482625734,21.35899999999674
312264.3437,2.3391158645405077,-2.2765274278169114,0.5657273559700001,1.105283377534936,21.360000000044238
312264.3447,3.1786850812511602,-0.40355160658328676,1.7119817097369319,3.1015876561243743,21.361000000033528
312264.3457,3.8213595872014885,1.3317549799391397,2.679717634870065,4.920792332529253,21.362000000022817
312264.3467,4.220088128577124,2.85918523488861,3.4123643400617194,6.487011354717274,21.363000000012107
312264.3477,4.350294751568642,4.129094360802193,3.874585397940699,7.7462171329580585,21.364000000001397
312264.3487,4.212603784331599,5.11564253896125,4.055291391935211,8.670059780124323,21.364999999990687
312264.3497,3.8332142248663144,5.81781746109861,3.968403262685326,9.257330867154348,21.366000000038184
312264.3507,3.26185303916007,6.258161744544032,3.651283756031703,9.532956773837792,21.367000000027474
312264.3517,2.5674686483727545,6.4793488298545245,3.160977736638869,9.544641493816872,21.368000000016764
312264.3527,1.832043933330658,6.538955429358605,2.5686128027348176,9.357501236910785,21.369000000006054
312264.3537,1.1430912142731888,6.502949191295615,1.9524891261669046,9.047221853717003,21.369999999995343
312264.3547,0.5855219815501757,6.438530478389624,1.3905144301785195,8.692406792170067,21.37100000004284
312264.3557,0.23364882100678552,6.40702543331632,0.9527040563123059,8.366854872548007,21.37200000003213
312264.3567,0.14406947708360007,6.457518238751283,0.6944608058518241,8.132506884672228,21.37300000002142
312264.3577,0.3501037790156023,6.621834663895264,0.6512750392390169,8.033728130868724,21.37400000001071
312264.3587,0.8583106176728899,6.911354080385018,0.8353494494386754,8.093457805795861,21.375
312264.3597,1.647417940877176,7.315946330846921,1.234468086358036,8.311569033908787,21.37599999998929
312264.3607,2.669772399920816,7.805120803636766,1.8132134495353855,8.665563933389993,21.377000000036787
312264.3617,3.8551785280574378,8.331258203979695,2.5164096584746916,9.113497828809251,21.378000000026077
312264.3627,5.11677289006303,8.834591957418368,3.2744557196127864,9.598808294087322,21.379000000015367
312264.3637,6.358388060869071,9.249435762452684,4.010031465014791,10.056539471178661,21.380000000004657
312264.3647,7.482722852234501,9.511033101541136,4.645527414670321,10.420318178915393,21.380999999993946
312264.3657,8.399562147948016,9.562345232904708,5.110481319904925,10.629368731896982,21.382000000041444
312264.3667,9.033288942288618,9.360102022563941,5.3483050856077,10.63485481960978,21.383000000030734
312264.3677,9.3290026218089,8.879514078801245,5.321656005326727,10.40490894581344,21.384000000020023
312264.3687,9.256694124984355,8.117177688132655,5.015938909000137,9.927845533275013,21.385000000009313
312264.3697,8.813117008223974,7.09188293654188,4.440607993731277,9.213239352215135,21.385999999998603
312264.3707,8.021215306665242,5.843242571619395,3.6281510614722503,8.290768010585643,21.3870000000461
312264.3717,6.927202874245151,4.428274302418211,2.6308638298903344,7.206944322914122,21.38800000003539
312264.3727,5.595611989934738,2.9162712543764826,1.5157360718601893,6.020078931697791,21.38900000002468
312264.3737,4.102819896523809,1.3824643949838302,0.35795380818704314,4.793994289280573,21.39000000001397
312264.3747,2.529702256577914,-0.09889965700025298,-0.7663450465416336,3.591140027803746,21.39100000000326
312264.3757,0.9541388961896586,-1.4613836666947653,-1.7873531695332834,2.4658239399478266,21.39199999999255
312264.3767,-0.5558974524282844,-2.6524145161521098,-2.64820398727568,1.458265708284538,21.393000000040047
312264.3777,-1.9480045804074724,-3.637969293765985,-3.3102660739664307,0.5901026086254282,21.394000000029337
312264.3787,-3.1892319170317136,-4.405428100731848,-3.7566078485792587,-0.13816489863044223,21.395000000018626
312264.3797,-4.26782661937037,-4.96430848504002,-3.993297900792054,-0.7474907955254694,21.396000000007916
312264.3807,-5.192707128764144,-5.344804264946492,-4.048417831985568,-1.2782895648972956,21.396999999997206
312264.3817,-5.9907540948057925,-5.594267326770451,-3.9688877202306063,-1.7862873434656246,21.398000000044703
312264.3827,-6.702225828275724,-5.77197364637148,-3.8154174842032864,-2.3365928871869355,21.399000000033993
312264.3837,-7.3747912573220455,-5.942684424960054,-3.656079815533522,-2.9965462090386756,21.400000000023283
312264.3847,-8.056809561048858,-6.169633191265231,-3.559134280932926,-3.828032797719919,21.401000000012573
312264.3857,-8.790558984261926,-6.507628186457147,-3.5858047149496812,-4.880015215007518,21.402000000001863
312264.3867,-9.606120736801188,-6.996950498509845,-3.783716177700112,-6.182024942151005,21.402999999991152
312264.3877,-10.516557170543289,-7.658653006747617,-4.181633250390858,-7.739276017648282,21.40400000003865
312264.3887,-11.51489331325247,-8.491730500486314,-4.786014678883381,-9.529915746751469,21.40500000002794
312264.3897,-12.573230246246718,-9.472450416580791,-5.579722796056651,-11.504730374399086,21.40600000001723
312264.3907,-13.644105609636002,-10.555924098327454,-6.523017029443547,-13.589393916274954,21.40700000000652
312264.3917,-14.663991754098356,-11.6797807243149,-7.5567395404276985,-15.689108346754763,21.40799999999581
312264.3927,-15.558607893205133,-12.769601320472349,-8.607389195620287,-17.695256114660488,21.409000000043306
312264.3937,-16.249540141715343,-13.745598523869798,-9.593598227882737,-19.49349338358179,21.410000000032596
312264.3947,-16.661530514689648,-14.52990577296204,-10.43339172210451,-20.972573050856063,21.411000000021886
312264.3957,-16.72972587648902,-15.053779264004447,-11.05153639330822,-22.033113952415736,21.412000000011176
312264.3967,-16.40617736195183,-15.264023228164673,-11.386279007189495,-22.595533751827464,21.413000000000466
312264.3977,-15.66494999572998,-15.1280231466518,-11.39483661013843,-22.606437777891074,21.413999999989755
312264.3987,-14.505334320943296,-14.636905208409964,-11.05712423607328,-22.042897356818784,21.415000000037253
312264.3997,-12.952833859739906,-13.806520591140417,-10.37737867969112,-20.91424542696942,21.416000000026543
312264.4007,-11.057816323469016,-12.676162443329426,-9.383542211203851,-19.261245797537676,21.417000000015832
312264.4017,-8.891941696453044,-11.305141383313337,-8.12448758110706,-17.152733429676136,21.418000000005122
312264.4027,-6.54269459459675,-9.767550716075792,-6.6653740172474025,-14.680053560653695,21.418999999994412
312264.4037,-4.10653070438962,-8.145725460344321,-5.081602801285051,-11.949825442441854,21.42000000004191
312264.4047,-1.6812798442234222,-6.5230229397864745,-3.451973030246384,-9.075703230603205,21.4210000000312
312264.4057,0.6414816481453235,-4.97661521416673,-1.8517105750293628,-6.169888462730616,21.42200000002049
312264.4067,2.7833756722656404,-3.5709790822055956,-0.3460491856207701,-3.335158257194395,21.42300000000978
312264.4077,4.684839211739915,-2.3526983970369706,1.015018144794887,-0.6581104997357813,21.42399999999907
312264.4087,6.308899180294213,-1.3470630877407777,2.2003208023990655,1.7958014676652985,21.425000000046566
312264.4097,7.642771714597832,-0.5567724302560978,3.199098098156165,3.9850537929453425,21.426000000035856
312264.4107,8.697164738894303,0.03715589167084661,4.0204667881762495,5.892482358108663,21.427000000025146
312264.4117,9.503386030459302,0.4723844052469316,4.690855207087924,7.523414102327771,21.428000000014435
312264.4127,10.108571595993832,0.8004786653381232,5.249693673892386,8.90177646147613,21.429000000003725
312264.4137,10.569530179943257,1.0808421239558585,5.743824242538774,10.06465292009855,21.429999999993015
312264.4147,10.94583154588276,1.3739739223607466,6.221219588286693,11.05589499341096,21.431000000040513
312264.4157,11.292836022837577,1.7347233102302206,6.724668393019339,11.919481170204246,21.432000000029802
312264.4167,11.65536399183262,2.2062110878000163,7.286086413949357,12.693324137557562,21.433000000019092
312264.4177,12.062636530933577,2.815019518177304,7.922048376092229,13.40416850119131,21.434000000008382
312264.4187,12.524989079009345,3.568124476772627,8.631012298873076,14.064098594690472,21.43499999999767
312264.4197,13.032681505906064,4.451869824002512,9.392537093323474,14.669002426314874,21.43600000004517
312264.4207,13.556917969567602,5.433081219500485,10.16859314863587,15.199130885093387,21.43700000003446
312264.4217,14.052969052365777,6.4622047608564595,10.906854063501935,15.621671777368533,21.43800000002375
312264.4227,14.465078607467838,7.4781557043957925,11.545656610986176,15.895048022318658,21.43900000001304
312264.4237,14.732659151280787,8.41439371144901,12.020145385003245,15.97446934705496,21.44000000000233
312264.4247,14.79715006197249,9.205620070140835,12.268995318364627,15.818134992429288,21.440999999991618
312264.4257,14.608845031742966,9.794430972249762,12.241041700244072,15.393414371709481,21.442000000039116
312264.4267,14.132995859026979,10.137265119730893,11.90114990806407,14.682330329693317,21.443000000028405
312264.4277,13.354568726733815,10.209053201052189,11.234725755222582,13.685735868110143,21.444000000017695
312264.4287,12.281159846972146,10.006104235204107,10.250395583371695,12.425703377054042,21.445000000006985
312264.4297,10.943756954715141,9.546936850386873,8.980560564046959,10.945822837929112,21.445999999996275
312264.4307,9.395243989201536,8.87096520253306,7.479735026777635,9.309314545654775,21.447000000043772
312264.4317,7.706767718939651,8.035159619801231,5.820793919757669,7.595081887114172,21.448000000033062
312264.4327,5.9622953005922055,7.109000522949894,4.089458637623225,5.892038753666879,21.44900000002235
312264.4337,4.251870156042942,6.168211254147596,2.377523376610185,4.292223454606547,21.45000000001164
312264.4347,2.6642025640353206,5.287874790850658,0.7754488840026016,2.8833388388440033,21.45100000000093
312264.4357,1.279298293177788,4.535599278999453,-0.6349853586504253,1.7414238822562884,21.45199999999022
312264.4367,0.16182684432031072,3.965392091018314,-1.7872822396906531,0.9243585424833732,21.45300000003772
312264.4377,-0.6441394412983289,3.6128323091378993,-2.6354626735163547,0.4668312991767572,21.45400000002701
312264.4387,-1.1185161476448306,3.4920041049112807,-3.1574467100269747,0.37726435475436726,21.455000000016298
312264.4397,-1.2664089165358237,3.594481032199488,-3.3562681517770514,0.6370079575605113,21.456000000005588
312264.4407,-1.117020238209175,3.8904507768889354,-3.259018170258499,1.2019005606779591,21.456999999994878
312264.4417,-0.7203762711678543,4.331861141302589,-2.9136309324721834,2.006066474265719,21.458000000042375
312264.4427,-0.14219965840110893,4.857271497040075,-2.3838306606063986,2.967609273664247,21.459000000031665
312264.4437,0.5425672179498814,5.3979288961041325,-1.7427347457208124,3.995678335358626,21.460000000020955
312264.4447,1.2569552254857066,5.884470640545675,-1.0657344687252794,4.998255165330102,21.461000000010245
312264.4457,1.929177723940308,6.253596821073234,-0.4233412180548108,5.889938431878383,21.461999999999534
312264.4467,2.499158097456488,6.454062763355757,0.12531457066038573,6.599008432029071,21.462999999988824
312264.4477,2.923748085405828,6.451411711702859,0.5377120446838072,7.0731229149388435,21.46400000003632
312264.4487,3.180141362958291,6.230995383605903,0.7914041139270712,7.283129778271409,21.46500000002561
312264.4497,3.267167220368124,5.799001597307465,0.8854004586955835,7.224665064002288,21.4660000000149
312264.4507,3.2043602636733257,5.18140700698164,0.8393583427258909,6.917419010264852,21.46700000000419
312264.4517,3.028923008390194,4.420979393661065,0.6906861339949866,6.402177704825539,21.46799999999348
312264.4527,2.790907279285003,3.572647525956923,0.4898694221126249,5.73596116536892,21.469000000040978
312264.4537,2.547116837128744,2.697718157611596,0.29450358392022763,4.985759620400527,21.470000000030268
312264.4547,2.3543601846743942,1.8575332549246033,0.16264255014117196,4.221500749185473,21.471000000019558
312264.4557,2.2627465177312303,1.1072147640688914,0.14613904342408437,3.5089489451025075,21.472000000008848
312264.4567,2.30971288392052,0.49013370502288617,0.2846502948363671,2.9032367461291457,21.472999999998137
312264.4577,2.5153971744299346,0.03366608095972986,0.6009153599904525,2.4436586914092593,21.474000000045635
312264.4587,2.879836743866769,-0.2533326993122058,1.0977823497026469,2.150226062747848,21.475000000034925
312264.4597,3.382289441596988,-0.38107757864787256,1.7572887570226488,2.0223003986586785,21.476000000024214
312264.4607,3.9827606412465655,-0.37737122030827225,2.5418928568191492,2.0394122756971194,21.477000000013504
312264.4617,4.625597496472306,-0.2842395893195799,3.3977391011622244,2.164150628025157,21.478000000002794
312264.4627,5.244802120587644,-0.15302931914654874,4.259636746912939,2.3467987887282042,21.478999999992084
312264.4637,5.7705394821054785,-0.038469904166641096,5.057258750313869,2.5312172655709935,21.48000000003958
312264.4647,6.136191084032953,0.00768635076480946,5.72194429420495,2.661347553195095,21.48100000002887
312264.4657,6.285244533063157,-0.05721537892584701,6.193425473752972,2.6876486057940894,21.48200000001816
312264.4667,6.177318261525956,-0.26149687725179316,6.425802989004305,2.572784302602992,21.48300000000745
312264.4677,5.792699427844371,-0.6153591150721157,6.392166915680891,2.2959558292063464,21.48399999999674
312264.4687,5.134914038785224,-1.1089661610879542,6.0873899102975395,1.855410044193671,21.485000000044238
312264.4697,4.231038116878925,-1.712641587856441,5.528798796883872,1.268840159694839,21.486000000033528
312264.4707,3.129678947435363,-2.3792089078084606,4.75463895204969,0.5716101840268887,21.487000000022817
312264.4717,1.896784687844947,-3.0482925234022367,3.820463852998583,-0.18704172134865849,21.488000000012107
312264.4727,0.6096565318350056,-3.652195964851916,2.7937882023731735,-0.94945574630202,21.489000000001397
312264.4737,-0.6502809833280974,-4.1228095659185,1.7475169321807438,-1.6561181073980278,21.489999999990687
312264.4747,-1.805266966818186,-4.398886636788871,0.7527869534518528,-2.252680009077549,21.491000000038184
312264.4757,-2.7888002401459615,-4.43297715307458,-0.12807862182865576,-2.6967056946532555,21.492000000027474
312264.4767,-3.552304503975831,-4.197326443631419,-0.8478092855812659,-2.963440265948305,21.493000000016764
312264.4777,-4.070202434203628,-3.688132156342558,-1.3789975250860635,-3.049971362912444,21.494000000006054
312264.4787,-4.342882615028957,-2.9276982050269944,-1.7169933906933754,-2.97730518435322,21.494999999995343
312264.4797,-4.3972380522241385,-1.9642159380498232,-1.8805780084907122,-2.790072939418142,21.49600000004284
312264.4807,-4.2846821410563365,-0.869122388831354,-1.910323604304373,-2.5538100110407904,21.49700000003213
312264.4817,-4.076785769214947,0.2677876447205523,-1.8647704839110633,-2.3499851744625064,21.49800000002142
312264.4827,-3.858905020440833,1.3451063839187487,-1.8147628252871575,-2.269178459295187,21.49900000001071
312264.4837,-3.7223611308382463,2.2578474617521653,-1.8364646181331372,-2.402992212390612,21.5
312264.4847,-3.7558745565021074,2.9060763648683023,-2.0037072425708,-2.835412462011013,21.50099999998929
312264.4857,-4.0370298249331364,3.203380828059639,-2.3803883824379817,-3.6344037275582832,21.502000000036787
312264.4867,-4.624550104226226,3.0844323721574325,-3.0136415729237194,-4.844513237084574,21.503000000026077
312264.4877,-5.55208990670577,2.510966704838312,-3.9284266661073546,-6.481180385539901,21.504000000015367
312264.4887,-6.82411776229273,1.47564930965521,-5.124060460909351,-8.527301452613942,21.505000000004657
312264.4897,-8.414271045778065,0.003480189313010797,-6.57302625982208,-10.932401649713343,21.505999999993946
312264.4907,-10.266340430045336,-1.849389252285194,-8.222188505931893,-13.61453501413293,21.507000000041444
312264.4917,-12.29780294272886,-3.9993243761076527,-9.996314306785335,-16.4647892475412,21.508000000030734
312264.4927,-14.405592822031526,-6.341038570724632,-11.80358903889606,-19.35404014756204,21.509000000020023
312264.4937,-16.473599847806486,-8.755077585453646,-13.542628826126762,-22.141400562961593,21.510000000009313
312264.4947,-18.381234107785627,-11.116307200648617,-15.11035600141611,-24.68366040283753,21.510999999998603
312264.4957,-20.01230801631237,-13.302675760306556,-16.41002753968559,-26.84493079333609,21.5120000000461
312264.4967,-21.263468539382078,-15.203512031292782,-17.358697847144096,-28.505694412878576,21.51300000003539
312264.4977,-22.051465933664772,-16.72667570315193,-17.893456623486536,-29.570525841763427,21.51400000002468
312264.4987,-22.31866400617823,-17.803996373175384,-17.97590363620713,-29.973873997263848,21.51500000001397
312264.4997,-22.036368877724158,-18.39460503385067,-17.59449308384276,-29.68348068241936,21.51600000000326
312264.5007,-21.20576143608599,-18.485963252315457,-16.76458396623409,-28.70122723848086,21.51699999999255
312264.5017,-19.856442747987344,-18.092609805120624,-15.526249636218806,-27.0614342731841,21.518000000040047
312264.5027,-18.042820017596636,-17.252851871346845,-13.940108463947805,-24.826865236470283,21.519000000029337
312264.5037,-15.83875240182344,-16.02380832910913,-12.081618215285028,-22.082881963006006,21.520000000018626
312264.5047,-13.33102311531418,-14.475349449676726,-10.034412124268279,-18.930350909940223,21.521000000007916
312264.5057,-10.612293332083986,-12.683558015618901,-7.883332065912673,-15.477989126668184,21.521999999997206
312264.5067,-7.77421679035191,-10.724354902797169,-5.707826804075604,-11.834861433459878,21.523000000044703
312264.5077,-4.901350619309896,-8.667886973002917,-3.5763304890308962,-8.103693960915319,21.524000000033993
312264.5087,-2.0663931781599265,-6.574172429439889,-1.5421243056221248,-4.375559907435367,21.525000000023283
312264.5097,0.672874959440083,-4.490349861256239,0.35897589135444374,-0.7263329634960415,21.526000000012573
312264.5107,3.2747591264333336,-2.4496977156728277,2.108954681220065,2.784890968738777,21.527000000001863
312264.5117,5.712942793963173,-0.47239937063667936,3.706007435768044,6.11541249422495,21.527999999991152
312264.5127,7.974115464386381,1.4321552121421854,5.161274110954485,9.236799455331976,21.52900000003865
312264.5137,10.05431835494509,3.261898604099211,6.494312772372614,12.13139737753932,21.53000000002794
312264.5147,11.954517621097995,5.01792990312956,7.727853148892623,14.787999426171211,21.53100000001723
312264.5157,13.675986973860509,6.700221494822074,8.882438244784435,17.19727093179634,21.53200000000652
312264.5167,15.216091240459603,8.303741307335576,9.971567021157842,19.34753495735379,21.53299999999581
312264.5177,16.565009129311907,9.815489171827663,10.997893143391023,21.221472370144987,21.534000000043306
312264.5187,17.703822977375996,11.21283879753698,11.95091981260427,22.794178337303087,21.535000000032596
312264.5197,18.60424714022123,12.463428079227933,12.806470452724556,24.03285884059897,21.536000000021886
312264.5207,19.230081102806285,13.526665473816243,13.528025713783713,24.898262146574254,21.537000000011176
312264.5217,19.540277503530547,14.356737151994434,14.069817983951529,25.347740653621518,21.538000000000466
312264.5227,19.49332931098157,14.906827508684774,14.381385496998435,25.33964874790032,21.538999999989755
312264.5237,19.052523653674967,15.13412227908176,14.413128316354117,24.83862185508199,21.540000000037253
312264.5247,18.19149866972152,15.005063951065313,14.122294227393102,23.821167473519573,21.541000000026543
312264.5257,16.899486065201625,14.50028399490477,13.478765630424663,22.28094271908769,21.542000000015832
312264.5267,15.185631951133551,13.618650786145462,12.470024974485547,20.23310108957512,21.543000000005122
312264.5277,13.081861695005149,12.37994511847349,11.104745888077677,17.71716359608989,21.543999999994412
312264.5287,10.64388432257832,10.825800099809324,9.414583439617855,14.797999480511836,21.54500000004191
312264.5297,7.950106047113057,9.018706932455585,7.453907727886533,11.564676993725733,21.5460000000312
312264.5307,5.098423862782997,7.039076442041139,5.297423618287154,8.12714810258209,21.54700000002049
312264.5317,2.20107902427473,4.9805395879857475,3.035826420850878,4.610942555443848,21.54800000000978
312264.5327,-0.622054064547306,2.943849255161064,0.7698382426642629,1.150245543696956,21.54899999999907
312264.5337,-3.2512050922325404,1.0298923492140513,-1.3968666812085748,-2.1201005624360505,21.550000000046566
312264.5347,-5.5748190804562645,-0.667579387919913,-3.365223496692517,-5.073012992966262,21.551000000035856
312264.5357,-7.4973368725514735,-2.0688497846666785,-5.0481444324156515,-7.597290847705193,21.552000000025146
312264.5367,-8.945954422573456,-3.1141407277090636,-6.377020934026744,-9.604741615534843,21.553000000014435
312264.5377,-9.875751019447655,-3.767969739642702,-7.30676227046106,-11.035689407013106,21.554000000003725
312264.5387,-10.27271630084432,-4.021551671733288,-7.818904564542626,-11.862380975345861,21.554999999993015
312264.5397,-10.154391801649293,-3.8930107007905996,-7.922501714336379,-12.089991223855419,21.556000000040513
312264.5407,-9.568057285099698,-3.425370270027039,-7.652715767757867,-11.755144988962567,21.557000000029802
312264.5417,-8.586614769758413,-2.68249498407236,-7.06723911840372,-10.922095944969216,21.558000000019092
312264.5427,-7.302532633873362,-1.7433497702537788,-6.240883615942558,-9.676915028038364,21.559000000008382
312264.5437,-5.8203882679193875,-0.695099204160679,-5.258842655881831,-8.120219467218677,21.55999999999767
312264.5447,-4.2486734272577085,0.3743217007197129,-4.209254901310816,-6.359102092463587,21.56100000004517
312264.5457,-2.691589510176225,1.3834854743629905,-3.1757605423957185,-4.49898661642326,21.56200000003446
312264.5467,-1.2415542906603523,2.263935606545424,-2.2307368259336626,-2.636131644642312,21.56300000002375
312264.5477,0.02693233145683469,2.9652520336068546,-1.4298293623124139,-0.8514345255952024,21.56400000001304
312264.5487,1.0615511081949525,3.4582712893582412,-0.8082662589035188,0.7939472446801066,21.56500000000233
312264.5497,1.8342254608378343,3.736192814174724,-0.37926604290281807,2.260821526887585,21.565999999991618
312264.5507,2.340866902402447,3.8135074820951385,-0.13464479272432148,3.5319116271156474,21.567000000039116
312264.5517,2.5989110356071428,3.7228948053314004,-0.047512956845556065,4.609632087713244,21.568000000028405
312264.5527,2.6429621758693433,3.5104310547090747,-0.07674899764334485,5.512003141742762,21.569000000017695
312264.5537,2.519042900482653,3.229612615254862,-0.17276513097484067,6.267196317248178,21.570000000006985
312264.5547,2.2780731326112162,2.9348114462785517,-0.2839568493359741,6.907333310525301,21.570999999996275
312264.5557,1.9692693016042793,2.6748315053018805,-0.3631647098812637,7.462227294984635,21.572000000043772
312264.5567,1.6341513612431218,2.487221289085452,-0.3734802226407464,7.95375373940902,21.573000000033062
312264.5577,1.3017744182705195,2.3939195179049744,-0.29279724976882815,8.391466819322966,21.57400000002235
312264.5587,0.985669558467193,2.398676019301113,-0.11663928381704299,8.76994464939136,21.57500000001164
312264.5597,0.6827983098431848,2.48651121137346,0.14103136895911222,9.068164986318333,21.57600000000093
312264.5607,0.37461494175465543,2.6252727062216765,0.44911140399024346,9.251000724864294,21.57699999999022
312264.5617,0.030111339503395132,2.76913652377428,0.7626359630261642,9.272702481271486,21.57800000003772
312264.5627,-0.3894876723736718,2.8637039500398953,1.0277120156780537,9.08202588378464,21.57900000002701
312264.5637,-0.9248843545410053,2.8521825430625287,1.1876076366886281,8.62848476474573,21.580000000016298
312264.5647,-1.61235232827221,2.6820272641697294,1.1893776900306627,7.869085950873485,21.581000000005588
312264.5657,-2.4775541371106296,2.3113664160352676,0.9903460469756353,6.774839491859752,21.581999999994878
312264.5667,-3.5302120626067426,1.7145522593767992,0.5637713388549463,5.336346440384074,21.583000000042375
312264.5677,-4.760234485632595,0.8862566139482035,-0.09690302059544152,3.5678443077840525,21.584000000031665
312264.5687,-6.135761165446427,-0.15633021234206881,-0.9756801785332987,1.5092308187485624,21.585000000020955
312264.5697,-7.603404081762785,-1.3734564855295113,-2.0338075278157555,-0.7742238403182464,21.586000000010245
312264.5707,-9.090744152093961,-2.7049724679606846,-3.211815541673762,-3.1945457236906605,21.586999999999534
312264.5717,-10.510919390557502,-4.074535351425677,-4.433653362420746,-5.645946444169069,21.587999999988824
312264.5727,-11.7689290268214,-5.395490385204386,-5.612569931409012,-8.011555947531832,21.58900000003632
312264.5737,-12.76910161673958,-6.577896808613856,-6.658215299003875,-10.171438910217145,21.59000000002561
312264.5747,-13.423050810108665,-7.5360518474549885,-7.484312424343413,-12.011204337498404,21.5910000000149
312264.5757,-13.657382722246542,-8.195812826864913,-8.016187600528697,-13.430452355238918,21.59200000000419
312264.5767,-13.420430033495908,-8.501031766134272,-8.197453924701072,-14.35030824169465,21.59299999999348
312264.5777,-12.687369354679706,-8.418497449896826,-7.995216616464615,-14.719371123104027,21.594000000040978
312264.5787,-11.463222524315297,-7.94091923553829,-7.403304476421387,-14.5175462182295,21.595000000030268
312264.5797,-9.78343567740754,-7.0876713451682605,-6.443215407618484,-13.757421593949257,21.596000000019558
312264.5807,-7.711953654710148,-5.903228257913044,-5.162678026147014,-12.48307469545739,21.597000000008848
312264.5817,-5.336940086523547,-4.453440529019561,-3.6319553027173184,-10.766428915740283,21.597999999998137
312264.5827,-2.7645128342612244,-2.8200046933468608,-1.9382282669750723,-8.701503606397,21.599000000045635
312264.5837,-0.11104920939464234,-1.0936510245344706,-0.17857756454165066,-6.397090801113043,21.600000000034925
312264.5847,2.505252359943358,0.6333076968734718,1.5477892913062639,-3.9685303630386715,21.601000000024214
312264.5857,4.972800582303206,2.2743661796869588,3.1473493338387484,-1.529329127597349,21.602000000013504
312264.5867,7.194280649909132,3.755465898423165,4.539399537350839,0.816627969166465,21.603000000002794
312264.5877,9.092891946602096,5.02027162118451,5.6618710233835765,2.9815957207471846,21.603999999992084
312264.5887,10.61662136589442,6.033609723023373,6.475308135068743,4.898669646977739,21.60500000003958
312264.5897,11.740209757772451,6.782775117950222,6.964678515501342,6.524308697872879,21.60600000002887
312264.5907,12.464691101162735,7.276623848271394,7.138891664189965,7.838535408926427,21.60700000001816
312264.5917,12.814616328975704,7.542585930497556,7.028125422029467,8.842897982037544,21.60800000000745
312264.5927,12.833293779778758,7.621936705617284,6.679270818637858,9.556496617069472,21.60899999999674
312264.5937,12.576564698459034,7.563834770952707,6.149985175879647,10.01056211900378,21.610000000044238
312264.5947,12.105767037118307,7.418753977271962,5.501973871783769,10.242210293404531,21.611000000033528
312264.5957,11.480611046298066,7.2319942793206895,4.794190107396835,10.288067829130622,21.612000000022817
312264.5967,10.752689136278107,7.037945817734323,4.076642796408067,10.178467408131018,21.613000000012107
312264.5977,9.96027052633822,6.855703489019683,3.385435398381162,9.932841741257038,21.614000000001397
312264.5987,9.124895508076582,6.686492952880395,2.7395298880964494,9.556815063188441,21.614999999990687
312264.5997,8.250098164485596,6.513186848009565,2.13955284306951,9.04130949086604,21.616000000038184
312264.6007,7.322368448747163,6.30197974894704,1.5687523384377307,8.36377063064525,21.617000000027474
312264.6017,6.314236085186705,6.006072668976076,0.9959955032183899,7.4913931173442245,21.618000000016764
312264.6027,5.18914227470465,5.571014025773776,0.38048878582520934,6.3860146444887445,21.619000000006054
312264.6037,3.90758195552085,4.941173944962312,-0.3222733080194537,5.010167628942494,21.619999999995343
312264.6047,2.433867417992253,4.066709317593468,-1.1539525974138334,3.3336488688101737,21.62100000004284
312264.6057,0.7427964132882827,2.910319982585121,-2.146892128362783,1.3399023593075279,21.62200000003213
312264.6067,-1.1744887443847891,1.4531075462077052,-3.3184066617119403,-0.968484454252108,21.62300000002142
312264.6077,-3.3060904226237238,-0.30107317572160025,-4.666453417162231,-3.565795468389076,21.62400000001071
312264.6087,-5.616894786875022,-2.3232417017383074,-6.167166034905449,-6.401197951687541,21.625
312264.6097,-8.048374208860512,-4.559184917794654,-7.774554455704422,-9.399049946209567,21.62599999998929
312264.6107,-10.520746292538194,-6.931688077128886,-9.422462137152696,-12.461581528707471,21.627000000036787
312264.6117,-12.937352186405018,-9.344953904095528,-11.028650307336616,-15.473798517145905,21.628000000026077
312264.6127,-15.190898116811933,-11.690850713877289,-12.500668447682477,-18.310239428520383,21.629000000015367
312264.6137,-17.171018606506543,-13.85645452804224,-13.742991476422695,-20.843032095531825,21.630000000004657
312264.6147,-18.772485757516936,-15.732224497688868,-14.664774689887848,-22.95056339263706,21.630999999993946
312264.6157,-19.90331941561809,-17.22008766163777,-15.18751015515586,-24.526007108956833,21.632000000041444
312264.6167,-20.492054871374116,-18.24071426601334,-15.25186966359069,-25.48495800398239,21.633000000030734
312264.6177,-20.493497937637034,-18.739338046404338,-14.823089607034909,-25.771494453718233,21.634000000020023
312264.6187,-19.892434801253206,-18.6896099668985,-13.894385602478623,-25.36213089655838,21.635000000009313
312264.6197,-18.70495276213613,-18.095156004503043,-12.488066702336177,-24.267311342964263,21.635999999998603
312264.6207,-16.977249675599573,-16.988722144235627,-10.65423310854953,-22.53031838685305,21.6370000000461
312264.6217,-14.782043245821955,-15.42901239152705,-8.467166863552483,-20.223707115386862,21.63800000003539
312264.6227,-12.212913808573889,-13.495536977151955,-6.019740301971447,-17.4435975904929,21.63900000002468
312264.6237,-9.377104487372076,-11.281967834530377,-3.416351380515606,-14.302351746460625,21.64000000001397
312264.6247,-6.387442350792626,-8.888629775782627,-0.765030622267035,-10.920302308267065,21.64100000000326
312264.6257,-3.354120094876046,-6.414826231532188,1.830561704501946,-7.41727926977442,21.64199999999255
312264.6267,-0.3770826825630611,-3.9517015291929796,4.2785244411216645,-3.904686350696681,21.643000000040047
312264.6277,2.460302957485142,-1.5762775811232288,6.50483072511492,-0.4788153280180247,21.644000000029337
312264.6287,5.095747978308426,0.6528218370896278,8.457636643202502,2.7840432311271552,21.645000000018626
312264.6297,7.490346787242887,2.697618840790103,10.10942770332842,5.830315706045829,21.646000000007916
312264.6307,9.628539057394235,4.540864659380019,11.456857773428863,8.629526107794508,21.646999999997206
312264.6317,11.515809241875926,6.18403653881084,12.518358010073726,11.172408931569876,21.648000000044703
312264.6327,13.174423495875212,7.6435312251946455,13.329807066839502,13.467040982042697,21.649000000033993
312264.6337,14.63769211896897,8.945512560143882,13.938737767381628,15.533468100544335,21.650000000023283
312264.6347,15.943384558126292,10.119998316030593,14.397691643277932,17.39744311372397,21.651000000012573
312264.6357,17.127000272711804,11.194839661644716,14.757408157968149,19.083969534710747,21.652000000001863
312264.6367,18.215605129885127,12.190249133658405,15.060542926583404,20.611354257755057,21.652999999991152
312264.6377,19.222879107218915,13.11446974021413,15.33654832766345,21.98641120295987,21.65400000003865
312264.6387,20.14589345490844,13.961055356790093,15.598226826534171,23.201332961976203,21.65500000002794
312264.6397,20.963956882545,14.708063235007678,15.84029442132228,24.232571571363064,21.65600000001723
312264.6407,21.63965854003771,15.319260183572133,16.040086083230168,25.04186018447998,21.65700000000652
312264.6417,22.122011550230216,15.747234683328253,16.1603172703132,25.579285461104334,21.65799999999581
312264.6427,22.35138678309964,15.938108724471347,16.153607093491704,25.788107977992922,21.659000000043306
312264.6437,22.265743587414203,15.837375276414416,15.968290095576567,25.610845940717372,21.660000000032596
312264.6447,21.80753037154958,15.396266754825483,15.5549124794307,24.99600395778608,21.661000000021886
312264.6457,20.9305564380153,14.577998680313447,14.87273789061789,23.904756814792204,21.662000000011176
312264.6467,19.606134349084595,13.363237092876298,13.895584449093883,22.31689513877301,21.663000000000466
312264.6477,17.827859505745675,11.754207869303402,12.616378910890251,20.235405847266282,21.663999999989755
312264.6487,15.614523869407467,9.776994102865164,11.049939234005606,17.68918878651124,21.665000000037253
312264.6497,13.010840960529125,7.4817415731217904,9.233671002931924,14.733589264944067,21.666000000026543
312264.6507,10.085871627562822,4.940694939199748,7.226068914656132,11.448636662785797,21.667000000015832
312264.6517,6.92926363356794,2.2441986573327206,5.1031315295117405,7.935101168334558,21.668000000005122
312264.6527,3.6456308117663747,-0.5050041049787553,2.953004333544613,4.308692075860415,21.668999999994412
312264.6537,0.3475784422814059,-3.198673790488341,0.8693424513204779,0.6929011579732468,21.67000000004191
312264.6547,-2.8519871933498937,-5.730558081426781,-1.0559872828171712,-2.7888743081532725,21.6710000000312
312264.6557,-5.8475582966763895,-8.003777884923224,-2.740177385704694,-6.021225070274535,21.67200000002049
312264.6567,-8.548027645731857,-9.937443714887223,-4.116035854111057,-8.903935560225108,21.67300000000978
312264.6577,-10.882356268086141,-11.471902891852848,-5.137206050448503,-11.357865136411723,21.67399999999907
312264.6587,-12.803401167944065,-12.572148683657584,-5.781556544763716,-13.32899793382145,21.675000000046566
312264.6597,-14.289578124117892,-13.229098715215745,-6.052422864219154,-14.79033270212295,21.676000000035856
312264.6607,-15.34424627175832,-13.458654386013812,-5.977589854095402,-15.741493454745536,21.677000000025146
312264.6617,-15.992923096802452,-13.298665573630965,-5.606120840666437,-16.206161542556902,21.678000000014435
312264.6627,-16.27864869795584,-12.804124698706635,-5.003346706094851,-16.227638186024386,21.679000000003725
312264.6637,-16.255995985628946,-12.041081672575492,-4.244504098580899,-15.86302299973608,21.679999999993015
312264.6647,-15.98435140426524,-11.079889932529756,-3.4076401122088242,-15.176621274323574,21.681000000040513
312264.6657,-15.5211562554444,-9.988452098014863,-2.566468413283453,-14.233258308704784,21.682000000029802
312264.6667,-14.915795424200843,-8.82612612167018,-1.7838624410973294,-13.092176614271864,21.683000000019092
312264.6677,-14.204748736602927,-7.638880045031603,-1.1066050244961407,-11.802121800542727,21.684000000008382
312264.6687,-13.408487519896232,-6.456152908475482,-0.5618871457113448,-10.398092558274962,21.68499999999767
312264.6697,-12.530418443288534,-5.289704017447507,-0.15587416675292348,-8.900052525773482,21.68600000004517
312264.6707,-11.557966346927142,-4.134530052856888,0.1255472048071052,-7.313694780493503,21.68700000003446
312264.6717,-10.465668413598207,-2.971719541713762,0.3139434345065715,-5.633133975895947,21.68800000002375
312264.6727,-9.219945469116507,-1.7729177846532658,0.45373719418579944,-3.84519833643463,21.68900000001304
312264.6737,-7.78504290710312,-0.5059119269193059,0.596319972111164,-1.934824148589986,21.69000000000233
312264.6747,-6.129510926709912,0.8592683550319448,0.7934815440844426,0.10906392381466891,21.690999999991618
312264.6757,-4.232533674832476,2.344392774785384,1.0908296713333119,2.287860348995549,21.692000000039116
312264.6767,-2.089425549418365,3.9578610166168144,1.5218729138111373,4.588436445952663,21.693000000028405
312264.6777,0.2843103650367956,5.690891134829121,2.103372525877856,6.979732026188452,21.694000000017695
312264.6787,2.850829398065121,7.515500844456399,2.8324426664782028,9.411226095760297,21.695000000006985
312264.6797,5.549980956526542,9.384538656526619,3.6857041016914187,11.81354671030423,21.695999999996275
312264.6807,8.301601871429726,11.23381716127733,4.620592332375547,14.101266621216192,21.697000000043772
312264.6817,11.009914284283898,12.986189708738499,5.578706725805236,16.17771040242087,21.698000000033062
312264.6827,13.56966605668726,14.557215055670008,6.490883834633277,17.941392032155505,21.69900000002235
312264.6837,15.873476681793802,15.861891636850439,7.283505636678776,19.293529840859424,21.70000000001164
312264.6847,17.819727739987766,16.821830094301138,7.885428876015438,20.14596543769663,21.70100000000093
312264.6857,19.32027632485581,17.372180822681013,8.234857285805427,20.428756829782568,21.70199999999022
312264.6867,20.3072786752924,17.467647868550625,8.285480589627648,20.096729417815588,21.70300000003772
312264.6877,20.73848884754634,17.087000382885776,8.011272660049897,19.134351098440952,21.70400000002701
312264.6887,20.60053632205314,16.235630428232554,7.40946941215088,17.558441839961535,21.705000000016298
312264.6897,19.90987365670462,14.945888101724213,6.501422429466735,15.41842035141439,21.706000000005588
312264.6907,18.711302667664274,13.275134106980515,5.331229838598778,12.794012668697215,21.706999999994878
312264.6917,17.074214185330806,11.301665884410713,3.962261492466837,9.790578520919471,21.708000000042375
312264.6927,15.086890320521547,9.11887528341891,2.471900026781763,6.5324291881518946,21.709000000031665
312264.6937,12.849398712020296,6.828163955131055,0.9449928246790293,3.1546944046153405,21.710000000020955
312264.6947,10.465737952698884,4.531260818257809,-0.5333646101132373,-0.20557188813470384,21.711000000010245
312264.6957,8.035959762909092,2.322642586072939,-1.8850281970137415,-3.4182891326818567,21.711999999999534
312264.6967,5.648990090539867,0.2827478700502246,-3.045303581391718,-6.368496035062552,21.712999999988824
312264.6977,3.3767985274087953,-1.5274012783855961,-3.968127132597282,-8.963062882591037,21.71400000003632
312264.6987,1.270430338495012,-3.069692023919629,-4.6294416282003406,-11.13542506282786,21.71500000002561
312264.6997,-0.6417688482755628,-4.330230532851321,-5.028454157855321,-12.847979425699112,21.7160000000149
312264.7007,-2.353621124942423,-5.318381422048174,-5.186669698612674,-14.092004328801556,21.71700000000419
312264.7017,-3.878388346684801,-6.063667068252544,-5.144810028570597,-14.885194698321587,21.71799999999348
312264.7027,-5.244173392401942,-6.610861657841659,-4.957933070245035,-15.267123157372199,21.719000000040978
312264.7037,-6.487957461040988,-7.013786764829218,-4.689242350808709,-15.293126240741554,21.720000000030268
312264.7047,-7.648911609706353,-7.328437744722524,-4.403202998297905,-15.027253062899563,21.721000000019558
312264.7057,-8.76168916518526,-7.606131468600095,-4.158647189414953,-14.53498950043957,21.722000000008848
312264.7067,-9.850404437406873,-7.887359969546648,-4.002551723477151,-13.87647704218747,21.722999999998137
312264.7077,-10.923932439023769,-8.196962014907164,-3.9651034200931723,-13.100881750529902,21.724000000045635
312264.7087,-11.97303094706445,-8.541092493541136,-4.056540832858993,-12.242441827793687,21.725000000034925
312264.7097,-12.969603216729848,-8.90629064149935,-4.266085720752415,-11.318544773580111,21.726000000024214
312264.7107,-13.868204815051364,-9.260739894254128,-4.563071879716612,-10.329974622334328,21.727000000013504
312264.7117,-14.609672352251636,-9.557594791036076,-4.900162382900891,-9.2632470163804,21.728000000002794
312264.7127,-15.12653741398507,-9.740045021048559,-5.21834014805838,-8.09473681516421,21.728999999992084
312264.7137,-15.349706749862424,-9.74761340736482,-5.453181190463539,-6.796120516730489,21.73000000003958
312264.7147,-15.215757665500782,-9.523060302787162,-5.541792116908692,-5.340521912778011,21.73100000002887
312264.7157,-14.67412865897394,-9.019203717911724,-5.429725919267365,-3.708677288904006,21.73200000001816
312264.7167,-13.693486566083191,-8.204968778579719,-5.0771896121145295,-1.8944332307799308,21.73300000000745
312264.7177,-12.266622937796992,-7.070051526770623,-4.463923872780322,0.09104394948195194,21.73399999999674
312264.7187,-10.413367326066716,-5.627713803270555,-3.5922621717376915,2.216839464586651,21.735000000044238
312264.7197,-8.181190657069772,-3.915405258571499,-2.4880525738452617,4.4319555209292405,21.736000000033528
312264.7207,-5.643390029233552,-1.993118043112243,-1.1993323532633606,6.667173345194356,21.737000000022817
312264.7217,-2.8949759802868997,0.060400935230016,0.20713637159875906,8.838991335057345,21.738000000012107
312264.7227,-0.04660225921617058,2.1532474880206838,1.6511538855654142,10.855306614177586,21.739000000001397
312264.7237,2.7829348337427384,4.187258641384784,3.045699488037557,12.622326556995006,21.739999999990687
312264.7247,5.474963571885478,6.065576397485044,4.3042543327718255,14.052065731676606,21.741000000038184
312264.7257,7.919232936213532,7.700175380828102,5.348138218650591,15.069715373419292,21.742000000027474
312264.7267,10.0214973562357,9.0186551989476,6.113166150122328,15.620173974812221,21.743000000016764
312264.7277,11.70971750626702,9.969668206133672,6.554996010482143,15.673099033589772,21.744000000006054
312264.7287,12.938336621399158,10.526484058721211,6.652665239595373,15.225974706703319,21.744999999995343
312264.7297,13.690275096152028,10.688371232679902,6.4099896062729975,14.304875115207736,21.74600000004284
312264.7307,13.976502847714071,10.479685079474315,5.854703882415183,12.962820381445084,21.74700000003213
312264.7317,13.833277968383177,9.946771577380884,5.035442249896783,11.275850994707145,21.74800000002142
312264.7327,13.317359296893716,9.153004265952015,4.016864292519779,9.337163491107198,21.74900000001071
312264.7337,12.499688460250393,8.1724486287197,2.8734101262613647,7.249835448961422,21.75
312264.7347,11.458175526722828,7.0827762278325865,1.682298267650619,5.118802338337899,21.75099999998929
312264.7357,10.270298386549003,5.958117809258254,0.5164495823025974,3.0428196442337154,21.752000000036787
312264.7367,9.006232222374603,4.862544014559097,-0.5619766333736395,1.107143950794277,21.753000000026077
312264.7377,7.7231616785805395,3.8447945095367646,-1.5068128504578087,-0.6224037218064358,21.754000000015367
312264.7387,6.461301181488703,2.934748118779856,-2.291383396594278,-2.103463237587449,21.755000000004657
312264.7397,5.2419710958330255,2.1419506955034464,-2.909951575192081,-3.318905147167032,21.755999999993946
312264.7407,4.067866753470177,1.4563113616348091,-3.376995679739096,-4.276218388899437,21.757000000041444
312264.7417,2.925434765432159,0.8508617564056585,-3.724411510181988,-5.0046183604110706,21.758000000030734
312264.7427,1.789058455785305,0.2862682922133682,-3.9969445133079726,-5.550196044430816,21.759000000020023
312264.7437,0.6265727164537579,-0.2833857685002618,-4.246329739210581,-5.969615026371274,21.760000000009313
312264.7447,-0.5945040499902188,-0.9041563677394805,-4.524745224675498,-6.322999285565447,21.760999999998603
312264.7457,-1.900703943383814,-1.6158049650175559,-4.87825167528245,-6.666727453251493,21.7620000000461
312264.7467,-3.3069944860985108,-2.4460446244476315,-5.340891841015635,-7.046851886021046,21.76300000003539
312264.7477,-4.812432423847872,-3.4060663712088832,-5.930056754472656,-7.493793349228599,21.76400000002468
312264.7487,-6.397575236508354,-4.487817786175534,-6.643599582637943,-8.018831147513804,21.76500000001397
312264.7497,-8.023960727026802,-5.6633305108749985,-7.459003708620702,-8.61272716871831,21.76600000000326
312264.7507,-9.63575498932104,-6.886188579594654,-8.33470697627805,-9.246608414205756,21.76699999999255
312264.7517,-11.163448209261938,-8.095015462568602,-9.213468969313524,-9.875007207463078,21.768000000040047
312264.7527,-12.529268017410304,-9.218655462025506,-10.027463949909151,-10.440743519777973,21.769000000029337
312264.7537,-13.653802290733903,-10.182554540927594,-10.704608783093942,-10.88115075995169,21.770000000018626
312264.7547,-14.463195062085692,-10.915723546110288,-11.175509918225782,-11.135012840274884,21.771000000007916
312264.7557,-14.896213339749577,-11.357605112924402,-11.380348669424496,-11.149509366987493,21.771999999997206
312264.7567,-14.910485835580229,-11.464170373447242,-11.275026082624542,-10.886464276207377,21.773000000044703
312264.7577,-14.487286734887189,-11.212642479740365,-10.835957482509798,-10.327261201419503,21.774000000033993
312264.7587,-13.63437182375204,-10.604373972526444,-10.063035685928137,-9.475919564778382,21.775000000023283
312264.7597,-12.3865575267271,-9.665581463825765,-8.98045827334141,-8.360005942670591,21.776000000012573
312264.7607,-10.803947876108307,-8.44584671434246,-7.635320977855099,-7.029267908116639,21.777000000001863
312264.7617,-8.967939225047784,-7.014507885574923,-6.0940959516693916,-5.552101415078415,21.777999999991152
312264.7627,-6.9753456869783035,-5.455267573232588,-4.437319172965872,-4.010175901008399,21.77900000003865
312264.7637,-4.931169004643255,-3.859515403658499,-2.7529854161767977,-2.491722755249137,21.78000000002794
312264.7647,-2.9406671517494742,-2.3189858353796895,-1.1292749389501273,-1.0841248596884507,21.78100000001723
312264.7657,-1.101443666310162,-0.9184344338925423,0.35269900954385847,0.13348536532542848,21.78200000000652
312264.7667,0.5037221331498933,0.2709877357642158,1.6254349814131068,1.0969113894397484,21.78299999999581
312264.7677,1.812655135974522,1.1970513563395175,2.640262770863287,1.7622220401676973,21.784000000043306
312264.7687,2.787659416952664,1.82997578228886,3.37074932458996,2.1092165956543694,21.785000000032596
312264.7697,3.4171561109545983,2.1638581846361276,3.813980012588235,2.1426976984958856,21.786000000021886
312264.7707,3.714966785326113,2.2159010504557166,3.989611487396629,1.8914367967162145,21.787000000011176
312264.7717,3.717350241227124,2.0235468823416607,3.936809662439589,1.4049404239680008,21.788000000000466
312264.7727,3.4781146856000156,1.6398299661286022,3.709392318594547,0.7483384548800688,21.788999999989755
312264.7737,3.062309072568311,1.1274247879159112,3.369670312091111,-0.004103297865625076,21.790000000037253
312264.7747,2.539129447189572,0.5519925753149747,2.9816071959031794,-0.776211847643563,21.791000000026543
312264.7757,1.9747455589568663,-0.024510268444940187,2.6039819303488763,-1.4971731014578902,21.792000000015832
312264.7767,1.4257532127271677,-0.5499012799444539,2.284236870447544,-2.108130355436957,21.793000000005122
312264.7777,0.9338889450542881,-0.9866262160911788,2.053623605068901,-2.567478481634587,21.793999999994412
312264.7787,0.5225125777264245,-1.314932324382179,1.9241292986936642,-2.8543474202542853,21.79500000004191
312264.7797,0.19518301697390833,-1.5340660537764184,1.887488684011582,-2.9699483130651663,21.7960000000312
312264.7807,-0.06355884884677164,-1.6614006386386073,1.9163791806259107,-2.9366670304719364,21.79700000002049
312264.7817,-0.2853082790723141,-1.7296075055023656,1.967679149336014,-2.7950121808444828,21.79800000000978
312264.7827,-0.5131345321409301,-1.7821818814200898,1.9874633829684627,-2.598736110235027,21.79899999999907
312264.7837,-0.7956355585716121,-1.867797925102599,1.9172358138714725,-2.4086271497844676,21.800000000046566
312264.7847,-1.1803353830910646,-2.0340858915230378,1.7007742131669266,-2.2856018114805914,21.801000000035856
312264.7857,-1.7071163921660988,-2.3214817382518254,1.2908977158796586,-2.2837939824599234,21.802000000025146
312264.7867,-2.4023762264190913,-2.7577925046999696,0.6554716884479859,-2.444337736087882,21.803000000014435
312264.7877,-3.2745278190162095,-3.3540494689427933,-0.21796449073848534,-2.7904712314007574,21.804000000003725
312264.7887,-4.31132830795817,-4.102092566572587,-1.319429578684376,-3.324458123921901,21.804999999993015
312264.7897,-5.4793411245417944,-4.974156529921331,-2.615896015767751,-4.0266428494125845,21.806000000040513
312264.7907,-6.725623340327744,-5.924528744650948,-4.0529426249748735,-4.856744768171343,21.807000000029802
312264.7917,-7.981508189433123,-6.893140700510422,-5.558538533337693,-5.7572742469193265,21.808000000019092
312264.7927,-9.168142410609548,-7.810759675978603,-7.048624128138989,-6.65874312284499,21.809000000008382
312264.7937,-10.203260367386012,-8.605284236813505,-8.433978302899096,-7.4861633557710805,21.80999999999767
312264.7947,-11.008549329078145,-9.208532402877356,-9.627733599246303,-8.166198616368835,21.81100000004517
312264.7957,-11.516895473905993,-9.562856382640856,-10.552834574790491,-8.634266814737677,21.81200000003446
312264.7967,-11.678804633245628,-9.62692818590209,-11.148736335167621,-8.84089377605953,21.81300000002375
312264.7977,-11.467365300496137,-9.380115405328626,-11.376709587077267,-8.756689294489234,21.81400000001304
312264.7987,-10.881257006134197,-8.824998888414326,-11.223249147612393,-8.375449770273388,21.81500000000233
312264.7997,-9.94549177267337,-7.987761151906525,-10.701261999750153,-7.715073603182836,21.815999999991618
312264.8007,-8.70979216785292,-6.9163790723063805,-9.848921417192381,-6.816188701564414,21.817000000039116
312264.8017,-7.24473556052362,-5.676766738812255,-8.726295059626702,-5.738615007716251,21.818000000028405
312264.8027,-5.636008603986257,-4.347213700951116,-7.410065863422328,-4.555996925647451,21.819000000017695
312264.8037,-3.97729787796769,-3.011630719309519,-5.986844637583456,-3.3491201515852764,21.820000000006985
312264.8047,-2.3624742956721505,-1.7522331851412747,-4.5457051297263975,-2.1985569732166117,21.820999999996275
312264.8057,-0.8777974687988482,-0.6423499764192881,-3.1706432474044757,-1.17735081846033,21.822000000043772
312264.8067,0.4051350189020826,0.25996311767905994,-1.9336653249071958,-0.34444803615093517,21.823000000033062
312264.8077,1.435039508736637,0.9169004970872936,-0.8891456171734674,0.2604872779288722,21.82400000002235
312264.8087,2.1846794049572873,1.3140022575851162,-0.06996698610051348,0.620374188041751,21.82500000001164
312264.8097,2.652343621992992,1.4610746042308205,0.5142165963988138,0.7418142663150098,21.82600000000093
312264.8107,2.8609505905213233,1.3908489110001419,0.8764644173372648,0.6538874041176415,21.82699999999022
312264.8117,2.854885471526457,1.1555090073540222,1.049867990921545,0.4047677421670416,21.82800000003772
312264.8127,2.694894783943982,0.8214198324915651,1.0830017539588077,0.05649720102609956,21.82900000002701
312264.8137,2.451547354827153,0.46256216072622747,1.0339819848721568,-0.32156489635681623,21.830000000016298
312264.8147,2.1979054424832567,0.15330103833284042,0.9637423477389067,-0.6599672588897043,21.831000000005588
312264.8157,2.0021220034222087,-0.0388220349003622,0.9292061360983944,-0.8963514593801818,21.831999999994878
312264.8167,1.9206824390936974,-0.05958734008930898,0.9770398747502127,-0.9818839421304154,21.833000000042375
312264.8177,1.9929416375534443,0.12672989550623193,1.138610149887476,-0.8862964801903688,21.834000000031665
312264.8187,2.2374764052365603,0.5339972325510035,1.4266416973078835,-0.6010328533871077,21.835000000020955
312264.8197,2.6505923176964674,1.1529831557557415,1.8339021813889416,-0.14018576014276557,21.836000000010245
312264.8207,3.2071103702886705,1.9523392852405435,2.334034810796546,0.4608742041418933,21.836999999999534
312264.8217,3.863333523225916,2.8816950448247702,2.8844441243353955,1.1490475809099432,21.837999999988824
312264.8227,4.561878386176611,3.8765493722540763,3.430934226612689,1.8588871869706374,21.83900000003632
312264.8237,5.237873927875675,4.8644715829981635,3.9136227780580892,2.5192828095267945,21.84000000002561
312264.8247,5.825895196256971,5.771999112756372,4.27352551066728,3.060789646489407,21.8410000000149
312264.8257,6.266928723521791,6.531555624132496,4.459137653675718,3.422873841779033,21.84200000000419
312264.8267,6.514664568692134,7.087715046196289,4.432337209293155,3.560352820174536,21.84299999999348
312264.8277,6.540477999031708,7.402205208619629,4.173000737201315,3.4483834899915493,21.844000000040978
312264.8287,6.336594969347975,7.457172061320704,3.6818488022906704,3.085490615108394,21.845000000030268
312264.8297,5.917116963700585,7.256399463856697,2.9812131413032597,2.494317348828612,21.846000000019558
312264.8307,5.316794608649636,6.8243830447312686,2.1136237575812467,1.7200016838969883,21.847000000008848
312264.8317,4.5876647308211265,6.203369636392736,1.1383312990984855,0.8263148304792929,21.847999999998137
312264.8327,3.7938800361896603,5.448675324698699,0.12608682775454344,-0.11008237433111255,21.849000000045635
312264.8337,3.005243168078574,4.622765375168331,-0.8473229690055537,-1.0067225313502848,21.850000000034925
312264.8347,2.2900894766177418,3.7887014474935783,-1.7081593832265605,-1.783077338447366,21.851000000024214
312264.8357,1.7082321897248094,3.003623538804644,-2.391741683444185,-2.3682198605262657,21.852000000013504
312264.8367,1.304682768867534,2.312929864787808,-2.8486922031389703,-2.7076605526755535,21.853000000002794
312264.8377,1.104787888142667,1.745747769117957,-3.049794321349217,-2.7686894608199677,21.853999999992084
312264.8387,1.1112894221221614,1.3121596017715753,-2.9889717193532404,-2.5436973657197552,21.85500000003958
312264.8397,1.3036280546654988,1.002471997185244,-2.6840768248359264,-2.0511405987826112,21.85600000002887
312264.8407,1.6395926157746512,0.7886123622185285,-2.175387461855788,-1.3340393632392789,21.85700000001816
312264.8417,2.0591872554271267,0.627522787325386,-1.5219329097527663,-0.4561359167166948,21.85800000000745
312264.8427,2.490369492318519,0.4662200717873278,-0.7959821990830795,0.5039359497222536,21.85899999999674
312264.8437,2.856125446774876,0.248021003692523,-0.07620787712639554,1.4599268408521318,21.860000000044238
312264.8447,3.0822125016087516,-0.08068874853238797,0.5598300045285084,2.3260097334758143,21.861000000033528
312264.8457,3.1048276703444624,-0.5638237545195343,1.0431652322871698,3.0248219378223125,21.862000000022817
312264.8467,2.8774593304252467,-1.2297806450151803,1.3201567326762733,3.494750900697633,21.863000000012107
312264.8477,2.376251033232567,-2.0870339471367556,1.3578225910091157,3.695774475247587,21.864000000001397
312264.8487,1.6033422182560628,-3.1216143444888065,1.1472602876410767,3.613303089967953,21.864999999990687
312264.8497,0.5878389069315347,-4.296758160475258,0.7048174968907878,3.2596609059410726,21.866000000038184
312264.8507,-0.6157101624479507,-5.554807909623664,0.0708913452489098,2.673067265059588,21.867000000027474
312264.8517,-1.9312212950109482,-6.821225748020928,-0.693540295046464,1.914216886343364,21.868000000016764
312264.8527,-3.2670313956547377,-8.010375780273675,-1.5123358630451598,1.0607845169464425,21.869000000006054
312264.8537,-4.523371211117161,-9.032557499365803,-2.30105035116423,0.20037523177523284,21.869999999995343
312264.8547,-5.600682191538978,-9.801648094479306,-2.9745963965730597,-0.5774134477260715,21.87100000004284
312264.8557,-6.408022802965612,-10.242648146322688,-3.4549883034477107,-1.1890708008909212,21.87200000003213
312264.8567,-6.870801501507235,-10.298429573699153,-3.678444316986403,-1.564637952358417,21.87300000002142
312264.8577,-6.937137161831558,-9.935056270660034,-3.601185093589416,-1.65386684832765,21.87400000001071
312264.8587,-6.582277287756361,-9.145179820697468,-3.2033921587011793,-1.430510994598898,21.875
312264.8597,-5.810687216231017,-7.949192269535803,-2.49096693617611,-0.8943686198274123,21.87599999998929
312264.8607,-4.6556420322851215,-6.394027834185772,-1.4949414756857946,-0.07091692282692577,21.877000000036787
312264.8617,-3.1763859266714145,-4.54972534323527,-0.26861586526491216,0.991392110926433,21.878000000026077
312264.8627,-1.4531488051930754,-2.504071905442741,1.117287182153163,2.2258807766841016,21.879000000015367
312264.8637,0.41949448997214905,-0.3558256663938007,2.5809737457197452,3.553953406540696,21.880000000004657
312264.8647,2.3402895964353525,1.7928555156410027,4.036820046470681,4.892332972653617,21.880999999993946
312264.8657,4.209274580673748,3.8440843828140148,5.402808781949377,6.16051576836661,21.882000000041444
312264.8667,5.935324773874781,5.711317325953549,6.607454359103944,7.287722704750871,21.883000000030734
312264.8677,7.4425920563384,7.325199687417367,7.595568282426686,8.218685894410427,21.884000000020023
312264.8687,8.675280136625233,8.63767885128382,8.3323358397121,8.91773378721149,21.885000000009313
312264.8697,9.600369855172667,9.624054338397528,8.805345625781209,9.370814485600084,21.885999999998603
312264.8707,10.208116166277103,10.282838272645465,9.024417426302604,9.58530725664226,21.8870000000461
312264.8717,10.510360498050396,10.633514042039227,9.019291389922952,9.587695634552704,21.88800000003539
312264.8727,10.536916626662983,10.712484621783068,8.835450841074353,9.419389619230039,21.88900000002468
312264.8737,10.330473863176737,10.567674847905444,8.52853197966308,9.131168059033632,21.89000000001397
312264.8747,9.94060002650457,10.252377006180383,8.157908404854153,8.776847184797246,21.89100000000326
312264.8757,9.417504901241063,9.818994264340041,7.780113824536935,8.406854145839404,21.89199999999255
312264.8767,8.806235263542515,9.313335515250795,7.442775291597099,8.062388190987988,21.893000000040047
312264.8777,8.141914504836821,8.770048473968389,7.1796712456350935,7.770786633542124,21.894000000029337
312264.8787,7.4465196354493886,8.209652274192797,7.007409563751786,7.542584640216164,21.895000000018626
312264.8797,6.727518460169305,7.637459079274547,6.924052784756471,7.370580129420546,21.896000000007916
312264.8807,5.9784873969436365,7.044473682362173,6.909817533961362,7.231005543658386,21.896999999997206
312264.8817,5.1816163881898865,6.4101509059513795,6.929762950534194,7.086688038795485,21.898000000044703
312264.8827,4.3118034188993,5.706693869487894,6.9381797774835405,6.89187085794883,21.899000000033993
312264.8837,3.341868075540344,4.904411692418006,6.884217954402539,6.598192364550154,21.900000000023283
312264.8847,2.2482890307229075,3.9775395607452375,6.71816336202486,6.161193231440085,21.901000000012573
312264.8857,1.0168071369855451,2.9098690824337186,6.397706473463704,5.546659481862745,21.902000000001863
312264.8867,-0.3527593683224415,1.699548247227801,5.893543851229975,4.736116062191702,21.902999999991152
312264.8877,-1.8430683510342394,0.36248725062790665,5.193717920898628,3.7308620863168875,21.90400000003865
312264.8887,-3.4176231551953844,-1.066058420640958,4.306224908749086,2.5540776193943016,21.90500000002794
312264.8897,-5.021223629771731,-2.53197607858269,3.2595929646338884,1.2507194527779344,21.90600000001723
312264.8907,-6.582553267376386,-3.9648960235621877,2.101335283682655,-0.1148585440600805,21.90700000000652
312264.8917,-8.018736760774818,-5.282730361401361,0.8943964181502734,-1.4633976359914755,21.90799999999581
312264.8927,-9.241495305178645,-6.397776930957163,-0.28808721524871644,-2.7069621459839617,21.909000000043306
312264.8937,-10.164354022964073,-7.223849052084462,-1.3692195177724629,-3.7563467432730113,21.910000000032596
312264.8947,-10.71023456561605,-7.683776944668697,-2.275352209076838,-4.528979695086972,21.911000000021886
312264.8957,-10.818708858636043,-7.716574444639595,-2.94298633253642,-4.956576951716725,21.912000000011176
312264.8967,-10.45220343698633,-7.28358068697819,-3.3248893745591714,-4.991812081011024,21.913000000000466
312264.8977,-9.600527293000738,-6.372969716990018,-3.3948193749209956,-4.613348645306475,21.913999999989755
312264.8987,-8.283242158318972,-5.002163932854335,-3.150377430008214,-3.8287272018986074,21.915000000037253
312264.8997,-6.549589015398702,-3.2178764084798663,-2.613687752315898,-2.6747950176825843,21.916000000026543
312264.9007,-4.475909862713368,-1.093724499837393,-1.8298127170672098,-1.2155941785589268,21.917000000015832
312264.9017,-2.1607377481805425,1.2744180990946317,-0.8630288428177103,0.4621387420413335,21.918000000005122
312264.9027,0.2820517262715704,3.7749530921232095,0.20870288726763145,2.2554837301714494,21.918999999994412
312264.9037,2.731449174064321,6.288419185954727,1.300562821996811,4.053291357962298,21.92000000004191
312264.9047,5.06817031692686,8.69600487196003,2.3283574563660028,5.744874927632776,21.9210000000312
312264.9057,7.183389055850907,10.887972336030295,3.215959725799913,7.228664885574003,21.92200000002049
312264.9067,8.986575677499333,12.771260416718746,3.9020025378612972,8.42005170559258,21.92300000000978
312264.9077,10.411750357890252,14.275611055834217,4.345192353284991,9.257718375635045,21.92399999999907
312264.9087,11.421606270200995,15.357701398478568,4.52773987713413,9.707904288370987,21.925000000046566
312264.9097,12.00915207418388,16.002949362799296,4.456583843138047,9.766235260379633,21.926000000035856
312264.9107,12.196751808095671,16.224876297216642,4.162294208762621,9.45698111336504,21.927000000025146
312264.9117,12.032679523998118,16.06213561585762,3.6957625033459034,8.829841063851019,21.928000000014435
312264.9127,11.585533661045318,15.573529556148236,3.122998181601667,7.954585300780985,21.929000000003725
312264.9137,10.937050544476127,14.83151718472999,2.518530224889359,6.9140768966041595,21.929999999993015
312264.9147,10.173999163923881,13.914848434511706,1.9580454831367011,5.796343096017876,21.931000000040513
312264.9157,9.379917147871135,12.90102906473372,1.510966620383688,4.686445515565012,21.932000000029802
312264.9167,8.627453504037769,11.859323769507133,1.2336761915782846,3.658907570383862,21.933000000019092
312264.9177,7.972017066652878,10.844939560885798,1.1640290880121176,2.7713941494946237,21.934000000008382
312264.9187,7.447297441801352,9.89490587011015,1.3176696884296673,2.060209747801344,21.93499999999767
312264.9197,7.063040591302658,9.025994208723315,1.6864948577703178,1.5379997613377265,21.93600000004517
312264.9207,6.805242046511531,8.234815930977136,2.239396526779253,1.1938232976278478,21.93700000003446
312264.9217,6.638688326755891,7.500021725004767,2.9251981416131763,0.9955357429449045,21.93800000002375
312264.9227,6.511553849611984,6.786321914175217,3.6774890992791267,0.8941977695817758,21.93900000001304
312264.9237,6.36156785542029,6.04987230324129,4.420880738557051,0.830035811621845,21.94000000000233
312264.9247,6.123121950721,5.244442909918072,5.078073959668011,0.7393356204848209,21.940999999991618
312264.9257,5.734607297294181,4.327718536716759,5.5770548929232815,0.5615688787037926,21.942000000039116
312264.9267,5.145258607883091,3.2670769615751767,5.857728149751969,0.2460404640157296,21.943000000028405
312264.9277,4.320840519331906,2.0442523271268347,5.877357454760499,-0.24259851154203022,21.944000000017695
312264.9287,3.247634326491146,0.6584114739756463,5.614304698024568,-0.9205054708817978,21.945000000006985
312264.9297,1.9343570083933983,-0.87266282566551,5.069728539829999,-1.782829850297654,21.945999999996275
312264.9307,0.4118525408519673,-2.5133923132935627,4.2671057749086,-2.8040794647905676,21.947000000043772
312264.9317,-1.2693829869456774,-4.2131328295792585,3.249652763199358,-3.940603792054602,21.948000000033062
312264.9327,-3.0435678049299644,-5.91052419989948,2.0759292790484345,-5.134916492008737,21.94900000002235
312264.9337,-4.8354339736881276,-7.539007420294809,0.8140829874302642,-6.321397133089087,21.95000000001164
312264.9347,-6.56686491081096,-9.032938404299776,-0.46467778536626614,-7.432777081276484,21.95100000000093
312264.9357,-8.16369968565479,-10.333667862226168,-1.6927248556240304,-8.40674003920465,21.95199999999022
312264.9367,-9.56202422702684,-11.394961089257457,-2.8121017118226366,-9.191960971371028,21.95300000003772
312264.9377,-10.713329001543872,-12.18719901822676,-3.779464191685272,-9.75296853907377,21.95400000002701
312264.9387,-11.588033864622185,-12.699926020403186,-4.569389702443259,-10.073339331827668,21.955000000016298
312264.9397,-12.177051264103417,-12.94247815414655,-5.175742868829995,-10.156904608959561,21.956000000005588
312264.9407,-12.491261522342953,-12.942621008858108,-5.610984609784658,-10.02685454335259,21.956999999994878
312264.9417,-12.558988118621269,-12.743329382559098,-5.903521475732755,-9.722840511083394,21.958000000042375
312264.9427,-12.421765199930935,-12.398031390532045,-6.093391655809022,-9.296381104274603,21.959000000031665
312264.9437,-12.128863442331257,-11.964798090327875,-6.226753444148678,-8.805051617644512,21.960000000020955
312264.9447,-11.731166402634896,-11.500070325014946,-6.349764193571466,-8.306062238901532,21.961000000010245
312264.9457,-11.275054971509038,-11.052565966271391,-6.502500624281851,-7.849894385802662,21.961999999999534
312264.9467,-10.796955851146782,-10.657997678604637,-6.713568437596377,-7.4746610308919506,21.962999999988824
312264.9477,-10.319141238306678,-10.335154732903677,-6.9959806902155615,-7.201785673310614,21.96400000003632
312264.9487,-9.847237913820102,-10.083769602950674,-7.3447570179555335,-7.03346285290637,21.96500000002561
312264.9497,-9.369727580104206,-9.884414024686654,-7.736522130712796,-6.952183822166447,21.9660000000149
312264.9507,-8.859514174746113,-9.700467168943286,-8.131179232801315,-6.922402036003318,21.96700000000419
312264.9517,-8.277418669046863,-9.481990499585347,-8.47552228696728,-6.894195328940255,21.96799999999348
312264.9527,-7.57725915802036,-9.171150364357684,-8.708451414082356,-6.808576795559984,21.969000000040978
312264.9537,-6.71200431224108,-8.70866964447959,-8.767288145196648,-6.603935013178567,21.970000000030268
312264.9547,-5.6403687345042925,-8.04067986424834,-8.594568551719616,-6.222963612922411,21.971000000019558
312264.9557,-4.333161761241294,-7.125296187320924,-8.144634530637196,-5.619382594755088,21.972000000008848
312264.9567,-2.7787129248763978,-5.938254907742387,-7.389352797361701,-4.763765259632244,21.972999999998137
312264.9577,-0.9867770165749407,-4.477035114217104,-6.322366933845333,-3.647864443884234,21.974000000045635
312264.9587,1.0095379160349252,-2.7630255362031346,-4.961423096107304,-2.286972378545636,21.975000000034925
312264.9597,3.1540886422593353,-0.8414809127839997,-3.348491772310757,-0.720036427689989,21.976000000024214
312264.9607,5.370313109606352,1.2207780394802885,-1.547618752956189,0.9925300471221512,21.977000000013504
312264.9617,7.565972478738494,3.3397510759453977,0.35934222339513316,2.7731775425398872,21.978000000002794
312264.9627,9.639635324764503,5.42036012044065,2.278756212679935,4.533316010989223,21.978999999992084
312264.9637,11.488344261244464,7.363728097777489,4.1124607990301945,6.180625172036641,21.98000000003958
312264.9647,13.015781094313052,9.07498034974717,5.765591006450599,7.626904600710862,21.98100000002887
312264.9657,14.14018698653656,10.470859544592793,7.154258422267068,8.795729228365666,21.98200000001816
312264.9667,14.801305218992836,11.486457797674447,8.212374881543711,9.629187047144905,21.98300000000745
312264.9677,14.965695364717977,12.080448819547037,8.896986424946743,10.093056803877113,21.98399999999674
312264.9687,14.62991161487135,12.23834084078495,9.19161963652873,10.179926770174278,21.985000000044238
312264.9697,13.82123113044413,11.973454686406415,9.107326948483056,9.909947675426627,21.986000000033528
312264.9707,12.595842332449314,11.32554311862168,8.681332441093334,9.329135213131499,21.987000000022817
312264.9717,11.03463666307386,10.357187136746722,7.973404460665107,8.50536880767034,21.988000000012107
312264.9727,9.23696824209236,9.148311250326767,7.060294429899572,7.52245125955691,21.989000000001397
312264.9737,7.312932877358486,7.789333029226887,6.028762039994946,6.472777410113824,21.989999999990687
312264.9747,5.374853159672158,6.37358587782146,4.967838188381394,5.449291306594779,21.991000000038184
312264.9757,3.5287269373984937,4.989716181962463,3.9610459397643067,4.537477755691882,21.992000000027474
312264.9767,1.8663956049138455,3.7147508984635595,3.0792998339449635,3.8081291545531863,21.993000000016764
312264.9777,0.45911651389950126,2.6084599903893233,2.37513509650207,3.3115525330826454,21.994000000006054
312264.9787,-0.6469125360258169,1.7095070179591596,1.878787445632564,3.0737421699788303,21.994999999995343
312264.9797,-1.4327161192701898,1.0337036053208506,1.5964639628590203,3.094853485103683,21.99600000004284
312264.9807,-1.9062509114636543,0.5744768562135981,1.5109334186812948,3.3500925649773348,21.99700000003213
312264.9817,-2.0997536756277406,0.30544332643975036,1.5843411041295539,3.7929041329286126,21.99800000002142
312264.9827,-2.06503981478187,0.18477993757341613,1.762940273806403,4.360121505097525,21.99900000001071
312264.9837,-1.8672536789909073,0.16091105081822493,1.983250373600729,4.978556345645579,22.0
312264.9847,-1.577710528610055,0.17890844471938855,2.1790188753291106,5.572371831804235,22.00099999998929
312264.9857,-1.266545440486039,0.18693897562139222,2.288291578190984,6.070513102196167,22.002000000036787
312264.9867,-0.9958895463631972,0.14209909765130538,2.2598924626075467,6.4134702244411,22.003000000026077
312264.9877,-0.8142287360635655,0.015045494679950346,2.0586787290453277,6.558721061697952,22.004000000015367
312264.9887,-0.7524711389021063,-0.20704031965778685,1.669062983102904,6.484337104468033,22.005000000004657
312264.9897,-0.8220703099492963,-0.5194413541820183,1.096470071274509,6.190421116933225,22.005999999993946
312264.9907,-1.0153390050756033,-0.9009339156845398,0.36660346923759723,5.698262988779637,22.007000000041444
312264.9917,-1.3078647987550656,-1.3167307727466664,-0.4773850741225016,5.047328051934434,22.008000000030734
312264.9927,-1.6627257381697482,-1.7230160687538854,-1.3795202644408042,4.290407889987803,22.009000000020023
312264.9937,-2.0360228071528983,-2.0725843289514896,-2.2769419628409397,3.4874461115249242,22.010000000009313
312264.9947,-2.383114111502802,-2.3209799532280146,-3.1065475555762405,2.6986827346825635,22.010999999998603
312264.9957,-2.6648663989193975,-2.4324783351431387,-3.811658631455972,1.97782783811795,22.0120000000461
312264.9967,-2.8532396089465992,-2.3852608511445883,-4.34803113569295,1.3659713799581303,22.01300000003539
312264.9977,-2.935589568042083,-2.17521252437744,-4.688594367823325,0.8868619336543364,22.01400000002468
312264.9987,-2.917205802426352,-1.8179058163783455,-4.826431485125878,0.5440498227022971,22.01500000001397
312264.9997,-2.821782655481514,-1.3485136123448564,-4.775689976073361,0.32020324973009595,22.01600000000326
312265.0007,-2.6897344875741833,-0.8196014409486965,-4.570317522324329,0.17868789345155822,22.01699999999255
312265.0017,-2.5744885912012636,-0.2969629527895992,-4.260736347239179,0.0672725621300345,22.018000000040047
312265.0027,-2.5371004009293543,0.14613744335626805,-3.908776068534482,-0.07639169740339276,22.019000000029337
312265.0037,-2.63971356424256,0.4357849266299106,-3.5813607977998836,-0.3180528872401425,22.020000000018626
312265.0047,-2.9385146080934086,0.504652238206039,-3.343573383270404,-0.7195629604919636,22.021000000007916
312265.0057,-3.4768953836238192,0.2989565700581902,-3.2517856618369216,-1.3317341468145443,22.021999999997206
312265.0067,-4.279529527722274,-0.21554893472542996,-3.347541762071863,-2.1880677571438554,22.023000000044703
312265.0077,-5.347992074920559,-1.0491521584062327,-3.6528119247455866,-3.299998827741498,22.024000000033993
312265.0087,-6.658411209796643,-2.185790013880789,-4.167103673100094,-4.654158662743948,22.025000000023283
312265.0097,-8.161451302052997,-3.582963456975457,-4.866738159105588,-6.211965991535102,22.026000000012573
312265.0107,-9.784705065958864,-5.174020673725351,-5.706389574303805,-7.91163454306694,22.027000000001863
312265.0117,-11.4373413290623,-6.872647157274452,-6.62276513117352,-9.672451934499593,22.027999999991152
312265.0127,-13.016635937722247,-8.579192679305514,-7.540093821255678,-11.400964466311272,22.02900000003865
312265.0137,-14.415828093702439,-10.18829029798779,-8.376914402631494,-12.998516110511591,22.03000000002794
312265.0147,-15.532611017627614,-11.597098394893948,-9.053524257994622,-14.369455799791293,22.03100000001723
312265.0157,-16.27749739763523,-12.71343528846255,-9.499383523349367,-15.42925816309031,22.03200000000652
312265.0167,-16.58130346082387,-13.463083182921698,-9.659769841054723,-16.111805886523122,22.03299999999581
312265.0177,-16.401070612315046,-13.795613414427073,-9.501048214078958,-16.37515671873615,22.034000000043306
312265.0187,-15.723883392119811,-13.688220937132694,-9.01405105906811,-16.205257649721364,22.035000000032596
312265.0197,-14.568233713948269,-13.147239694093146,-8.215243010005842,-15.617259584447668,22.036000000021886
312265.0207,-12.982805715452336,-12.207224314419268,-7.145555895608396,-14.654309574445751,22.037000000011176
312265.0217,-11.042791617962061,-10.927706989458088,-5.867001138339418,-13.383932868113995,22.038000000000466
312265.0227,-8.844074212930236,-9.387950067560277,-4.457378091097185,-11.892341129703572,22.038999999989755
312265.0237,-6.495804496821817,-7.680194742934808,-3.0035770850351162,-10.277194713074012,22.040000000037253
312265.0247,-4.112045270485725,-5.902037235974063,-1.5941078062943705,-8.639487611352456,22.041000000026543
312265.0257,-1.8032298459194387,-4.148633906431416,-0.31155439481414593,-7.075300347122038,22.042000000015832
312265.0267,0.3318077733244664,-2.5054396052617762,0.774338317128725,-5.668171560980247,22.043000000005122
312265.0277,2.212538994691682,-1.0421195926894615,1.6123078030394793,-4.482773236784146,22.043999999994412
312265.0287,3.7816195990377377,0.19184866022863337,2.1734325274828414,-3.560444095488115,22.04500000004191
312265.0297,5.007558791499364,1.1695389251208912,2.4528676337020627,-2.9169536328193844,22.0460000000312
312265.0307,5.8850102471537555,1.8867618627671632,2.469325399871411,-2.542653437486742,22.04700000002049
312265.0317,6.432744771503569,2.3601420223611544,2.26238604426021,-2.404943851950077,22.04800000000978
312265.0327,6.68958282896914,2.6233572238692826,1.8879323803337509,-2.452764892689506,22.04899999999907
312265.0337,6.708753661460724,2.7219832842160665,1.4121796443102665,-2.622631757375582,22.050000000046566
312265.0347,6.55128802228881,2.7075125480440723,0.9049023579010975,-2.8455952471936685,22.051000000035856
312265.0357,6.2791305087581115,2.631181959286189,0.4325308615416871,-3.054429223739872,22.052000000025146
312265.0367,5.948667994237958,2.5382494912526767,0.05179457421854076,-3.1903378993933975,22.053000000014435
312265.0377,5.605312388055654,2.4632970453798344,-0.19547295248828672,-3.2085356563431744,22.054000000003725
312265.0387,5.2796552868064435,2.427020131905812,-0.28587406403289234,-3.082174757307929,22.054999999993015
312265.0397,4.985541508821079,2.4348020553840137,-0.2160085891300226,-2.8042691903771084,22.056000000040513
312265.0407,4.720205344934536,2.477179590713369,-0.0019337634223628264,-2.387468562564988,22.057000000029802
312265.0417,4.466398047477383,2.532107581624981,0.32338959803510736,-1.8617538735455443,22.058000000019092
312265.0427,4.196229143021387,2.568741614970575,0.7143756990712494,-1.2703355171437727,22.059000000008382
312265.0437,3.8762680927073956,2.55229978571541,1.1183569702871625,-0.6642123648359551,22.05999999999767
312265.0447,3.473324095358149,2.449452349358776,1.4818072598459706,-0.09598173755951116,22.06100000004517
312265.0457,2.9602531395366545,2.2336329083887487,1.7565948133230738,0.3864392919512295,22.06200000003446
312265.0467,2.3211394750651735,1.8896721259722637,1.9056145321535443,0.7455172367078158,22.06300000002375
312265.0477,1.5552635623936093,1.4172239908692466,1.907213840453812,0.9586296587910826,22.06400000001304
312265.0487,0.6793936976655298,0.8325784107733948,1.7579499637548373,1.0209402495886415,22.06500000000233
312265.0497,-0.27188865783870053,0.16861997130748818,1.4733862228036056,0.9463169009879046,22.065999999991618
312265.0507,-1.2479165994313257,-0.5271155746326864,1.0868341908043315,0.7661905515440162,22.067000000039116
312265.0517,-2.1855920503347206,-1.1961373464362057,0.6461574604955085,0.5264651671397422,22.068000000028405
312265.0527,-3.014638154326617,-1.7741134394243772,0.20895055950012129,0.2827906081570044,22.069000000017695
312265.0537,-3.6639510535515116,-2.1969159723144736,-0.16342644374461324,0.09468012916243089,22.070000000006985
312265.0547,-4.068430823949425,-2.407004862792796,-0.4123575524721968,0.019075775945022324,22.070999999996275
312265.0557,-4.175611068267024,-2.3595114102220056,-0.4883644954703861,0.10402574391570367,22.072000000043772
312265.0567,-3.951413985744817,-2.027399538279542,-0.3567297817326884,0.38313164210427825,22.073000000033062
312265.0577,-3.384432349473166,-1.4051616333279693,-0.001765370632723145,0.8713510278253824,22.07400000002235
312265.0587,-2.488274770928756,-0.5106399744956853,0.5707274010207128,1.5626086113087236,22.07500000001164
312265.0597,-1.3016929723678707,0.615259004153931,1.3330855365438967,2.429491164092817,22.07600000000093
312265.0607,0.1135781509081717,1.9109889660734167,2.237574267982661,3.4250940184151477,22.07699999999022
312265.0617,1.6771157900135982,3.2987507886794565,3.2202003625976388,4.48687162938164,22.07800000003772
312265.0627,3.2958794182842026,4.690474554351788,4.206208866086652,5.5421423706452035,22.07900000002701
312265.0637,4.871520161524416,5.994869669049905,5.116753970514693,6.5147286941915015,22.080000000016298
312265.0647,6.30826867793789,7.124906932537357,5.87611404805266,7.3320949286243335,22.081000000005588
312265.0657,7.52067894018497,8.005047303310675,6.418761005325901,7.932288346008149,22.081999999994878
312265.0667,8.440512712577567,8.577548565402525,6.6956011596557925,8.270000634523326,22.083000000042375
312265.0677,9.022125898457006,8.807261955089713,6.678778466632014,8.321145825822981,22.084000000031665
312265.0687,9.245856204753373,8.684468615406486,6.364564281013681,8.085489663136794,22.085000000020955
312265.0697,9.119098584344266,8.225487514434372,5.774038199084347,7.587051051856307,22.086000000010245
312265.0707,8.674972733268678,7.470994858126422,4.951474571278254,6.8722106585221265,22.086999999999534
312265.0717,7.968714546823192,6.482210057121881,3.9605687017968036,6.005684066157861,22.087999999988824
312265.0727,7.072138870243375,5.335304250980111,2.8788443026192407,5.064725433717641,22.08900000003632
312265.0737,6.066703240895339,4.114554822027072,1.7907592723512749,4.1321018785253205,22.09000000002561
312265.0747,5.035833904392493,2.904886998458471,0.780153218226781,3.288501597757339,22.0910000000149
312265.0757,4.057243395720348,1.7845000834200782,-0.07725503814297224,2.6050978203238597,22.09200000000419
312265.0767,3.1959667699934795,0.8182654935289746,-0.7206148521851203,2.1369799604264266,22.09299999999348
312265.0777,2.4987713284897213,0.052507554593139695,-1.1093018209750878,1.9180835466410535,22.094000000040978
312265.0787,1.9904594091876067,-0.48835681168120953,-1.2263842135938166,1.9581090893591002,22.095000000030268
312265.0797,1.67239862921076,-0.8030237649766679,-1.079875712848867,2.241730527694656,22.096000000019558
312265.0807,1.523396871167279,-0.9122663595655693,-0.7016636156483138,2.7301745063299037,22.097000000008848
312265.0817,1.5028113941063541,-0.8557857139306185,-0.14422338846707808,3.365023686199845,22.097999999998137
312265.0827,1.555564868054727,-0.6872821563022373,0.5245586585938112,4.073882711785381,22.099000000045635
312265.0837,1.6185569111495517,-0.4682495935225361,1.2279532033047946,4.777365215730095,22.100000000034925
312265.0847,1.627825718457613,-0.2611176690607309,1.887713848501645,5.3967319260443105,22.101000000024214
312265.0857,1.5257435750891961,-0.12242654308614608,2.431458938913912,5.861446132594591,22.102000000013504
312265.0867,1.2675292413677173,-0.09671254372768766,2.799405064389328,6.115919805540515,22.103000000002794
312265.0877,0.8264293597380528,-0.21171021279203148,2.949814016954833,6.124801005138618,22.103999999992084
312265.0887,0.19705332195066314,-0.4753445495688023,2.862642332172674,5.876293514470515,22.10500000003958
312265.0897,-0.6034715317013831,-0.8748094341315343,2.5410588305854644,5.383189371916384,22.10600000002887
312265.0907,-1.5366427867483528,-1.377821664595188,2.01070356716223,4.681515861581862,22.10700000001816
312265.0917,-2.545916279856831,-1.935924942088161,1.3167810238224593,3.8269291690547718,22.10800000000745
312265.0927,-3.561906982687777,-2.4895154810075755,0.5192898905669642,2.8892049800970723,22.10899999999674
312265.0937,-4.508951033597257,-2.9740904892489604,-0.3131289766118608,1.945360637403237,22.110000000044238
312265.0947,-5.312388614230323,-3.327099184556917,-1.1101132259425495,1.0720761731204371,22.111000000033528
312265.0957,-5.905856116302689,-3.49471515041637,-1.8065838356636406,0.3381496966956149,22.112000000022817
312265.0967,-6.237874320035967,-3.4378546231808826,-2.3491454602683493,-0.202280409655886,22.113000000012107
312265.0977,-6.277087202370328,-3.136837171818769,-2.701256834748298,-0.5150879905315499,22.114000000001397
312265.0987,-6.015636804385511,-2.59421616503503,-2.8466699228493466,-0.5895655462382846,22.114999999990687
312265.0997,-5.470340470234051,-1.8354836383332418,-2.790809309021074,-0.4395519848803557,22.116000000038184
312265.1007,-4.681550004984509,-0.9075603845153328,-2.5599677612784264,-0.10216942997925296,22.117000000027474
312265.1017,-3.7097970276340986,0.12480281784586633,-2.198409815233854,0.36571204077053937,22.118000000016764
312265.1027,-2.6305430636535116,1.184383921273065,-1.763681435723034,0.8929433198051198,22.119000000006054
312265.1037,-1.5275358269201844,2.1881082177146562,-1.3206000745363509,1.4009738124896218,22.119999999995343
312265.1047,-0.48540687864895454,3.054304163938342,-0.9345285005491172,1.8114768732580084,22.12100000004284
312265.1057,0.41778254818652616,3.709911547943896,-0.6646050290354014,2.053990784116991,22.12200000003213
312265.1067,1.1173381751932887,4.096961330651768,-0.5576055075214819,2.0728422070970605,22.12300000002142
312265.1077,1.5674288848409355,4.177716622454219,-0.6430484588324177,1.832689181118734,22.12400000001071
312265.1087,1.7447685909669548,3.9379933624143515,-0.9300305283673667,1.3221547834123497,22.125
312265.1097,1.6501484815081822,3.388354676267922,-1.4061071488251804,0.5552073827600729,22.12599999998929
312265.1107,1.3076950120720623,2.5630774120122712,-2.0383301514737577,-0.42983909294865297,22.127000000036787
