TimeStamp,ECR,FCR,ECU,FCU,time_index
312258.9837,-35.00767135105004,-43.87118136104068,-68.31597438904228,-76.40870748218673,16.0
312258.9847,-52.48488470372331,-54.4272359145068,-73.79078449240187,-84.23043693253906,16.00099999998929
312258.9857,-71.15168531598745,-65.33164113113794,-79.5336905370694,-92.11342267364151,16.002000000036787
312258.9867,-90.65753909359766,-76.36768910954841,-85.40763275360798,-99.89788512932698,16.003000000026077
312258.9877,-110.59349765997496,-87.29156867849305,-91.25108440423618,-107.40399259933724,16.004000000015367
312258.9887,-130.50238793590756,-97.83857105506188,-96.88188088838278,-114.4357908090588,16.005000000004657
312258.9897,-149.89257087779558,-107.73162619302626,-102.10327850835063,-120.7872487680471,16.005999999993946
312258.9907,-168.2546980680823,-116.6917940422111,-106.71201899070643,-126.25018427634386,16.007000000041444
312258.9917,-185.0806434104993,-124.45013509921802,-110.50796697985689,-130.6236331700547,16.008000000030734
312258.9927,-199.88358837608814,-130.7602251216069,-113.30470724822199,-133.72405870362067,16.009000000020023
312258.9937,-212.21811155785068,-135.41047586837945,-114.9403549267414,-135.3956783138201,16.010000000009313
312258.9947,-221.6990896691446,-138.23538863076615,-115.28776040830967,-135.52012708917474,16.010999999998603
312258.9957,-228.0182636342765,-139.12490559832287,-114.26329003733883,-134.0246876954696,16.0120000000461
312258.9967,-230.9574584942378,-138.0311346376408,-111.83343706280124,-130.8883960737053,16.01300000003539
312258.9977,-230.39766016283818,-134.97189806536403,-108.01866037450252,-126.14547523232892,16.01400000002468
312258.9987,-226.32342915465915,-130.0307816131295,-102.89405021788488,-119.88574416591123,16.01500000001397
312258.9997,-218.82244896128367,-123.35361722172277,-96.5866634147376,-112.25187860634458,16.01600000000326
312259.0007,-208.08033853446992,-115.14160049771657,-89.26963420967309,-103.4336447215348,16.01699999999255
312259.0017,-194.37117652021797,-105.64149727128068,-81.15342689909667,-93.65946417513267,16.018000000040047
312259.0027,-178.04446265894472,-95.13361125510245,-72.47482893998934,-83.18587773738449,16.019000000029337
312259.0037,-159.5094558813659,-83.91834689962954,-63.48446657684539,-72.285635949951,16.020000000018626
312259.0047,-139.21796168938764,-72.3022936701482,-54.433741885718355,-61.23524454934286,16.021000000007916
312259.0057,-117.64668358110139,-60.584772005568965,-45.5621294301707,-50.302820522018564,16.021999999997206
312259.0067,-95.28020324635212,-49.04571623454983,-37.085728731958696,-39.73706948987041,16.023000000044703
312259.0077,-72.5955193191423,-37.93563214410827,-29.187849536836012,-29.75808116277886,16.024000000033993
312259.0087,-50.04886972429079,-27.468169896182207,-22.01222185936022,-20.550467847628106,16.025000000023283
312259.0097,-28.06530940729859,-17.81561523919224,-15.659189731532367,-12.2591578737562,16.026000000012573
312259.0107,-7.031238812561809,-9.107345825638886,-10.184988643664557,-4.987921512545433,16.027000000001863
312259.0117,12.710194328294348,-1.4310488152723073,-5.6039462877389035,1.1995263581960443,16.027999999991152
312259.0127,30.86114086926532,5.163726059113556,-1.8932086535925834,6.276213110263264,16.02900000003865
312259.0137,47.16905694298088,10.660277015008232,1.0005995068918456,10.24691921683337,16.03000000002794
312259.0147,61.425308992268434,15.068432588832241,3.1535022804011366,13.142158232852086,16.03100000001723
312259.0157,73.46306173838762,18.417950366435225,4.6558697351808265,15.011814623678466,16.03200000000652
312259.0167,83.15510181957073,20.752338145288736,5.604449119995606,15.919101818484105,16.03299999999581
312259.0177,90.41214517436138,22.123695976280267,6.0954055070551005,15.9354106737088,16.034000000043306
312259.0187,95.18201206724704,22.589012997376056,6.218896787078429,15.13647111391839,16.035000000032596
312259.0197,97.44984903027158,22.20814929684968,6.055512692143062,13.600063178526263,16.036000000021886
312259.0207,97.23935492738082,21.043511763509773,5.674688218112435,11.405308023446187,16.037000000011176
312259.0217,94.6147535449427,19.161217161049056,5.134981118850074,8.633366453532743,16.038000000000466
312259.0227,89.68307157853158,16.633348008873597,4.485903469321102,5.36919380106674,16.038999999989755
312259.0237,82.59614956516613,13.540766871994272,3.770838612173751,1.7038644011008572,16.040000000037253
312259.0247,73.55174997347726,9.975877109401805,3.03047269022745,-2.2630989315170433,16.041000000026543
312259.0257,62.79314026242461,6.044711402293513,2.3061341104284203,-6.421966583674298,16.042000000015832
312259.0267,50.60662035359758,1.8677946444397526,1.6424675453484907,-10.65213473289923,16.043000000005122
312259.0277,37.31662659382143,-2.42064122143852,1.08896722413657,-14.822949598724355,16.043999999994412
312259.0287,23.278263232040267,-6.675329204313305,0.7000463876818789,-18.79625453052948,16.04500000004191
312259.0297,8.8673666402711,-10.744547353440062,0.5335093750281319,-22.43068837518102,16.0460000000312
312259.0307,-5.531528515881131,-14.476399295109367,0.6474994068020081,-25.58754884753739,16.04700000002049
312259.0317,-19.53870567101318,-17.726371449814987,1.096196378208429,-28.137830681696855,16.04800000000978
312259.0327,-32.79344794433507,-20.36556307292478,1.9247128925384074,-29.96987723128462,16.04899999999907
312259.0337,-44.9679332127158,-22.28886125630132,3.1637640277619687,-30.996965001585647,16.050000000046566
312259.0347,-55.779841330678046,-23.422279817843254,4.824752274515464,-31.16408745588185,16.051000000035856
312259.0357,-65.00271632167478,-23.728706373515248,6.895905286933883,-30.453224982238407,16.052000000025146
312259.0367,-72.47326422182361,-23.211405771329012,9.340029291740251,-28.88648242169766,16.053000000014435
312259.0377,-78.09498915029388,-21.914802435729538,12.094301328992898,-26.52663684561272,16.054000000003725
312259.0387,-81.83785758523426,-19.922293699009074,15.072331908592032,-23.474852268883282,16.054999999993015
312259.0397,-83.73400795818262,-17.35110969499001,18.16850470910696,-19.86556509564936,16.056000000040513
312259.0407,-83.86985892108224,-14.344507841617954,21.26436393874841,-15.858801052620532,16.057000000029802
312259.0417,-82.37528252385744,-11.061844936411987,24.236596799050307,-11.630426504904358,16.058000000019092
312259.0427,-79.41076704172833,-7.667282238379062,26.965971190915685,-7.361040701704403,16.059000000008382
312259.0437,-75.15367195042815,-4.3180271391676115,29.34645728698579,-3.224360317970014,16.05999999999767
312259.0447,-69.78475569273353,-1.1530835453416917,31.29370060316836,0.6239813672501535,16.06100000004517
312259.0457,-63.47612612599892,1.7165362040901844,32.7520317808817,4.056309346320723,16.06200000003446
312259.0467,-56.38162530998325,4.215291928491376,33.69929491795852,6.980637995070781,16.06300000002375
312259.0477,-48.63042671359662,6.307628537932512,34.14894474442227,9.345609189352952,16.06400000001304
312259.0487,-40.324315673117106,7.999109588976733,34.14908895984423,11.14221733054909,16.06500000000233
312259.0497,-31.538772097873327,9.334048521424663,33.778415651026904,12.402170509347322,16.065999999991618
312259.0507,-22.327611509688,10.389817479621886,33.1392231064698,13.193022294778487,16.067000000039116
312259.0517,-12.730601085194628,11.26830288465028,32.34803521441376,13.610483986386923,16.068000000028405
312259.0527,-2.7831835959143882,12.085226200677791,31.524515509084065,13.768567645362133,16.069000000017695
312259.0537,7.472759416439532,12.95823498489174,30.779565491112443,13.788394092761383,16.070000000006985
312259.0547,17.978274771426406,13.99477655555144,30.20359186690968,13.786610862109997,16.070999999996275
312259.0557,28.647996151887973,15.28078509027892,29.855943158570074,13.864393128220705,16.072000000043772
312259.0567,39.3631389661579,16.871141517298636,29.75644646231591,14.09794384179637,16.073000000033062
312259.0577,49.96766471214863,18.782711247423347,29.879825282677004,14.531273372487446,16.07400000002235
312259.0587,60.26816089618302,20.990542134417407,30.15356171000957,15.17183674510674,16.07500000001164
312259.0597,70.03764732366675,23.427534573581998,30.459499042208908,15.989356775172508,16.07600000000093
312259.0607,79.02316714084009,25.987601898416305,30.639186856228328,16.91788688986728,16.07699999999022
312259.0617,86.95668318076709,28.53204844822908,30.50267433567703,17.860892908987747,16.07800000003772
312259.0627,93.56850668301955,30.898630342751108,29.84018420734556,18.698882929870475,16.07900000002701
312259.0637,98.6022613230075,32.912552538394,28.43587160691848,19.298910465042226,16.080000000016298
312259.0647,101.83024889624946,34.398512543834485,26.082708108776057,19.525135298015957,16.081000000005588
312259.0657,103.06804395165082,35.19283713310987,22.597443831626002,19.24956025112251,16.081999999994878
312259.0667,102.18720437057333,35.1547770829045,17.834596059160642,18.362074317206478,16.083000000042375
312259.0677,99.12513598921389,34.176122485281226,11.698490165160393,16.779020288501844,16.084000000031665
312259.0687,93.89137687524124,32.18846672817551,4.152529910896765,14.449658220086675,16.085000000020955
312259.0697,86.56984972772293,29.167664185163943,-4.774914528507961,11.360099138794801,16.086000000010245
312259.0707,77.3169439127113,25.135274241616408,-14.988359750980086,7.534516494902117,16.086999999999534
312259.0717,66.35560487948679,20.157039530881242,-26.32688992281777,3.033683800692936,16.087999999988824
312259.0727,53.965901622824106,14.33868610186901,-38.569481793601724,-2.0488866519283917,16.08900000003632
312259.0737,40.472788681920676,7.819536638805349,-51.4435452000775,-7.592737635455585,16.09000000002561
312259.0747,26.231958780620985,0.7645776530190848,-64.63604832753572,-13.45758726352535,16.0910000000149
312259.0757,11.614782689380245,-6.644293976221502,-77.80645288417784,-19.491092929735036,16.09200000000419
312259.0767,-3.0066515327135876,-14.21710594973489,-90.60060715711806,-25.536567756625857,16.09299999999348
312259.0777,-17.273455317790564,-21.764043233595064,-102.66473754737513,-31.440016713483633,16.094000000040978
312259.0787,-30.85200951748821,-29.102511302889745,-113.65873829895314,-37.05597653927861,16.095000000030268
312259.0797,-43.44358524830403,-36.062626788518735,-123.2680757135958,-42.25180564493041,16.096000000019558
312259.0807,-54.79115295627454,-42.490925869031,-131.2137834828478,-46.91025949650174,16.097000000008848
312259.0817,-64.68327253556778,-48.25228330599906,-137.26021297087448,-50.930383486165105,16.097999999998137
312259.0827,-72.95520525661213,-53.23022582654416,-141.2203979605439,-54.22693857089969,16.099000000045635
312259.0837,-79.48760642576173,-57.325983470226845,-142.95907947134344,-56.728726346706715,16.100000000034925
312259.0847,-84.20332744324476,-60.45673594801093,-142.393596736987,-58.37628468985344,16.101000000024214
312259.0857,-87.06296370621394,-62.55356747089936,-139.49297271322035,-59.11947268362409,16.102000000013504
312259.0867,-88.05982333571397,-63.55963839740774,-134.27559846873206,-58.91545033251853,16.103000000002794
312259.0877,-87.21496049394484,-63.429017336687394,-126.80594740475804,-57.72748696295154,16.103999999992084
312259.0887,-84.57282227564471,-62.126501082514324,-117.19072940669857,-55.524910653597445,16.10500000003958
312259.0897,-80.19791191581507,-59.62859525573403,-105.5748333029994,-52.284353048530704,16.10600000002887
312259.0907,-74.17269013413922,-55.92565297443943,-92.13731367672999,-47.992266657418924,16.10700000001816
312259.0917,-66.59674060424753,-51.024991523997336,-77.08756799426163,-42.64851429540743,16.10800000000745
312259.0927,-57.58703562915379,-44.95464727564564,-60.66173624200861,-36.27067166098747,16.10899999999674
312259.0937,-47.278974024077826,-37.76730460353648,-43.11925164134999,-28.898561232339336,16.110000000044238
312259.0947,-35.82774202170718,-29.543859302278875,-24.7393898123925,-20.59846207254305,16.111000000033528
312259.0957,-23.40948231968145,-20.39606005382762,-5.8176144819393505,-11.466424201323186,16.112000000022817
312259.0967,-10.221753081506524,-10.467715967776835,13.338493704018601,-1.6301605613738879,16.113000000012107
312259.0977,3.5171817380932286,0.06593901387945028,32.413910944268736,8.750909118981069,16.114000000001397
312259.0987,17.570572994730615,11.000982161598426,51.09156814006141,19.487739213332613,16.114999999990687
312259.0997,31.68709901042933,22.10970910030771,69.05850088494114,30.36595762973411,16.116000000038184
312259.1007,45.60646251167298,33.147579442358705,86.01266746543209,41.15227841211821,16.117000000027474
312259.1017,59.066467608084665,43.86186869822242,101.67023305449136,51.602725921978454,16.118000000016764
312259.1027,71.81118992132349,54.00151854503457,115.77300936050122,61.472194928273204,16.119000000006054
312259.1037,83.5997044560864,63.32754391754622,128.09565280879744,70.52473612626002,16.119999999995343
312259.1047,94.21473843750898,71.62327807670788,138.45217290480895,78.54387446585363,16.12100000004284
312259.1057,103.47058192940791,78.70372451689904,146.70129441116794,85.34224646804388,16.12200000003213
312259.1067,111.21962280829774,84.42333952894106,152.75025651948351,90.76988475171623,16.12300000002142
312259.1077,117.35697254493297,88.68168691791541,156.55671830367064,94.7205794015713,16.12400000001071
312259.1087,121.82280604858347,91.42657593122111,158.1285661455172,97.13589692721887,16.125
312259.1097,124.60223715519231,92.65449880884293,157.52157451808236,98.00662397840355,16.12599999998929
312259.1107,125.72277117177086,92.4084058727047,154.8350418021535,97.37160699985635,16.127000000036787
312259.1117,125.24959469031457,90.77307249738253,150.20569079609646,95.31416145632927,16.128000000026077
312259.1127,123.27915795620636,87.86850298455441,143.80027190922507,91.95640638176869,16.129000000015367
312259.1137,119.93165592315455,83.84196324768655,135.8074197276162,87.45202530123872,16.130000000004657
312259.1147,115.34310459986013,78.85932363245577,126.42937782201201,81.9780503490165,16.130999999993946
312259.1157,109.6577293003564,73.09641718068956,115.87421396091314,75.72630495287264,16.132000000041444
312259.1167,103.02132802936956,66.73107566745739,104.34909545031117,68.89511971988783,16.133000000030734
312259.1177,95.57615112306996,59.93640084993809,92.05508529192673,61.68185987059902,16.134000000020023
312259.1187,87.45765930686855,52.87567267319659,79.1837632628294,54.276679807616006,16.135000000009313
312259.1197,78.79330454229931,45.69910576548735,65.91578607433227,46.857764675247054,16.135999999998603
312259.1207,69.70324382664977,38.542459911841085,52.42129559686973,39.58814664044202,16.1370000000461
312259.1217,60.302670062947826,31.52731030890838,38.861884110226214,32.61401309846747,16.13800000003539
312259.1227,50.705250485224795,24.76260970829288,25.393651292100046,26.064272713197504,16.13900000002468
312259.1237,41.02702330295637,18.34704490171705,12.1707580204075,20.05102865612939,16.14000000001397
312259.1247,31.390033476852118,12.371617867629556,-0.6511879235138806,14.670538443088157,16.14100000000326
312259.1257,21.924998160735193,6.921875001322791,-12.912579927905517,10.004223321172198,16.14199999999255
312259.1267,12.772382556663294,2.0792673001835795,-24.448688705350072,6.119328532865344,16.143000000040047
312259.1277,4.081430531538527,-2.0787555259729733,-35.090421649973365,3.0689244573922,16.144000000029337
312259.1287,-3.9930837482733126,-5.480145341713534,-44.66722493444389,0.8910676503979744,16.145000000018626
312259.1297,-11.296358289698476,-8.061178545975132,-53.01215353659823,-0.3929042560221941,16.146000000007916
312259.1307,-17.681025694170806,-9.770719445754649,-59.9688835818966,-0.7808064484280658,16.146999999997206
312259.1317,-23.016029332530863,-10.575443140332096,-65.40019902581687,-0.2924792134306668,16.148000000044703
312259.1327,-27.19615925171256,-10.465471932538707,-69.19727583970473,1.0273164499297334,16.149000000033993
312259.1337,-30.151353389314554,-9.459766511606057,-71.28893419639482,3.106475651058206,16.150000000023283
312259.1347,-31.854813701766926,-7.610566538477886,-71.64995062659656,5.844120158341607,16.151000000012573
312259.1357,-32.32902418861242,-5.0062022490757565,-70.30752896936332,9.110648670587631,16.152000000001863
312259.1367,-31.648888255253034,-1.7716994069758805,-67.34512434613647,12.749657324402056,16.152999999991152
312259.1377,-29.941416788749404,1.9332329619549091,-62.90299289811423,16.581972402584015,16.15400000003865
312259.1387,-27.381677559298478,5.919023374175031,-57.17508785942333,20.41184854512404,16.15500000002794
312259.1397,-24.18503606146368,9.973806997771336,-50.40221872586243,24.035174615173418,16.15600000001723
312259.1407,-20.596048160683907,13.873422509837134,-42.861708564309296,27.249316325478002,16.15700000000652
312259.1417,-16.874674811351586,17.393272018051068,-34.85409581541984,29.864031289070375,16.15799999999581
312259.1427,-13.280749038962531,20.321275350702884,-26.687702174300664,31.71273856861402,16.159000000043306
312259.1437,-10.057810109780016,22.47100662955437,-18.662101014084996,32.663327985109134,16.160000000032596
312259.1447,-7.4175110154218205,23.69403332090758,-11.05165048777045,32.62766625841327,16.161000000021886
312259.1457,-5.525793425563162,23.890493998229392,-4.090288544576861,31.56900301245583,16.162000000011176
312259.1467,-4.491909058506287,23.01705115328957,2.0412808881371585,29.50659835265622,16.163000000000466
312259.1477,-4.361157502054849,21.091532045040687,7.225045581392515,26.5170767681479,16.163999999989755
312259.1487,-5.111926001905237,18.19380914841083,11.411068469381307,22.732244991821776,16.165000000037253
312259.1497,-6.657281558788433,14.46275191522158,14.618387163418952,18.333374753189222,16.166000000026543
312259.1507,-8.851009201612804,10.089379155712562,16.93136281699347,13.542222568965002,16.167000000015832
312259.1517,-11.497643558236469,5.306630738011344,18.49175971087485,8.609314294418077,16.168000000005122
312259.1527,-14.365733662414602,0.37643368484761236,19.487160148722293,3.800239711837035,16.168999999994412
312259.1537,-17.203339273950913,-4.425060562618695,20.136590313735898,-0.6191372190638169,16.17000000004191
312259.1547,-19.754600660101982,-8.823060580588418,20.674429317633663,-4.397557880421576,16.1710000000312
312259.1557,-21.776164780423443,-12.559485083298924,21.33378037496488,-7.312334096218042,16.17200000002049
312259.1567,-23.05229236589843,-15.407058179562238,22.33049261748517,-9.18146524477274,16.17300000000978
312259.1577,-23.407606822228075,-17.18124448115457,23.848935914544825,-9.87311852796343,16.17399999999907
312259.1587,-22.71666332471216,-17.749302439342056,26.03045889342827,-9.311889711856763,16.175000000046566
312259.1597,-20.909794193395733,-17.03596925149384,28.965219136192616,-7.481511342280687,16.176000000035856
312259.1607,-17.974999112969584,-15.025555835690724,32.68778684370501,-4.423947058632858,16.177000000025146
312259.1617,-13.955968069821633,-11.76050256332887,37.176615142830954,-0.23508092361544392,16.178000000014435
312259.1627,-8.946623302622253,-7.336702595487251,42.35716876694498,4.942543157548972,16.179000000003725
312259.1637,-3.0828191193464822,-1.8961188556139907,48.10823376514829,10.929275161417072,16.179999999993015
312259.1647,3.467974919854957,4.382614094097828,54.27071621434325,17.519407859676193,16.181000000040513
312259.1657,10.518074636131892,11.294812351452622,60.65809405355353,24.49285267479727,16.182000000029802
312259.1667,17.871110657980214,18.620769546772895,67.06762260604611,31.626578731091005,16.183000000019092
312259.1677,25.332792414043844,26.136409843826097,73.29141290929319,38.7050278161319,16.184000000008382
312259.1687,32.72014675791529,33.622892255253824,79.12659678776986,45.528857212304715,16.18499999999767
312259.1697,39.86866332666948,40.87464484915576,84.38395090431936,51.921549804030654,16.18600000004517
312259.1707,46.637008236764544,47.70549383846589,88.89455548618366,57.73364794886769,16.18700000003446
312259.1717,52.9092119369235,53.95275290901427,92.51429005530228,62.84459353637834,16.18800000002375
312259.1727,58.5944729541304,59.47933289909082,95.12619487559083,67.16237038931759,16.18900000001304
312259.1737,63.62492575304647,64.17410292099432,96.6409304385281,70.62132730845582,16.19000000000233
312259.1747,67.95188060638756,67.95086612464212,96.99572873506291,73.17869471140348,16.190999999991618
312259.1757,71.54114407485248,70.746395910036,96.15233489250677,74.81038397214324,16.192000000039116
312259.1767,74.36806435525493,72.51800623219303,94.09447791862355,75.50667113900822,16.193000000028405
312259.1777,76.41291670510495,73.24110318051184,90.82538375332952,75.26831691988883,16.194000000017695
312259.1787,77.6571567988971,72.90709025998838,86.36575854003827,74.1035700195101,16.195000000006985
312259.1797,78.08093583037686,71.52188754036099,80.75253719514014,72.0263537617283,16.195999999996275
312259.1807,77.662105948256,69.10518941716268,74.03852902642114,69.05576309718955,16.197000000043772
312259.1817,76.37676596282446,65.69044349230909,66.29291834366329,65.21681953477925,16.198000000033062
312259.1827,74.20122343712079,61.32540064169902,57.60241451234346,60.542264541083156,16.19900000002235
312259.1837,71.11509726308961,56.072978831088655,48.072712051811536,55.0750352027048,16.20000000001164
312259.1847,67.10516876843029,50.012112772587614,37.8298329565052,48.870973705750814,16.20100000000093
312259.1857,62.169519362721836,43.23823592033548,27.02089098000067,42.001283867158534,16.20199999999022
312259.1867,56.32147385413723,35.863063377810214,15.813845386037434,34.55426717559876,16.20300000003772
312259.1877,49.59290073830697,28.013411524476368,4.395897093755614,26.635945054378034,16.20400000002701
312259.1887,42.036498784619575,19.828895054713854,-7.029685779448182,18.36929498855462,16.205000000016298
312259.1897,33.72681350291356,11.45847294838568,-18.24835772110229,9.8919824489979,16.206000000005588
312259.1907,24.759864586892554,3.0559569908812207,-29.04056166580541,1.3526413224300482,16.206999999994878
312259.1917,15.25141122890809,-5.2252662581084355,-39.18915202902187,-7.094075852008041,16.208000000042375
312259.1927,5.334020847838404,-13.237932503941412,-48.48750112657266,-15.293308645453662,16.209000000031665
312259.1937,-4.846776096138181,-20.846566098384905,-56.74770250083521,-23.09618052387312,16.210000000020955
312259.1947,-15.136878798690669,-27.93262895885956,-63.8082277524876,-30.365830583015793,16.211000000010245
312259.1957,-25.378147875134836,-34.398678965534216,-69.5404001085589,-36.98274015685307,16.211999999999534
312259.1967,-35.41267128039514,-40.17113003671798,-73.85311944911975,-42.84886370997989,16.212999999988824
312259.1977,-45.08640775862663,-45.20131806199252,-76.69540450165717,-47.89018161577774,16.21400000003632
312259.1987,-54.25193878837771,-49.46472572200999,-78.05649685878763,-52.05744378052172,16.21500000002561
312259.1997,-62.77017739503555,-52.958390949853964,-77.96348179043852,-55.32505236214186,16.2160000000149
312259.2007,-70.5110168204106,-55.69670159544127,-76.47660247715653,-57.68822066021767,16.21700000000419
312259.2017,-77.35303941227993,-57.705944798907666,-73.68265578320816,-59.158723963017835,16.21799999999348
312259.2027,-83.18253134497338,-59.01811637400752,-69.68703815582695,-59.75970783493635,16.219000000040978
312259.2037,-87.89214808391317,-59.664588284273016,-64.6051415276238,-59.52012385120346,16.220000000030268
312259.2047,-91.37963748066261,-59.670270175029835,-58.5538675773246,-58.46941039933163,16.221000000019558
312259.2057,-93.54704423924689,-59.048878169135584,-51.644026623873025,-56.633020804642804,16.222000000008848
312259.2067,-94.30078783745934,-57.799840843496675,-43.974313732771776,-54.029322982974755,16.222999999998137
312259.2077,-93.55292721876798,-55.90723452201168,-35.62741507624229,-50.668260737174535,16.224000000045635
312259.2087,-91.22380582611093,-53.34095926411018,-26.668604296880904,-46.55198911987342,16.225000000034925
312259.2097,-87.24612019903104,-50.06015916533779,-17.146958845555755,-41.677491979488885,16.226000000024214
312259.2107,-81.57028811430612,-46.01867477538296,-7.099080824296299,-36.04097880372818,16.227000000013504
312259.2117,-74.17082396795603,-41.17211175481686,3.4450318026966427,-29.643661158528854,16.228000000002794
312259.2127,-65.05327634163913,-35.48593781755183,14.454527709896432,-22.498346191010462,16.228999999992084
312259.2137,-54.26116124246976,-28.943896467067905,25.889384281195177,-14.63617258668912,16.23000000003958
312259.2147,-41.88224784740721,-21.555963755884786,37.69205358144647,-6.112765105623015,16.23100000002887
312259.2157,-28.0535316082102,-13.36508053948211,49.77992227819071,2.986896488696544,16.23200000001816
312259.2167,-12.96426749860695,-4.451968486023052,62.03938564138993,12.545510080237657,16.23300000000745
312259.2177,3.1434661236514367,5.062521955754256,74.32221414194105,22.41285169280276,16.23399999999674
312259.2187,19.977050826497766,15.017890757168956,86.44470832342544,32.407811894834694,16.235000000044238
312259.2197,37.198641593821336,25.21742487925464,98.18990952392895,42.32310733842129,16.236000000033528
312259.2207,54.43347119690187,35.434477302071464,109.31288073416499,51.93246811559596,16.237000000022817
312259.2217,71.28087503054961,45.42123416079556,119.54881566552392,60.999875528305196,16.238000000012107
312259.2227,87.32754634768129,54.919403469927644,128.6234973855218,69.29023244046768,16.239000000001397
312259.2237,102.16234357798608,63.6720933721176,136.26543115605193,76.58070784710505,16.239999999990687
312259.2247,115.39183221119653,71.43604415057786,142.21883609101087,82.67192215459583,16.241000000038184
312259.2257,126.65566710154586,77.99334601636741,146.25660836660865,87.39813735639775,16.242000000027474
312259.2267,135.64091497020794,83.16181696744344,148.1923701501712,90.63568744486916,16.243000000016764
312259.2277,142.09448277206218,86.80332792122707,147.89079170678218,92.30902276072159,16.244000000006054
312259.2287,145.83295001809208,88.82953532177534,145.27551144196832,92.39393496209449,16.244999999995343
312259.2297,146.74929020327525,89.20469831989293,140.33416650929777,90.91775917250295,16.24600000004284
312259.2307,144.8161909115333,87.9454980844034,133.12026738035655,87.95659547037603,16.24700000003213
312259.2317,140.08592303331284,85.11801832036022,123.75188325785582,83.62983062861302,16.24800000002142
312259.2327,132.6869444301805,80.83226618453327,112.40733067979151,78.09245108597558,16.24900000001071
312259.2337,122.81763078941398,75.23479131696074,99.3182558323829,71.52580060269811,16.25
312259.2347,110.73768798399489,68.50008175976814,84.76065595392568,64.1275367051186,16.25099999998929
312259.2357,96.75790277099814,60.82146909237654,69.04448549108047,56.101570715521994,16.252000000036787
312259.2367,81.22892539854037,52.40225799618099,52.502532746658396,47.648735564753906,16.253000000026077
312259.2377,64.52974903943522,43.44771158327607,35.4792330058231,38.95881923192964,16.254000000015367
312259.2387,47.05646425310985,34.15838369929332,18.32001061263605,30.204441308498957,16.255000000004657
312259.2397,29.211735197465977,24.72510899802887,1.3616260972236622,21.53705257690957,16.255999999993946
312259.2407,11.395285741065162,15.325760578219944,-15.076140328281024,13.085122608941766,16.257000000041444
312259.2417,-6.004482056545635,6.123684735594644,-30.697294382753736,4.954369442090768,16.258000000030734
312259.2427,-22.617767414850444,-2.7324562468389084,-45.234900087763656,-2.770301257855886,16.259000000020023
312259.2437,-38.09970067260815,-11.10784117373237,-58.45492887913684,-10.021624960595872,16.260000000009313
312259.2447,-52.135953733139594,-18.880140062359025,-70.15889559753403,-16.746142308608206,16.260999999998603
312259.2457,-64.44788694399215,-25.938174294930416,-80.18555116763181,-22.900293429374145,16.2620000000461
312259.2467,-74.79746018563885,-32.18106467769792,-88.41191737719917,-28.447001782961966,16.26300000003539
312259.2477,-82.99205942456364,-37.51824851839868,-94.75392208419761,-33.35321283551323,16.26400000002468
312259.2487,-88.88927617090455,-41.87060365280702,-99.16682949546636,-37.588711495209104,16.26500000001397
312259.2497,-92.40154202743365,-45.172743862370965,-101.64556992126164,-41.1263688933507,16.26600000000326
312259.2507,-93.50038255333531,-47.37636560978216,-102.22496949066131,-43.943782102380084,16.26699999999255
312259.2517,-92.2199334502433,-48.45435094973202,-100.97977699505587,-46.02608927007671,16.268000000040047
312259.2527,-88.65927556487166,-48.4051854070368,-98.02429643467511,-47.369586164626284,16.269000000029337
312259.2537,-82.98310777063679,-47.25714919072801,-93.5113723970597,-47.98565442928347,16.270000000018626
312259.2547,-75.42029754752706,-45.07169733249541,-87.63045044680906,-47.90444895037079,16.271000000007916
312259.2557,-66.25993073631585,-41.94546532356205,-80.60445148721126,-47.17778836436452,16.271999999997206
312259.2567,-55.84462038058764,-38.010421168131394,-72.68525807084616,-45.880749654848955,16.273000000044703
312259.2577,-44.56101914370464,-33.43182554318989,-64.14770754343344,-44.11157981042819,16.274000000033993
312259.2587,-32.82769434246063,-28.403846160389715,-55.282112899027325,-41.98969393591844,16.275000000023283
312259.2597,-21.080749120886885,-23.142883055460477,-46.38547490036307,-39.65171487771174,16.276000000012573
312259.2607,-9.757785781922719,-17.87887805960473,-37.75169361360536,-37.245706177965324,16.277000000001863
312259.2617,0.7190137285939429,-12.845082889270333,-29.661218408577348,-34.923938581203664,16.277999999991152
312259.2627,9.959788661881273,-8.266926044372632,-22.370677840841925,-32.83469155516565,16.27900000003865
312259.2637,17.62292039839066,-4.35073209580905,-16.10309216539949,-31.11370896551827,16.28000000002794
312259.2647,23.429027672764406,-1.273095869059704,-11.039282758457121,-29.875989827787294,16.28100000001723
312259.2657,27.17218223391584,0.8283075489675138,-7.311050413690459,-29.208593922439764,16.28200000000652
312259.2667,28.72765374485743,1.8617874687237816,-4.996599607945251,-29.165077031361857,16.28299999999581
312259.2677,28.055713653986327,1.7860412847144738,-4.118545004252101,-29.76204689147996,16.284000000043306
312259.2687,25.20128897706106,0.611564452046233,-4.644661085606021,-30.978159695343056,16.285000000032596
312259.2697,20.289536575138754,-1.6010322822635212,-6.491341060318739,-32.75567387405036,16.286000000021886
312259.2707,13.517682940891149,-4.745654191092381,-9.529534520694435,-35.00446197162893,16.287000000011176
312259.2717,5.143720458056623,-8.677927701463771,-13.592752816318521,-37.60817301790825,16.288000000000466
312259.2727,-4.527252099277114,-13.224407894360724,-18.486583518476433,-40.43205663072817,16.288999999989755
312259.2737,-15.15812557386139,-18.193071770596855,-23.999054533657162,-43.33182321793254,16.290000000037253
312259.2747,-26.395337670726985,-23.384299951584264,-29.911143805228637,-46.162834886481434,16.291000000026543
312259.2757,-37.8839388644207,-28.601539746212655,-36.00674617236123,-48.78890621241746,16.292000000015832
312259.2767,-49.281311849375456,-33.6609035076014,-42.081483060961084,-51.0900438288536,16.293000000005122
312259.2777,-60.26885096185003,-38.399080891524974,-47.94986582433798,-52.968563470203,16.293999999994412
312259.2787,-70.56111730423088,-42.67911895994672,-53.45048736187428,-54.35318153626589,16.29500000004191
312259.2797,-79.91222198043572,-46.39383232920596,-58.44910305385293,-55.200869667167645,16.2960000000312
312259.2807,-88.11943146354952,-49.466826161331944,-62.83965289682796,-55.49646649392304,16.29700000002049
312259.2817,-95.02421332299019,-51.85132636714245,-66.54345356077121,-55.250240763183,16.29800000000978
312259.2827,-100.51112722851109,-53.52719389802644,-69.5069350279876,-54.49377538881042,16.29899999999907
312259.2837,-104.50509933721719,-54.49663672235437,-71.69839786787465,-53.274676337565964,16.300000000046566
312259.2847,-106.96768747541216,-54.77921219953416,-73.1043150094431,-51.65069159240843,16.301000000035856
312259.2857,-107.8929460925108,-54.406728271285246,-73.72569256100188,-49.68384716765133,16.302000000025146
312259.2867,-107.30343673850615,-53.418604848356125,-73.57494011426265,-47.435168691401,16.303000000014435
312259.2877,-105.24681117111979,-51.85815392243687,-72.67358998649195,-44.96046380194649,16.304000000003725
312259.2887,-101.79323492057796,-49.770090675683576,-71.0510597140984,-42.30750323361486,16.304999999993015
312259.2897,-97.03373790047281,-47.19941469758956,-68.74448900333432,-39.51477187262317,16.306000000040513
312259.2907,-91.07939610484168,-44.19161922295596,-65.79951926160876,-36.61178274260083,16.307000000029802
312259.2917,-84.06108511635429,-40.79401637616132,-62.2717387162764,-33.62077516593643,16.308000000019092
312259.2927,-76.12942042535629,-37.05782552901037,-58.228405012057394,-30.559470573973744,16.309000000008382
312259.2937,-67.45442574397518,-33.04057455824092,-53.749992538794615,-27.444450234464146,16.30999999999767
312259.2947,-58.22445742859322,-28.808319850616574,-48.93110120487166,-24.294659042820147,16.31100000004517
312259.2957,-48.64396325000305,-24.437204580267988,-43.880308926480595,-21.134533904289004,16.31200000003446
312259.2967,-38.92976287904357,-20.013944363862457,-38.71864788497726,-17.996303977051276,16.31300000002375
312259.2977,-29.305695135369962,-15.634947469793849,-33.57652527652119,-14.92110753631783,16.31400000001304
312259.2987,-19.995667568688198,-11.40393098742627,-28.589078954997518,-11.958705982388805,16.31500000000233
312259.2997,-11.215347840990031,-7.428068753825252,-23.8901399883596,-9.165735296383712,16.315999999991618
312259.3007,-3.162932300236449,-3.812883306940683,-19.60514914324293,-6.6026024435000545,16.317000000039116
312259.3017,3.990406111917075,-0.6562542881411557,-15.843524422809983,-4.329291535302182,16.318000000028405
312259.3027,10.10966986570054,1.9579573709119493,-12.691085832886923,-2.400475704195083,16.319000000017695
312259.3037,15.10401241347265,3.96609027126415,-10.203199035061404,-0.8604219569993574,16.320000000006985
312259.3047,18.93277763232322,5.330065654745513,-8.39929387366956,0.26178190895977477,16.320999999996275
312259.3057,21.608934916859575,6.041406775719343,-7.259345065712646,0.9561616300661451,16.322000000043772
312259.3067,23.199403421556514,6.123423426449474,-6.7227747418174015,1.2345011842750264,16.323000000033062
312259.3077,23.821979444373454,5.631235836135369,-6.690059858210327,1.1313601685757668,16.32400000002235
312259.3087,23.638842664879924,4.649495013956481,-7.027116490982409,0.7032756123172775,16.32500000001164
312259.3097,22.846897746855504,3.287860137216048,-7.5723059956836085,0.026131113461285386,16.32600000000093
312259.3107,21.66548284297988,1.674498585089933,-8.145685223301484,-0.8091480219205338,16.32699999999022
312259.3117,20.322220495381718,-0.05193906990450969,-8.559924744506661,-1.7022520305647653,16.32800000003772
312259.3127,19.03797589518914,-1.7512667633294756,-8.632163809848825,-2.5500410142885355,16.32900000002701
312259.3137,18.012003164405115,-3.2909328191741904,-8.195973398856443,-3.2534500154795314,16.330000000016298
312259.3147,17.408389039634866,-4.554675670896121,-7.112568936729233,-3.7241595265060212,16.331000000005588
312259.3157,17.344839353911844,-5.449960228272109,-5.280455762340486,-3.890463230976303,16.331999999994878
312259.3167,17.884699587103142,-5.913586036396711,-2.642800407349946,-3.7018365399882622,16.333000000042375
312259.3177,19.032867329807612,-5.915011809872816,0.8080098932635549,-3.131828976439044,16.334000000031665
312259.3187,20.735960128358816,-5.457137715947668,5.028942841322841,-2.1790589878638995,16.335000000020955
312259.3197,22.886771174090768,-4.574508810941056,9.928114873043064,-0.8662660501364567,16.336000000010245
312259.3207,25.332705817982717,-3.329129540426067,15.369640593411678,0.762445391070376,16.336999999999534
312259.3217,27.887573332022743,-1.8042887915856736,21.181146067057373,2.6458701973027092,16.337999999988824
312259.3227,30.345838607663254,-0.09696769187649591,27.163361005447683,4.711040249136293,16.33900000003632
312259.3237,32.49824136063704,1.6904783286717244,33.10106415302753,6.879109757644741,16.34000000002561
312259.3247,34.14758330694875,3.458617181718234,38.77457929181441,9.071223954636897,16.3410000000149
312259.3257,35.12347608414095,5.118486933060203,43.97101169379052,11.213824853649745,16.34200000000419
312259.3267,35.29493494103589,6.5977451598523595,48.494475574763285,13.242919997613798,16.34299999999348
312259.3277,34.57988705127841,7.844918346865822,52.17468491788937,15.106959213203567,16.344000000040978
312259.3287,32.95092230459705,8.831439068856238,54.87345023351734,16.768118220108907,16.345000000030268
312259.3297,30.436925679148104,9.551376554973608,56.488825489439144,18.201960808299372,16.346000000019558
312259.3307,27.120566517350973,10.018990484122153,56.95686310772624,19.395625533866344,16.347000000008848
312259.3317,23.131952064078074,10.264446750702804,56.251140407302834,20.344840617871313,16.347999999998137
312259.3327,18.63905207777755,10.328207256503928,54.380399194831924,21.05019567159105,16.349000000045635
312259.3337,13.83574305051495,10.254726838950496,51.384775336725134,21.513177960324775,16.350000000034925
312259.3347,8.928484872471984,10.086147691190925,47.331175456371916,21.732505674541937,16.351000000024214
312259.3357,4.122717060712674,9.85666976712671,42.30837721870642,21.70125808119959,16.352000000013504
312259.3367,-0.38995851990646063,9.588196141972388,36.42238780276757,21.405215268504733,16.353000000002794
312259.3377,-4.44285222676594,9.28771315289639,29.792497906410496,20.822686842616026,16.353999999992084
312259.3387,-7.902751593833657,8.946680210200366,22.548327160171894,19.925942545487068,16.35500000003958
312259.3397,-10.675458945525522,8.542491738366417,14.827986660133401,18.68417502444602,16.35600000002887
312259.3407,-12.708069210980367,8.04185475996039,6.777303819768146,17.06774448129284,16.35700000001816
312259.3417,-13.988050170012958,7.405721829507229,-1.4501166590878605,15.053295324102686,16.35800000000745
312259.3427,-14.539464382988175,6.595250610076842,-9.692365502079692,12.629213134435279,16.35899999999674
312259.3437,-14.416906352895424,5.578145262633971,-17.77870477887705,9.800819687635522,16.360000000044238
312259.3447,-13.697899314400209,4.3346829024490665,-25.529560414297173,6.594693040119901,16.361000000033528
312259.3457,-12.474588955067981,2.862746426285832,-32.75752622159314,3.0615516917421615,16.362000000022817
312259.3467,-10.845579445426385,1.181272028490496,-39.2697932291466,-0.7227467240969823,16.363000000012107
312259.3477,-8.908681719571472,-0.6683320273023096,-44.87228026522374,-4.658380081994371,16.364000000001397
312259.3487,-6.755194456397592,-2.6230431313536315,-49.375559348283666,-8.625000045868694,16.364999999990687
312259.3497,-4.4661313328691845,-4.6013818042249275,-52.6024594739342,-12.48730915933782,16.366000000038184
312259.3507,-2.1105661307035413,-6.508660608479798,-54.3970155039622,-16.102439679202334,16.367000000027474
312259.3517,0.2539841372632059,-8.243900288091142,-54.63422728970312,-19.32860852571029,16.368000000016764
312259.3527,2.5794522346919533,-9.7078103395448,-53.22992961531939,-22.0343768747131,16.369000000006054
312259.3537,4.823896576092078,-10.811108249120181,-50.149965001627486,-24.107755180633905,16.369999999995343
312259.3547,6.947597330524968,-11.482397430939681,-45.41781306941295,-25.46437495815942,16.37100000004284
312259.3557,8.909265168522435,-11.674845049809015,-39.119869819279344,-26.054001257894534,16.37200000003213
312259.3567,10.663028966968648,-11.370996639713892,-31.407688208381423,-25.86478133837594,16.37300000002142
312259.3577,12.156764661550763,-10.585226553110619,-22.49668044771021,-24.92480569693811,16.37400000001071
312259.3587,13.33215681659279,-9.363536905446189,-12.661027977320437,-23.3007815762902,16.375
312259.3597,14.126666107300812,-7.780662603879982,-2.2248266804622956,-21.09386602641581,16.37599999998929
312259.3607,14.477333742776551,-5.934692704417057,8.45021181231779,-18.432952726632504,16.377000000036787
312259.3617,14.326114531406164,-3.939654140374105,18.97990289353882,-15.46593087174175,16.378000000026077
312259.3627,13.626220260944873,-1.916699656560846,28.974736386412605,-12.349614247415248,16.379000000015367
312259.3637,12.348797798206316,0.015321817967502899,38.05801067182055,-9.239156953244981,16.380000000004657
312259.3647,10.489179789059369,1.7490707863713704,45.883834579891925,-6.27781762079231,16.380999999993946
312259.3657,8.0719406580269,3.196873504026068,52.15386388202425,-3.587901859496337,16.382000000041444
312259.3667,5.154068871060454,4.29709842962576,56.63171344626019,-1.2636058454258288,16.383000000030734
312259.3677,1.8257215149813033,5.018186518969127,59.154142535267674,0.6336876580332171,16.384000000020023
312259.3687,-1.7917555069313142,5.3599872838514715,59.63833588851496,2.0773299596985026,16.385000000009313
312259.3697,-5.55060018773548,5.35230378086266,58.08487782164331,3.074461452545489,16.385999999998603
312259.3707,-9.283985086502591,5.050809870515237,54.57631725190216,3.662372161285019,16.3870000000461
312259.3717,-12.815469670972325,4.530747250707207,49.27152313365381,3.9025739051129946,16.38800000003539
312259.3727,-15.969855352147022,3.8790145590405083,42.39630755428492,3.8731847708474825,16.38900000002468
312259.3737,-18.584583042354566,3.185406748123931,34.23102569560586,3.660363221296995,16.39000000001397
312259.3747,-20.52073034769794,2.533836197735154,25.09603064086355,3.3495957301848986,16.39100000000326
312259.3757,-21.672670583867923,1.9943609271004576,15.335955320728047,3.017633003787496,16.39199999999255
312259.3767,-21.97554944021584,1.6167607832947635,5.3038093896230665,2.725787484683978,16.393000000040047
312259.3777,-21.40990940332556,1.4262481381825483,-4.654181752264891,2.515157754061407,16.394000000029337
312259.3787,-20.00303118122011,1.4216906471104538,-14.212195899393485,2.4041485165289904,16.395000000018626
312259.3797,-17.826843186032672,1.5764804023596934,-23.076270323854843,2.3884274772619993,16.396000000007916
312259.3807,-14.992548303565652,1.841929908277559,-30.993187318748408,2.4432246543534033,16.396999999997206
312259.3817,-11.642403770056125,2.152835120581911,-37.75660604593163,2.527658049196611,16.398000000044703
312259.3827,-7.939338174993733,2.4346422175389653,-43.21047477669985,2.590582989822287,16.399000000033993
312259.3837,-4.055276302681613,2.611506972554901,-47.24994783249336,2.5773280832415093,16.400000000023283
312259.3847,-0.15915050383138252,2.614457206018762,-49.82017977041935,2.43661053613756,16.401000000012573
312259.3857,3.594403159974453,2.388866643554952,-50.913465316082785,2.1269232876461928,16.402000000001863
312259.3867,7.0747359922494235,1.9005220523859123,-50.56523254814005,1.6217548352940123,16.402999999991152
312259.3877,10.182489945735284,1.1397069755029032,-48.849380047748824,0.9131321465880344,16.40400000003865
312259.3887,12.853959197021691,0.12292052635935147,-45.87338280186277,0.013154200844869773,16.40500000002794
312259.3897,15.062224471972042,-1.1079206475106846,-41.773487898954876,-1.0466093403317875,16.40600000001723
312259.3907,16.81506529152791,-2.4887072624684374,-36.710194162083475,-2.217763576129076,16.40700000000652
312259.3917,18.1499416329465,-3.9384683364503346,-30.86407632052071,-3.439482773571401,16.40799999999581
312259.3927,19.126592457699616,-5.366289442042767,-24.431890718533275,-4.644185888391514,16.409000000043306
312259.3937,19.818001267541966,-6.67915318471134,-17.62280088558525,-5.763900929145305,16.410000000032596
312259.3947,20.30061059930399,-7.78995548439374,-10.654499395356332,-6.736661537835629,16.411000000021886
312259.3957,20.644717150415843,-8.624942112041701,-3.748984809176525,-7.512280738641943,16.412000000011176
312259.3967,20.905943659511063,-9.129873220339398,2.8722185337390376,-8.056913731119867,16.413000000000466
312259.3977,21.118567207623418,-9.274352583545774,8.993537648295458,-8.355946902998998,16.413999999989755
312259.3987,21.291298057076368,-9.053939944347352,14.411557000890891,-8.41492124219127,16.415000000037253
312259.3997,21.405866496197568,-8.489881293207374,18.941855192405086,-8.258397915810018,16.416000000026543
312259.4007,21.418509873228004,-7.62652188123894,22.426236289170507,-7.9268820607046315,16.417000000015832
312259.4017,21.26418290910047,-6.5266879186004605,24.739992061805076,-7.472117085596358,16.418000000005122
312259.4027,20.863066341311182,-5.265513860935288,25.798729704398482,-6.951226540520468,16.418999999994412
312259.4037,20.128744554141733,-3.9233346322294365,25.56423802276654,-6.4202975446295545,16.42000000004191
312259.4047,18.977280300538933,-2.5783426142639323,24.04885360684592,-5.928057332238858,16.4210000000312
312259.4057,17.336346071936948,-1.299720432308535,21.31783197172892,-5.51028704679317,16.42200000002049
312259.4067,15.153582132875632,-0.1419019988038577,17.489326093329186,-5.185545313528541,16.42300000000978
312259.4077,12.403438165820486,0.8595076889368611,12.731719410054218,-4.952645551203746,16.42399999999907
312259.4087,9.091909098427399,1.689796290785701,7.25824028969778,-4.790158275070754,16.425000000046566
312259.4097,5.258780032015184,2.3550397940565597,1.3189843020562044,-4.658009975994562,16.426000000035856
312259.4107,0.9772296868375299,2.8798971804015587,-4.809328796652174,-4.5010433348395225,16.427000000025146
312259.4117,-3.649116673659418,3.3035805663155626,-10.835353317995121,-4.254209986538368,16.428000000014435
312259.4127,-8.491368614651794,3.6744566159331864,-16.466212576002423,-3.8489058212551495,16.429000000003725
312259.4137,-13.402282253569606,4.043866563728497,-21.42093213499769,-3.219845640467487,16.429999999993015
312259.4147,-18.224265318740862,4.4598231302836835,-25.44341144771415,-2.3118197651593024,16.431000000040513
312259.4157,-22.797771403593696,4.961246312657951,-28.314154824096956,-1.0856849157600437,16.432000000029802
312259.4167,-26.969382571065815,5.573336627924479,-29.860064407828517,0.4769859951410383,16.433000000019092
312259.4177,-30.598950480693443,6.304560776427466,-29.96173343627033,2.371043071011973,16.434000000008382
312259.4187,-33.56529551462208,7.14555376720505,-28.557855803462086,4.566965767500949,16.43499999999767
312259.4197,-35.77013588449327,8.070040866363867,-25.6465725871596,7.0122191042839885,16.43600000004517
312259.4207,-37.1401153316269,9.037672697472766,-21.283790412873422,9.634640539481376,16.43700000003446
312259.4217,-37.626997741500865,9.998468633066409,-15.578712485742546,12.347549138431557,16.43800000002375
312259.4227,-37.20627894365228,10.898397126395055,-8.687004066448713,15.056110213851323,16.43900000001304
312259.4237,-35.87461164726297,11.68550341210278,-0.8021558280673169,17.664375583686304,16.44000000000233
312259.4247,-33.64653452480278,12.315936728857375,7.854299708569215,20.08236220403204,16.440999999991618
312259.4257,-30.551032118719352,12.759236558896037,17.04302771996458,22.23253501404883,16.442000000039116
312259.4267,-26.62842611350016,13.002309494679743,26.51691710155505,24.055122442261556,16.443000000028405
312259.4277,-21.92801475321655,13.051657989456505,36.030298250503705,25.51180863321135,16.444000000017695
312259.4287,-16.50674603261522,12.933596523383713,45.346877598186474,26.587503594833805,16.445000000006985
312259.4297,-10.429046960328474,12.692392335837969,54.246066239889785,27.290075860594555,16.445999999996275
312259.4307,-3.7677542642419795,12.386476873777807,62.52755006583417,27.648124271028156,16.447000000043772
312259.4317,3.394078625335447,12.083069801028207,70.01412027276857,27.707047786910945,16.448000000033062
312259.4327,10.96086830897982,11.851720426638527,76.55293993495206,27.523827577435814,16.44900000002235
312259.4337,18.822154388132983,11.757385569530339,82.01555002525086,27.16104938544855,16.45000000001164
312259.4347,26.85073927308938,11.853716795447925,86.29700551673196,26.680755815911645,16.45100000000093
312259.4357,34.90182267130643,12.177218150386286,89.31457167074446,26.138722225914844,16.45199999999022
312259.4367,42.813565041458695,12.742858906788886,91.00639981371083,25.579696373336674,16.45300000003772
312259.4377,50.409386450394386,13.54159169479362,91.33054331898543,25.03403650482193,16.45400000002701
312259.4387,57.50213745940475,14.54004758100039,90.2645754141554,24.5160357279962,16.455000000016298
312259.4397,63.90008379969835,15.682473405430644,87.8059421764794,24.024046894821453,16.456000000005588
312259.4407,69.4144464407213,16.894762896065952,83.97304098064589,23.542338982676007,16.456999999994878
312259.4417,73.86805382090795,18.09023240140608,78.80687260230788,23.044441188574467,16.458000000042375
312259.4427,77.10451285884635,19.176623918416684,72.37299000061745,22.497581921245196,16.459000000031665
312259.4437,78.9972060395026,20.063698728245196,64.76337269584829,21.867721350705597,16.460000000020955
312259.4447,79.4573846797599,20.670725977903928,56.09780370054051,21.124618957880717,16.461000000010245
312259.4457,78.4406587538701,20.93317775318984,46.524322953686955,20.24637737563863,16.461999999999534
312259.4467,75.95128023547996,20.80801501230569,36.21837893818463,19.222960845629085,16.462999999988824
312259.4477,72.04377222840225,20.27708033036917,25.380395188324034,18.058295266284706,16.46400000003632
312259.4487,66.82165697736308,19.348291243870598,14.231602335348699,16.770706340146557,16.46500000002561
312259.4497,60.433264505600405,18.054535137612916,3.0081466614042585,15.391627863978858,16.4660000000149
312259.4507,53.064839665765135,16.450383307338402,-8.04634265972484,13.962696161302432,16.46700000000419
312259.4517,44.93138746800855,14.60694732673694,-18.68938033661193,12.531520467239595,16.46799999999348
312259.4527,36.26588439565921,12.605375433841957,-28.688956231197096,11.146565017413614,16.469000000040978
312259.4537,27.307619720918176,10.52961352037575,-37.83297729430157,9.851681553994377,16.470000000030268
312259.4547,18.290502852838088,8.459122181074143,-45.93817161202659,8.680879972397632,16.471000000019558
312259.4557,9.432173542159076,6.462241621411753,-52.857808040736685,7.65391420591379,16.472000000008848
312259.4567,0.9246808736846754,4.590829904852422,-58.487645520265026,6.773190416157375,16.472999999998137
312259.4577,-7.072639479072926,2.8766733837064957,-62.76964155287714,6.022381329050149,16.474000000045635
312259.4587,-14.437650097986367,1.3299934275138356,-65.69311036044398,5.366965755441056,16.475000000034925
312259.4597,-21.087045207014544,-0.059832311447215125,-67.29321415580922,4.756721905731746,16.476000000024214
312259.4607,-26.97516088512214,-1.3214328476560095,-67.64687874759987,4.13000575275209,16.477000000013504
312259.4617,-32.09022606501182,-2.4967967457012272,-66.86642859269273,3.419461028358319,16.478000000002794
312259.4627,-36.4485265117076,-3.6352974212764617,-65.09141774651839,2.5586540179237924,16.478999999992084
312259.4637,-40.08711614634658,-4.787002683414411,-62.47927514107314,1.489019790976051,16.48000000003958
312259.4647,-43.05581197592808,-5.995949677385795,-59.195471949642645,0.16645803570298076,16.48100000002887
312259.4657,-45.40924202357784,-7.294069009152898,-55.403946988037596,-1.4330682048669698,16.48200000001816
312259.4667,-47.199678024599464,-8.696377534800178,-51.258490322534314,-3.3094995036274018,16.48300000000745
312259.4677,-48.47128087159015,-10.19793437740239,-46.89568863896834,-5.436647054163902,16.48399999999674
312259.4687,-49.25622757465132,-11.772881345651319,-42.429887315731065,-7.762415836074177,16.485000000044238
312259.4697,-49.572989596239886,-13.37568389056821,-37.95043727291317,-10.211334534441242,16.486000000033528
312259.4707,-49.42681305927251,-14.944471891230021,-33.52128689203012,-12.689229258894942,16.487000000022817
312259.4717,-48.81223238727565,-16.406171865511926,-29.182769945450012,-15.089676750578095,16.488000000012107
312259.4727,-47.71725095520078,-17.682943729922524,-24.95524901480588,-17.30170277474132,16.489000000001397
312259.4737,-46.12866359027646,-18.699303265279053,-20.844118070128648,-19.218069098653118,16.489999999990687
312259.4747,-44.03789060506461,-19.38923883660099,-16.845562062184605,-20.743429775298395,16.491000000038184
312259.4757,-41.4466505807832,-19.702624874330603,-12.952425080803394,-21.801640778509874,16.492000000027474
312259.4767,-38.371822449075445,-19.610296020519943,-9.159555651901696,-22.341576581809683,16.493000000016764
312259.4777,-34.8489334328752,-19.107269111761067,-5.468075779040708,-22.340937033776722,16.494000000006054
312259.4787,-30.933849160588373,-18.213773811295656,-1.8881511858869593,-21.80770614875139,16.494999999995343
312259.4797,-26.702421914777787,-16.973960348908072,1.559989408364482,-20.7791348543108,16.49600000004284
312259.4807,-22.248055126407703,-15.452374775379358,4.846845341000141,-19.31834283230484,16.49700000003213
312259.4817,-17.67734761160978,-13.728507206842115,7.936108727669504,-17.508849555088187,16.49800000002142
312259.4827,-13.104170334071021,-11.889906075808616,10.788486431545,-15.44753128980806,16.49900000001071
312259.4837,-8.64268403788579,-10.024493281848244,13.366417137481436,-13.236641617285066,16.5
312259.4847,-4.399913613655828,-8.212797466103577,15.639124086245856,-10.975614537787731,16.50099999998929
312259.4857,-0.4685447925480068,-6.520837152185525,17.587404675487658,-8.753383721391225,16.502000000036787
312259.4867,3.07940361066855,-4.994330372124028,19.207580504739777,-6.641897455806325,16.503000000026077
312259.4877,6.197451709498835,-3.654787456894343,20.51411315519342,-4.691391426372006,16.504000000015367
312259.4887,8.867621234429922,-2.497869983311451,21.540523773706358,-2.927811792975475,16.505000000004657
312259.4897,11.10120354692556,-1.4941877220322417,22.338425022337315,-1.3525753197998533,16.505999999993946
312259.4907,12.937241677555166,-0.5924768089111885,22.974665066751964,0.05536870454948423,16.507000000041444
312259.4917,14.438836853241778,0.2751219555824319,23.526775883597477,1.3354269941460726,16.508000000030734
312259.4927,15.687580722367663,1.1861642993117956,24.077093020388478,2.5396445051793948,16.509000000020023
312259.4937,16.776576594319078,2.2200164023674533,24.706053590040856,3.725970323086572,16.510000000009313
312259.4947,17.80263164616942,3.449708627416074,25.48526980537376,4.951185348831098,16.510999999998603
312259.4957,18.8582665532273,4.934281024308675,26.4710077444436,6.264191318865215,16.5120000000461
312259.4967,20.02419389831523,6.712325998256673,27.698672066460944,7.700313431658375,16.51300000003539
312259.4977,21.36286224653524,8.797319879072633,29.178809951521274,9.277157906236328,16.51400000002468
312259.4987,22.913554877697432,11.175165336875011,30.895010297744346,10.992402426924027,16.51500000001397
312259.4997,24.689381925384588,13.804157093559777,32.803900785004856,12.823698100061034,16.51600000000326
312259.5007,26.676327226465087,16.617354535960402,34.83725297540748,14.730646308752116,16.51699999999255
312259.5017,28.834324267768928,19.527118938915933,36.90601318015792,16.65860433101954,16.518000000040047
312259.5027,31.100157774336775,22.43137208960154,38.905903333296166,18.54389083260225,16.519000000029337
312259.5037,33.39183620056253,25.220976757573915,40.72409856833203,20.319824701121817,16.520000000018626
312259.5047,35.61397028055278,27.78754285789212,42.24639992271224,21.922951931488782,16.521000000007916
312259.5057,37.66363408289579,30.030935540575182,43.36428991984452,23.298803209804078,16.521999999997206
312259.5067,39.436182410826426,31.86580514573179,43.98128817604281,24.406580505136677,16.523000000044703
312259.5077,40.83055057466132,33.226569175583904,44.01811003277897,25.222288505416603,16.524000000033993
312259.5087,41.75366231562626,34.07044166067277,43.41626418548937,25.739993966941412,16.525000000023283
312259.5097,42.1237066271676,34.37830853220213,42.139891277030905,25.97109577089011,16.526000000012573
312259.5107,41.872198283950695,34.153468072396855,40.17582706204502,25.941700183041235,16.527000000001863
312259.5117,40.94489196371034,33.41847076718585,37.53205215546315,25.688397784290427,16.527999999991152
312259.5127,39.301757905043424,32.21048114364803,34.23484714944649,25.25291008354623,16.52900000003865
312259.5137,36.9163321365875,30.575726516664787,30.325090977103073,24.67619735693158,16.53000000002794
312259.5147,33.77481435097599,28.563679848056598,25.854209775103907,23.99268207218385,16.53100000001723
312259.5157,29.87529458939501,26.221638169297897,20.88029630936905,23.225237786449377,16.53200000000652
312259.5167,25.227445107639124,23.590303207567835,15.46487529645272,22.381521849102562,16.53299999999581
312259.5177,19.852921213158563,20.700852944971267,9.670692614981656,21.452098515054598,16.534000000043306
312259.5187,13.78658507878435,17.57382412679982,3.56076678446859,20.410620093381862,16.535000000032596
312259.5197,7.078514482594691,14.219923566070586,-2.801226133436172,19.216125133176536,16.536000000021886
312259.5207,-0.2033982130182154,10.642671108214365,-9.349340315810355,17.817294943294495,16.537000000011176
312259.5217,-7.970594153105129,6.842571185477711,-16.012795296695604,16.158304442695062,16.538000000000466
312259.5227,-16.111191528285563,2.8223339302860198,-22.712874819387405,14.185730765313627,16.538999999989755
312259.5237,-24.488037798639855,-1.4074612322371478,-29.359805069263246,11.855860389421398,16.540000000037253
312259.5247,-32.9379923365263,-5.822933521376431,-35.85017299144149,9.141675236290668,16.541000000026543
312259.5257,-41.27290880334274,-10.382372876548708,-42.06542975977633,6.0388066314713456,16.542000000015832
312259.5267,-49.28267494445956,-15.023218531380293,-47.87194757241525,2.569823114181815,16.543000000005122
312259.5277,-56.74050459590556,-19.661013559537285,-53.1229653936723,-1.2136428710531801,16.543999999994412
312259.5287,-63.41047615001279,-24.190621690768197,-57.66258239524795,-5.231235968609846,16.54500000004191
312259.5297,-69.0570916064189,-28.489776536896297,-61.33175283363443,-9.376772746804939,16.5460000000312
312259.5307,-73.45641154913906,-32.42480483603443,-63.97602244852197,-13.523544525586452,16.54700000002049
312259.5317,-76.40812569948467,-35.858146371090356,-65.45454520884611,-17.531660349808167,16.54800000000978
312259.5327,-77.74776658353707,-38.657105042820106,-65.6497508691255,-21.256871000061594,16.54899999999907
312259.5337,-77.35818246571598,-40.70312659135814,-64.47691624453381,-24.560172334948483,16.550000000046566
312259.5347,-75.17936703811512,-41.90082252182327,-61.892839843250435,-27.317405754988197,16.551000000035856
312259.5357,-71.21580292974586,-42.18595486038385,-57.90283808144338,-29.428062843399086,16.552000000025146
312259.5367,-65.54061218774751,-41.53166372569199,-52.565372517047024,-30.822561466438486,16.553000000014435
312259.5377,-58.2960104818551,-39.952353793918654,-45.993775101608925,-31.46738640551664,16.554000000003725
312259.5387,-49.68981728975625,-37.504844684054696,-38.35474953400598,-31.36766746024508,16.554999999993015
312259.5397,-39.98806087586913,-34.28661700068476,-29.863573177276272,-30.56698542284148,16.556000000040513
312259.5407,-29.504010259311105,-30.431229554574458,-20.776183777444977,-29.144431457997737,16.557000000029802
312259.5417,-18.58424124723903,-26.101221816009723,-11.378584970750621,-27.20917675199155,16.558000000019092
312259.5427,-7.592575926984582,-21.47902711193031,-1.9742216093335707,-24.893015817353003,16.559000000008382
312259.5437,3.1070957532034695,-16.75658719096008,7.129859425084309,-22.34151000122775,16.55999999999767
312259.5447,13.16801257023815,-12.124462674787077,15.637149834397025,-19.704463177205504,16.56100000004517
312259.5457,22.276652198598082,-7.761267498014943,23.27518720253178,-17.126500442368716,16.56200000003446
312259.5467,30.166732359473027,-3.8242162341372996,29.807549824875053,-14.738490335146103,16.56300000002375
312259.5477,36.630241993777766,-0.44146553800332067,35.04358711617088,-12.650455559574308,16.56400000001304
312259.5487,41.52486877614178,2.293234534677987,38.845320342199926,-10.946466414690766,16.56500000000233
312259.5497,44.77746248279048,4.3232709189466165,41.13117724483205,-9.681820079218646,16.565999999991618
312259.5507,46.383469382944895,5.629200835748544,41.87647416921717,-8.882596130798715,16.567000000039116
312259.5517,46.402565854889616,6.226239618191909,41.11080810951575,-8.547464463459425,16.568000000028405
312259.5527,44.950985395776094,6.159564782094661,38.912746792847585,-8.651426172447058,16.569000000017695
312259.5537,42.19125047908871,5.497968851292517,35.40238823437834,-9.151008948639085,16.570000000006985
312259.5547,38.320172394567386,4.326510019905874,30.7324871586269,-9.990330210877024,16.570999999996275
312259.5557,33.556057485758956,2.7388625061510488,25.078904965950795,-11.107392647347437,16.572000000043772
312259.5567,28.126053263116358,0.8300540556643844,18.631129604056817,-12.439991179702856,16.573000000033062
312259.5577,22.25448609617035,-1.3098004320173673,11.583535424372105,-13.930684621941237,16.57400000002235
312259.5587,16.152893725782462,-3.6002935855270057,4.1279206203628185,-15.53041073159462,16.57500000001164
312259.5597,10.01225657136732,-5.973746999324334,-3.5523139878572105,-17.2004863436798,16.57600000000093
312259.5607,3.9977018155146324,-8.376354471291794,-11.286177789805105,-18.912917761510766,16.57699999999022
312259.5617,-1.7542841143911727,-10.767541298624439,-18.917327218982926,-20.649131702545766,16.57800000003772
312259.5627,-7.1363232591693055,-13.117815782136564,-26.304741049766463,-22.397405105715833,16.57900000002701
312259.5637,-12.068672116614879,-15.405535705788717,-33.322195558449515,-24.149406189103175,16.580000000016298
312259.5647,-16.49632206308904,-17.61310969847253,-39.856998814633165,-25.896346095807928,16.581000000005588
312259.5657,-20.385265765082707,-19.72319199556035,-45.80848348130501,-27.625271974180972,16.581999999994878
312259.5667,-23.718529057354175,-21.715406179937947,-51.08673723790961,-29.3160058102314,16.583000000042375
312259.5677,-26.49251025609701,-23.56405229712726,-55.611972942119856,-30.939152121073338,16.584000000031665
312259.5687,-28.714054581670766,-25.237121576319,-59.314816405421254,-32.455470681947595,16.585000000020955
312259.5697,-30.398534598316232,-26.69677813202148,-62.13763252185543,-33.8167514271056,16.586000000010245
312259.5707,-31.56902684006268,-27.901285300776635,-64.03683818080758,-34.96815445379014,16.586999999999534
312259.5717,-32.25649087198093,-28.808175233397563,-64.98598219916062,-35.8518071436969,16.587999999988824
312259.5727,-32.50069087332015,-29.378303275480622,-64.9792273091567,-36.411300941658084,16.58900000003632
312259.5737,-32.351470353142446,-29.580310517651593,-64.03476359588505,-36.596618251379724,16.59000000002561
312259.5747,-31.86991277310482,-29.394951651307682,-62.197629240443966,-36.36895734919815,16.5910000000149
312259.5757,-31.12890406141882,-28.818738531191766,-59.54142023837524,-35.704917225440504,16.59200000000419
312259.5767,-30.212660098745495,-27.86640406749984,-56.16843710854724,-34.59955606890466,16.59299999999348
312259.5777,-29.214889167584687,-26.571801358265596,-52.207938430636176,-33.067941979424965,16.594000000040978
312259.5787,-28.23541544506153,-24.987008573498375,-47.81233750058613,-31.144962185963188,16.595000000030268
312259.5797,-27.375278709899792,-23.179595458094866,-43.15137383486613,-28.88333282922105,16.596000000019558
312259.5807,-26.730527412800075,-21.228203614464253,-38.40449673259301,-26.349937477169913,16.597000000008848
312259.5817,-26.385115086136057,-19.216779757993915,-33.75189315430195,-23.620799961765282,16.597999999998137
312259.5827,-26.403472015569246,-17.22795934411746,-29.364756787172322,-20.775147481808006,16.599000000045635
312259.5837,-26.823435980767304,-15.336210380495565,-25.395511735045584,-17.88912732208332,16.600000000034925
312259.5847,-27.650273073251068,-13.601401217912612,-21.968759355909782,-15.029793193537476,16.601000000024214
312259.5857,-28.852493647438823,-12.063444643474476,-19.173702485531813,-12.24996860523355,16.602000000013504
312259.5867,-30.36006804730584,-10.73859306012623,-17.05871620515906,-9.584524341474946,16.603000000002794
312259.5877,-32.06547804253736,-9.617821854998246,-15.6285837658015,-7.048480670580657,16.603999999992084
312259.5887,-33.82781612948839,-8.667552226146915,-14.844712031462858,-4.637173650482107,16.60500000003958
312259.5897,-35.479885165922354,-7.832747728403478,-14.628400080680832,-2.3285247576433634,16.60600000002887
312259.5907,-36.837978589685314,-7.042191000985601,-14.866978609581858,-0.08724314793936992,16.60700000001816
312259.5917,-37.71376214004701,-6.215530426051876,-15.422389756044753,2.1294093871945368,16.60800000000745
312259.5927,-37.927456612468156,-5.271502105469267,-16.14156004030722,4.364829440332773,16.60899999999674
312259.5937,-37.32136000634866,-4.136599127842284,-16.867754095410397,6.655918592927078,16.610000000044238
312259.5947,-35.77266376386188,-2.7533917145267837,-17.452000186650736,9.026285353797611,16.611000000033528
312259.5957,-33.204522195333176,-1.0877066247849003,-17.763660617286124,11.480514137058709,16.612000000022817
312259.5967,-29.59442929178765,0.8660465177333639,-17.699284267219724,14.000135822818354,16.613000000012107
312259.5977,-24.97913725780769,3.0819662984532075,-17.189020380128735,16.54179387431122,16.614000000001397
312259.5987,-19.455602599260203,5.502527955301299,-16.20008061324316,19.037907938666688,16.614999999990687
312259.5997,-13.177747950528095,8.041346447528559,-14.73699221441076,21.399910438243072,16.616000000038184
312259.6007,-6.3491554357347955,10.588692244516734,-12.838666133717114,23.52389157589783,16.617000000027474
312259.6017,0.7878681144386948,13.019366150461531,-10.572584379226,25.298256808377182,16.618000000016764
312259.6027,7.966120796415973,15.202318570517857,-8.026665195899216,26.612800100925536,16.619000000006054
312259.6037,14.909261327592153,17.01122947079727,-5.299569113512168,27.36844549923866,16.619999999995343
312259.6047,21.348364892424602,18.33516414723421,-2.4903445242891653,27.486823614521867,16.62100000004284
312259.6057,27.038088377925035,19.088396823892175,0.311634443324932,26.918837456093517,16.62200000003213
312259.6067,31.77128718805502,19.218551842015536,3.0355174159655065,25.651435778928125,16.62300000002142
312259.6077,35.3910532862514,18.712346035793548,5.635810165564586,23.711946793220417,16.62400000001071
312259.6087,37.79935430103991,17.598413982419487,8.09657387760486,21.169519148470265,16.625
312259.6097,38.96172736135526,15.946942357884325,10.43261872666684,18.133453468103042,16.62599999998929
312259.6107,38.90779429688621,13.866108553852351,12.687595100080394,14.748465370474028,16.627000000036787
312259.6117,37.72768936192641,11.495587773293924,14.929168826332374,11.187176927573352,16.628000000026077
312259.6127,35.564798659556466,8.997637897615103,17.241731096523793,7.640365146497361,16.629000000015367
312259.6137,32.605476002805766,6.546470745606891,19.717315568943217,4.305682878273384,16.630000000004657
312259.6147,29.06660152646357,4.316754529868805,22.44555466716269,1.375693298069279,16.630999999993946
312259.6157,25.181971718581373,2.4721538960567164,25.503590406602903,-0.9738868882294304,16.632000000041444
312259.6167,21.188544950243966,1.154796364502809,28.946855326721334,-2.594862193449198,16.633000000030734
312259.6177,17.313515341533044,0.476460000613147,32.801556951556286,-3.375372717335883,16.634000000020023
312259.6187,13.763057978166815,0.5121163512418905,37.05954276990272,-3.2462287238030574,16.635000000009313
312259.6197,10.71339496503354,1.2962506604672506,41.67600677317257,-2.184354128171735,16.635999999998603
312259.6207,8.304594689091255,2.8221380907756015,46.57024312575675,-0.21316597254375627,16.6370000000461
312259.6217,6.637259308538648,5.044002595378262,51.62938100381735,2.600035689539821,16.63800000003539
312259.6227,5.772002190435831,7.881747070339914,56.71477175439622,6.149358499146476,16.63900000002468
312259.6237,5.731390752901035,11.227740584041205,61.670469089884136,10.297778472943486,16.64000000001397
312259.6247,6.503850459114703,14.954998300719007,66.33306574879404,14.886108268922786,16.64100000000326
312259.6257,8.048906926644715,18.926004436767112,70.54204166542864,19.74272080813123,16.64199999999255
312259.6267,10.303093278220087,23.001414208521542,74.14974854239895,24.693254419721022,16.643000000040047
312259.6277,13.185870086726483,27.04792653908359,77.03020589002868,29.569572329380964,16.644000000029337
312259.6287,16.604989877940834,30.944738055466,79.08600868914232,34.217358052288375,16.645000000018626
312259.6297,20.460875411068304,34.58815764871042,80.25283445286065,38.501887361582625,16.646000000007916
312259.6307,24.64975435166398,37.89416217048436,80.50126934779972,42.311710845598284,16.646999999997206
312259.6317,29.06548291615633,40.798887540803904,79.8359267636498,45.56018961888141,16.648000000044703
312259.6327,33.600176941927394,43.25725468207916,78.2920828402881,48.1850303976841,16.649000000033993
312259.6337,38.14393091255033,45.24010651280152,75.93027785402249,50.146145579875345,16.650000000023283
312259.6347,42.5840269135093,46.730364043876605,72.82950861096407,51.42230250685533,16.651000000012573
312259.6357,46.804103986878715,47.71878438851684,69.07974850960542,52.00711127929346,16.652000000001863
312259.6367,50.683767254350876,48.199914968116204,64.77456862653167,51.90492531046565,16.652999999991152
312259.6377,54.09906513425189,48.168786460755285,60.004592465224874,51.12719227218656,16.65400000003865
312259.6387,56.924157898495274,47.618778475500456,54.85240404738203,49.68970041097209,16.65500000002794
312259.6397,59.0343532174366,46.54093854564336,49.389356152845274,47.611027186065456,16.65600000001723
312259.6407,60.310510141672616,44.92485321959043,43.674510925796476,44.912329105815644,16.65700000000652
312259.6417,60.64463084725157,42.76097893890866,37.755710917683906,41.618431747930046,16.65799999999581
312259.6427,59.946288960355,40.0441600030148,31.672548759256806,37.76000654370087,16.659000000043306
312259.6437,58.149402803101246,36.777910024947765,25.46080112257144,33.37647438045058,16.660000000032596
312259.6447,55.21876693084529,32.97892761778733,19.15773747204072,28.51917103471735,16.661000000021886
312259.6457,51.1557168332384,28.681267716786735,12.807621324022358,23.254257110973274,16.662000000011176
312259.6467,46.00232502859808,23.939602294637112,6.466699917024082,17.6648612177644,16.663000000000466
312259.6477,39.843611247568894,18.831077347311663,0.2070287283375254,11.852009150883998,16.663999999989755
312259.6487,32.80738815944986,13.45539981906686,-5.881405676650122,5.934007403621244,16.665000000037253
312259.6497,25.061544897856045,7.932956041504472,-11.69062978170265,0.044104538615043286,16.666000000026543
312259.6507,16.808776990091356,2.4009555331543098,-17.096851809658986,-5.6735671699541195,16.667000000015832
312259.6517,8.278984013774174,-2.9922086164144113,-21.96478919222325,-11.069583390676984,16.668000000005122
312259.6527,-0.28024459944427366,-8.094008904155894,-26.153872345108176,-15.995996187032262,16.668999999994412
312259.6537,-8.614468595320744,-12.755718735043784,-29.52585345295988,-20.313784406854516,16.67000000004191
312259.6547,-16.47385555941366,-16.84060932858325,-31.95320619532367,-23.900399051927963,16.6710000000312
312259.6557,-23.62449561608756,-20.231741113491253,-33.32761895772401,-26.65678072799398,16.67200000002049
312259.6567,-29.85881570341676,-22.838703250060405,-33.567867342390876,-28.513250699958252,16.67300000000978
312259.6577,-35.004409116009796,-24.602737224117657,-32.626402321387054,-29.433759984530944,16.67399999999907
312259.6587,-38.930726485557244,-25.49981656539175,-30.4941021654643,-29.41811452643221,16.675000000046566
312259.6597,-41.553250946876304,-25.54143160218659,-27.202797478462056,-28.501965959020964,16.676000000035856
312259.6607,-42.83498636702321,-24.773028738143896,-22.825372854494017,-26.754550106128438,16.677000000025146
312259.6617,-42.785303955230944,-23.27025870669009,-17.473456603470314,-24.274350512993497,16.678000000014435
312259.6627,-41.45639927181855,-21.133377934426164,-11.292911532684217,-21.183042972387575,16.679000000003725
312259.6637,-38.937789701186226,-18.480303399800857,-4.457515913640966,-17.61822199466701,16.679999999993015
312259.6647,-35.349415882374444,-15.438929411070323,2.838641575948873,-13.72550760124228,16.681000000040513
312259.6657,-30.833987887243055,-12.139364506363878,10.389447626612911,-9.650671576222347,16.682000000029802
312259.6667,-25.54923209691374,-8.70673386373471,17.985103329708696,-5.532402864224349,16.683000000019092
312259.6677,-19.66064777649918,-5.255118962636571,25.41992654587809,-1.496254529124411,16.684000000008382
312259.6687,-13.33527928548319,-1.8830794195003395,32.49911940879505,2.3498124075202296,16.68499999999767
312259.6697,-6.736862045131476,1.3289652806198036,39.04413798304095,5.9180370341412445,16.68600000004517
312259.6707,-0.022523419809710815,4.319407349555463,44.896465035381674,9.141552070815761,16.68700000003446
312259.6717,6.65896810322069,7.044284459736605,49.919762142323485,11.973283530963824,16.68800000002375
312259.6727,13.167591327154028,9.474565770227624,54.00054563276804,14.383348294693848,16.68900000001304
312259.6737,19.371436634010326,11.592329027791948,57.04767473075127,16.35537961721504,16.69000000000233
312259.6747,25.14549426866357,13.38636923714674,58.991044920149804,17.882302517186265,16.690999999991618
312259.6757,30.370370655780608,14.84782402023316,59.77993432585422,18.962117692786947,16.692000000039116
312259.6767,34.93143287836312,15.966384030115831,59.38145036059066,19.594230699848932,16.693000000028405
312259.6777,38.718817926255824,16.727580442527763,57.77946843942689,19.776785039660272,16.694000000017695
312259.6787,41.62862656689169,17.111513374768652,54.9743505031557,19.505331607983877,16.695000000006985
312259.6797,43.565463661963605,17.093218060401803,50.98358999419043,18.773005561881064,16.695999999996275
312259.6807,44.446303852270006,16.64467668242845,45.84336751613287,17.57220156693354,16.697000000043772
312259.6817,44.20547297646133,15.738292175718794,39.61083594923264,15.897558063951662,16.698000000033062
312259.6827,42.80036148855451,14.351465680824344,32.3668042108214,13.749899255377638,16.69900000002235
312259.6837,40.2173454605226,12.471779732243972,24.218372726946267,11.140656864087658,16.70000000001164
312259.6847,36.47729938200715,10.102199387653338,15.301005385449452,8.096215863801431,16.70100000000093
312259.6857,31.640054051239495,7.2656731829060925,5.779511852341409,4.661608045763066,16.70199999999022
312259.6867,25.807187629226597,4.008548987270245,-4.15253564112916,0.9030175048713085,16.70300000003772
312259.6877,19.122637131480978,0.40231417388721624,-14.275318253941135,-3.0913401159136327,16.70400000002701
312259.6887,11.77077352166616,-3.456683485136832,-24.347428181856113,-7.212256321790409,16.705000000016298
312259.6897,3.9717826394372437,-7.449691985027322,-34.112683374128615,-11.332596764379796,16.706000000005588
312259.6907,-4.025581571630763,-11.440139350551165,-43.308904159581964,-15.312308203854561,16.706999999994878
312259.6917,-11.953576454109355,-15.280089473321725,-51.678249712346684,-19.005080528921372,16.708000000042375
312259.6927,-19.5368760971932,-18.818125083523007,-58.97852983839572,-22.2662040484883,16.709000000031665
312259.6937,-26.505122174834973,-21.908063835201975,-64.99476854317042,-24.961026747568397,16.710000000020955
312259.6947,-32.605819461940975,-24.41781733828784,-69.55021543133596,-26.973334045318207,16.711000000010245
312259.6957,-37.6167212616708,-26.23767021770914,-72.5159890238109,-28.212953721443977,16.711999999999534
312259.6967,-41.35686746535307,-27.287290725093502,-73.81859598790543,-28.62193398489581,16.712999999988824
312259.6977,-43.69552589017703,-27.520883316925236,-73.4446986774182,-28.178749691278156,16.71400000003632
312259.6987,-44.55843816054852,-26.930047883099792,-71.44269031346356,-26.900150970677593,16.71500000002561
312259.6997,-43.930971138465466,-25.54410547813744,-67.92086696880884,-24.840465364682533,16.7160000000149
312259.7007,-41.85800570089832,-23.42786799692999,-63.04223838895335,-22.088380632791655,16.71700000000419
312259.7017,-38.44063574338822,-20.677048603551537,-57.01627337919317,-18.761450392809614,16.71799999999348
312259.7027,-33.8299802343546,-17.41171009318975,-50.08810755322344,-14.998758484207357,16.719000000040978
312259.7037,-28.218609950023612,-13.768310890097586,-42.52593112369911,-10.952332196828507,16.720000000030268
312259.7047,-21.830241512181402,-9.891017971652213,-34.607405440231354,-6.7779948999061475,16.721000000019558
312259.7057,-14.908442734072876,-5.92300280405388,-26.60601793560977,-2.626385939659887,16.722000000008848
312259.7067,-7.705119165501678,-1.9984166890248938,-18.77827134038662,1.3651531828795975,16.722999999998137
312259.7077,-0.46951255536365866,1.7643414550119296,-11.352516710918758,5.07921917209984,16.724000000045635
312259.7087,6.561655736424789,5.267589976767744,-4.520089867098443,8.423052234711479,16.725000000034925
312259.7097,13.172407714666797,8.437265855879003,1.5707881739307634,11.331029737693994,16.726000000024214
312259.7107,19.17378470428564,11.223667749367443,6.818115484814883,13.76487814952368,16.727000000013504
312259.7117,24.408050925053132,13.60015010268956,11.16622546688037,15.711741279176692,16.728000000002794
312259.7127,28.750881619650684,15.560064816868737,14.603148666557395,17.18043267300389,16.728999999992084
312259.7137,32.11175204210796,17.112399120478205,17.15564852566518,18.19635375388767,16.73000000003958
312259.7147,34.43286591760882,18.27666133951088,18.882506540505908,18.795662711853684,16.73100000002887
312259.7157,35.68703739272939,19.07761110862623,19.866720873820174,19.019323159634535,16.73200000001816
312259.7167,35.87496434557756,19.54041406382237,20.207307451935343,18.907642945058537,16.73300000000745
312259.7177,35.0223040375664,19.68672620388738,20.011355165570137,18.49583524482172,16.73399999999674
312259.7187,33.17689053184688,19.532088702904463,19.38689406100595,17.81100497411645,16.735000000044238
312259.7197,30.406327648020508,19.08485364112623,18.43699947662697,16.870797378833576,16.736000000033528
312259.7207,26.796065354441986,18.34668196404727,17.255391754712146,15.683759695510226,16.737000000022817
312259.7217,22.447937117939674,17.314475723117393,15.923618255847552,14.251280007860155,16.738000000012107
312259.7227,17.479016683053505,15.983445817056895,14.509739905989141,12.570798803314526,16.739000000001397
312259.7237,12.020559367660047,14.350890478478522,13.068304741837567,10.639855128100551,16.739999999990687
312259.7247,6.216736552099005,12.420181355901036,11.641288944664884,8.460443857126402,16.741000000038184
312259.7257,0.22285972209688718,10.204430973811089,10.25963019871742,6.04313165403819,16.742000000027474
312259.7267,-5.797175619812755,7.729349640797878,8.944972125351773,3.4104091381156745,16.743000000016764
312259.7277,-11.67441862881905,5.034887653464634,7.711279789815264,0.5988420450311145,16.744000000006054
312259.7287,-17.239444196296695,2.175390573029487,6.566067502421922,-2.340284396813625,16.744999999995343
312259.7297,-22.32793016059645,-0.7818424175329154,5.511089772834737,-5.3419698874178,16.74600000004284
312259.7307,-26.787029661396073,-3.7595314855994486,4.542469865042015,-8.330115285043874,16.74700000003213
312259.7317,-30.48220050274869,-6.674684261407248,3.6503621916371753,-11.221538037196238,16.74800000002142
312259.7327,-33.30403974318354,-9.443775157467705,2.8183494571875176,-13.93102022668276,16.74900000001071
312259.7337,-35.174595612112476,-11.988342675319682,2.0228497729959307,-16.37690635354145,16.75
312259.7347,-36.052600925837616,-14.240452415919677,1.2328431912571625,-18.486701568713695,16.75099999998929
312259.7357,-35.93709858526477,-16.147471392877417,0.4102160867994923,-20.202111676246172,16.752000000036787
312259.7367,-34.86901134962039,-17.67565506219531,-0.4890344529594884,-21.48301512554092,16.753000000026077
312259.7377,-32.93034023093829,-18.81215733318297,-1.512590372526709,-22.309959752193116,16.754000000015367
312259.7387,-30.240848609209557,-19.5652253785728,-2.7085770612709954,-22.684923003989407,16.755000000004657
312259.7397,-26.95228810976551,-19.962520523914137,-4.121425735555941,-22.630249103195403,16.755999999993946
312259.7407,-23.24042975782517,-20.04769604200874,-5.787100129614831,-22.185862294014157,16.757000000041444
312259.7417,-19.29536064775355,-19.875543191868577,-7.728080296707501,-21.405032980684673,16.758000000030734
312259.7427,-15.310673254038107,-19.50616980436438,-9.94859037459048,-20.34912479692813,16.759000000020023
312259.7437,-11.472294559249416,-18.998785056941063,-12.430605700779982,-19.081859587913698,16.760000000009313
312259.7447,-7.947762184809074,-18.405717808360606,-15.131168763057998,-17.663692189425163,16.760999999998603
312259.7457,-4.876746720664997,-17.767287331296362,-17.981479532654575,-16.146881368184776,16.7620000000461
312259.7467,-2.363541685688038,-17.108073925828958,-20.88810605412854,-14.571777008482533,16.76300000003539
312259.7477,-0.47209979991154527,-16.43500841484584,-23.736493998928797,-12.96472241266626,16.76400000002468
312259.7487,0.7760024006948217,-15.73752541210588,-26.396752839443447,-11.33780588463134,16.76500000001397
312259.7497,1.4005236378814232,-14.989821788381242,-28.731479207894676,-9.69050359946803,16.76600000000326
312259.7507,1.458543724908965,-14.155048466394213,-30.605165326614685,-8.013055147874393,16.76699999999255
312259.7517,1.037824763761152,-13.191061459321022,-31.89455326202404,-6.291224240412132,16.768000000040047
312259.7527,0.24811392309805752,-12.057187181096005,-32.49915387950525,-4.511939167281258,16.769000000029337
312259.7537,-0.788876444558734,-10.72133508358535,-32.351069045247435,-2.6691972496046077,16.770000000018626
312259.7547,-1.9499700304457934,-9.166730754485554,-31.423247948901732,-0.7695667433815471,16.771000000007916
312259.7557,-3.1206363138047273,-7.397552065558274,-29.73537807492493,1.163365185667709,16.771999999997206
312259.7567,-4.2038816906511025,-5.442830489279119,-27.3567558753857,3.086168766447296,16.773000000044703
312259.7577,-5.127213645824038,-3.3581231956744206,-24.405692021654534,4.934802183010588,16.774000000033993
312259.7587,-5.847150465043106,-1.2246565841177708,-21.045265251272347,6.626139097743215,16.775000000023283
312259.7597,-6.350974924798384,0.8541291036390062,-17.475526216104196,8.061818878743432,16.776000000012573
312259.7607,-6.655680237030004,2.7584626406534003,-13.922544086150848,9.134218947279036,16.777000000001863
312259.7617,-6.804306865650186,4.360148742719577,-10.624958634200096,9.734134493366959,16.777999999991152
312259.7627,-6.860096375625523,5.53189557614781,-7.8189250562341455,9.759569429731382,16.77900000003865
312259.7637,-6.899072302012582,6.157310349901625,-5.722497307006187,9.124911621233505,16.78000000002794
312259.7647,-7.001781619089292,6.140727161471034,-4.520573114268392,7.7696983000369855,16.78100000001723
312259.7657,-7.244983203398143,5.416022122176003,-4.351511823063835,5.6661814524777965,16.78200000000652
312259.7667,-7.694048098454151,3.953637465901484,-5.296434270135449,2.8249785628889197,16.78299999999581
312259.7677,-8.39674395602393,1.7651734175321563,-7.372029299667818,-0.7017645150006142,16.784000000043306
312259.7687,-9.378923010527222,-1.0948979146929811,-10.52743886452964,-4.820076668208091,16.785000000032596
312259.7697,-10.642435194185918,-4.530605853631832,-14.645493470324377,-9.396876919562029,16.786000000021886
312259.7707,-12.16536533582744,-8.408894563691845,-19.548246756462902,-14.265600391285446,16.787000000011176
312259.7717,-13.904467604768833,-12.566776245286386,-25.006438999381864,-19.23439089392545,16.788000000000466
312259.7727,-15.79946313127925,-16.820696371940436,-30.75223061074034,-24.096301286794862,16.788999999989755
312259.7737,-17.778697544612545,-20.97740176424849,-36.494311917483344,-28.640774234151817,16.790000000037253
312259.7747,-19.765539528199277,-24.84548270139028,-41.93433350446263,-32.665568736047305,16.791000000026543
312259.7757,-21.68484953893513,-28.24671273276808,-46.783524635231004,-35.98826120152675,16.792000000015832
312259.7767,-23.46886346917794,-31.026337939689217,-50.778380781122834,-38.456486844181825,16.793000000005122
312259.7777,-25.061916606873528,-33.0615677908961,-53.69440233473405,-39.95619418264355,16.793999999994412
312259.7787,-26.423569907510668,-34.26768258958882,-55.35704495366154,-40.417352515353585,16.79500000004191
312259.7797,-27.52987912431561,-34.60138240851696,-55.6492809880429,-39.81676415392566,16.7960000000312
312259.7807,-28.37274957460152,-34.06123983565768,-54.515449473272064,-38.17787074993886,16.79700000002049
312259.7817,-28.957524854183994,-32.68536201896272,-51.96136463971749,-35.567684881425066,16.79800000000978
312259.7827,-29.299145995486096,-30.546594382498174,-48.050934489419376,-32.091202634981244,16.79899999999907
312259.7837,-29.417369488455037,-27.745788775817257,-42.899787936344644,-27.883840487655746,16.800000000046566
312259.7847,-29.3316329246962,-24.403796178101032,-36.66660117632828,-23.102574245055546,16.801000000035856
312259.7857,-29.05619556193794,-20.652917063865452,-29.542936643740223,-17.91652812146581,16.802000000025146
312259.7867,-28.596153742997235,-16.62854601326521,-21.74245310662577,-12.49776335562609,16.803000000014435
312259.7877,-27.944840310291763,-12.461682619643184,-13.490312450960896,-7.012949674981088,16.804000000003725
312259.7887,-27.082971764343768,-8.272856142645773,-5.013504074786432,-1.6164774173126004,16.804999999993015
312259.7897,-25.979721282956913,-4.167840218028402,3.4673553442256275,3.5546033143447215,16.806000000040513
312259.7907,-24.595688351433814,-0.23533405613469252,11.74439233798114,8.383629763448855,16.807000000029802
312259.7917,-22.887527494011135,3.453421783354434,19.626885005224302,12.77538097984178,16.808000000019092
312259.7927,-20.813810562980052,6.843322997708961,26.943794550607127,16.655355987245304,16.809000000008382
312259.7937,-18.34154853269961,9.892765014096737,33.54469690639312,19.96765573387017,16.80999999999767
312259.7947,-15.452705299020902,12.57020203037895,39.29953813178757,22.671965415810064,16.81100000004517
312259.7957,-12.150007802773795,14.850470379036587,44.09772557309614,24.74019237970609,16.81200000003446
312259.7967,-8.461397692908632,16.71144099054377,47.84708910326572,26.153310811724495,16.81300000002375
312259.7977,-4.442576727025826,18.131500258953366,50.47320263178295,26.898899496350374,16.81400000001304
312259.7987,-0.1772616313571109,19.08823938864312,51.91945188788883,26.96974097741405,16.81500000000233
312259.7997,4.225030973178828,19.558572458807067,52.148082833652595,26.36369274868642,16.815999999991618
312259.8007,8.633622077145542,19.520320151157254,51.142283433355935,25.084860927277777,16.817000000039116
312259.8017,12.90345544645611,18.955108809338544,48.90916043408172,23.145923749146167,16.818000000028405
312259.8027,16.883549823844945,17.852263025253656,45.48329380757571,20.571285954315133,16.819000000017695
312259.8037,20.426472978264755,16.21323240167033,40.930404851675014,17.4006137201101,16.820000000006985
312259.8047,23.39808507449509,14.056004160735798,35.350576657857005,13.6922176780461,16.820999999996275
312259.8057,25.686759236295728,11.418922542016482,28.88042972252208,9.525728074391122,16.822000000043772
312259.8067,27.211319356151822,8.363367231577797,21.69368668765094,5.003544649346842,16.823000000033062
312259.8077,27.927036350156733,4.974833865246766,13.99965748082185,0.25064129764956344,16.82400000002235
312259.8087,27.82918479037915,1.3621013991257607,6.039331658101668,-4.58754704773721,16.82500000001164
312259.8097,26.95386715638931,-2.345649898202726,-1.9210353243345868,-9.349244840461262,16.82600000000093
312259.8107,25.37604365908642,-6.003707458888705,-9.598729442106029,-13.862352501425773,16.82699999999022
312259.8117,23.204940238734693,-9.458421422054355,-16.705436501508196,-17.952049617466145,16.82800000003772
312259.8127,20.57722424357006,-12.555085742777607,-22.959597015677627,-21.44949909039749,16.82900000002701
312259.8137,17.64851663106868,-15.146524381937123,-28.099529961409786,-24.201030686652295,16.830000000016298
312259.8147,14.58393520552474,-17.101712590356765,-31.89648153512447,-26.07710106514436,16.831000000005588
312259.8157,11.548424539802554,-18.313735940615505,-34.16670805585759,-26.980309622855938,16.831999999994878
312259.8167,8.69762015511661,-18.706427521653453,-34.78173076415887,-26.85179846826771,16.833000000042375
312259.8177,6.169919165591267,-18.239123823382627,-33.676003704530906,-25.675477198140683,16.834000000031665
312259.8187,4.080295196276452,-16.90913347583,-30.851406430086982,-23.479679479909365,16.835000000020955
312259.8197,2.516215730629851,-14.751706108156066,-26.37819687110627,-20.33606402851773,16.836000000010245
312259.8207,1.5358130807998887,-11.837503181657436,-20.392317225443808,-16.355798800159004,16.836999999999534
312259.8217,1.1682462790134087,-8.267788544345773,-13.08921468689987,-11.683293321681035,16.837999999988824
312259.8227,1.415991206166188,-4.167753192318924,-4.714595503104367,-6.487949040467319,16.83900000003632
312259.8237,2.2586295019303964,0.32145245984545284,4.447247505020368,-0.9545622181618177,16.84000000002561
312259.8247,3.6575891133716656,5.051299841591749,14.086726839579594,4.726877343251102,16.8410000000149
312259.8257,5.561231630147509,9.874355778827601,23.882966755742647,10.371205930356874,16.84200000000419
312259.8267,7.909688655749389,14.651952323671368,33.51759892540469,15.80716595036815,16.84299999999348
312259.8277,10.63891965293176,19.26044721791747,42.68747977401712,20.88488412767132,16.844000000040978
312259.8287,13.683588856077302,23.59561613651362,51.11559124132194,25.48124017774089,16.845000000030268
312259.8297,16.978525247459398,27.574906816190747,58.55957424796958,29.50281700127817,16.846000000019558
312259.8307,20.458719317324594,31.137497882426345,64.81757111744817,32.88634744688444,16.847000000008848
312259.8317,24.05800304775466,34.24232085359169,69.73129728964591,35.5968006613619,16.847999999998137
312259.8327,27.706734645981676,36.86440131036362,73.18650028587773,37.62346135127621,16.849000000045635
312259.8337,31.328948183654322,38.99003522997558,75.11117258563102,38.974528087572764,16.850000000034925
312259.8347,34.839515400865054,40.611423356485815,75.47204576752505,39.67087600972282,16.851000000024214
312259.8357,38.14189272972242,41.721429826032825,74.26999211242128,39.73968414466825,16.852000000013504
312259.8367,41.126987603106734,42.309106996510906,71.53498957121188,39.208613595805815,16.853000000002794
312259.8377,43.67357752003445,42.356539142409794,67.32126641308379,38.101142344415166,16.853999999992084
312259.8387,45.65056266545811,41.8374123899426,61.70313984015725,36.433524047616565,16.85500000003958
312259.8397,46.921143052932756,40.71753152493666,54.771911374955465,34.21365625309141,16.85600000002887
312259.8407,47.34880301260838,38.95729471302137,46.63399858402248,31.44193621185382,16.85700000001816
312259.8417,46.8047802723203,36.51592555415005,37.410288182896736,28.1139705495862,16.85800000000745
312259.8427,45.17651474551989,33.357069236690506,27.236510940436183,24.22480928006864,16.85899999999674
312259.8437,42.37643223192412,29.455204938427823,16.264283758876186,19.774214035511495,16.860000000044238
312259.8447,38.35033539374521,24.802225344056886,4.662355111095946,14.772360332676994,16.861000000033528
312259.8457,33.084658004718385,19.41349624508458,-7.382462094404971,9.245324468388354,16.862000000022817
312259.8467,26.61189161643445,13.332738459880131,-19.66517603274384,3.2397214599660247,16.863000000012107
312259.8477,19.013612777295315,6.635167980201213,-31.963754727111322,-3.174060881930089,16.864000000001397
312259.8487,10.420713727954215,-0.5715207405503994,-44.04182885583858,-9.900453469769534,16.864999999990687
312259.8497,1.0106546152410731,-8.148553507465103,-55.65310541866668,-16.819370641468204,16.866000000038184
312259.8507,-8.998208690408484,-15.929869732561668,-66.54745245433345,-23.788998033476457,16.867000000027474
312259.8517,-19.35493159217951,-23.72810833109419,-76.47842528768292,-30.650552065130785,16.868000000016764
312259.8527,-29.786419514991433,-31.342387720956566,-85.21183180499594,-37.23467370836947,16.869000000006054
312259.8537,-40.00932327826994,-38.56732203065165,-92.53479608657412,-43.36896715242285,16.869999999995343
312259.8547,-49.742600813663756,-45.20260793463154,-98.2646908733102,-48.88609000005295,16.87100000004284
312259.8557,-58.71990681911798,-51.062470309958385,-102.25727930987993,-53.6317552264915,16.87200000003213
312259.8567,-66.70099465187414,-55.98427379497671,-104.4134387678836,-57.47201997938378,16.87300000002142
312259.8577,-73.48140552118186,-59.83568863640581,-104.68393164883554,-60.29930999706956,16.87400000001071
312259.8587,-78.89986977841387,-62.519934236938745,-103.07183132179117,-62.036752798992005,16.875
312259.8597,-82.84303940766509,-63.97879878198062,-99.63239217012432,-62.640554789025984,16.87599999998929
312259.8607,-85.24739137677419,-64.19333079093762,-94.4703538853643,-62.10034040778381,16.877000000036787
312259.8617,-86.09836788365395,-63.1822990674734,-87.73487253202659,-60.437557029151456,16.878000000026077
312259.8627,-85.42703114429207,-60.99870200928425,-79.61245538723433,-57.702218991181944,16.879000000015367
312259.8637,-83.30468844187467,-57.72475821159177,-70.31842586685957,-53.96840140715888,16.880000000004657
312259.8647,-79.83607247816452,-53.46591401219342,-60.08754525382005,-49.328986132638306,16.880999999993946
312259.8657,-75.15173237866003,-48.344451260691,-49.16446055962975,-43.89020014359248,16.882000000041444
312259.8667,-69.40029759424677,-42.49326706241007,-37.79462947539337,-37.76646783483615,16.883000000030734
312259.8677,-62.74122218264578,-36.05032941590025,-26.21629676045207,-31.076026383150527,16.884000000020023
312259.8687,-55.338508210478494,-29.154196985759853,-14.653969982982739,-23.93763577659234,16.885000000009313
312259.8697,-47.35575700685076,-21.940840851068355,-3.3136794562298064,-16.468565378345087,16.885999999998603
312259.8707,-38.952722146934654,-14.541837358905669,7.6198758647622125,-8.783873168153923,16.8870000000461
312259.8717,-30.283356791406842,-7.0838322142109496,17.98437946409921,-0.9968298412026834,16.88800000003539
312259.8727,-21.4951789425573,0.31097554904609903,27.639396303246524,6.779804751485866,16.88900000002468
312259.8737,-12.729638175122572,7.523699256988668,36.4647058194956,14.432055286105548,16.89000000001397
312259.8747,-4.123069967766625,14.437422169250457,44.35794408652669,21.843020557783195,16.89100000000326
312259.8757,4.192222239226415,20.936108918995146,51.23206569947089,28.89165438151156,16.89199999999255
312259.8767,12.087208274432397,26.904197717675984,57.013114992333975,35.452467569556305,16.893000000040047
312259.8777,19.436085275364253,32.227214046471666,61.638722163676185,41.396484030672354,16.894000000029337
312259.8787,26.117227474104464,36.79361831387202,65.05762133382473,46.59364569011293,16.895000000018626
312259.8797,32.01527498181873,40.49794303939137,67.23033744216377,50.91669479680926,16.896000000007916
312259.8807,37.02434722324131,43.24510594078943,68.13102323826723,54.246385110127704,16.896999999997206
312259.8817,41.05220795774078,44.95562166096008,67.75026389133821,56.47770362705904,16.898000000044703
312259.8827,44.02506575726751,45.5712941951467,66.09852210765003,57.52663964114355,16.899000000033993
312259.8837,45.892581466726156,45.0608696773829,63.209786287014424,57.33693351070138,16.900000000023283
312259.8847,46.63258448415053,43.425076714243396,59.144919878475974,55.886185274925296,16.901000000012573
312259.8857,46.254980331771094,40.70048573546943,53.9941988180153,53.19070994830418,16.902000000001863
312259.8867,44.80436562833268,36.961681129945475,47.87856756023633,49.30859302769382,16.902999999991152
312259.8877,42.3609506884334,32.321355777337686,40.94923909978368,44.340521700333454,16.90400000003865
312259.8887,39.039517089688744,26.928097132036843,33.38540175624565,38.42813423712366,16.90500000002794
312259.8897,34.98629597443348,20.961822968632195,25.3899623535927,31.749827366708022,16.90600000001723
312259.8907,30.37382782020561,14.627025848652725,17.183435761402038,24.5141711816553,16.90700000000652
312259.8917,25.39403949165355,8.144179465630621,8.99626715589505,16.951284007663915,16.90799999999581
312259.8927,20.249933053481886,1.7398287985401621,1.0600286559593073,9.302696750457677,16.909000000043306
312259.8937,15.146408037333098,-4.363986840348048,-6.401949009180724,1.8103708313476428,16.910000000032596
312259.8947,10.280822478536733,-9.960255757170168,-13.183878219584885,-5.294386909298051,16.911000000021886
312259.8957,5.83392998900001,-14.866727349577177,-19.10610237003351,-11.801352754659646,16.912000000011176
312259.8967,1.9618071488255333,-18.934175653770648,-24.02236443028181,-17.53044723137983,16.913000000000466
312259.8977,-1.2106905420986862,-22.052622756002698,-27.825246161556926,-22.338827375776976,16.913999999989755
312259.8987,-3.59452815914123,-24.155112538788977,-30.449408883001464,-26.1255689966655,16.915000000037253
312259.8997,-5.138887559925285,-25.218820933400956,-31.87244017980516,-28.833694300794242,16.916000000026543
312259.9007,-5.831279342616764,-25.263501861101123,-32.11330125924834,-30.44951505280243,16.917000000015832
312259.9017,-5.695471456809483,-24.347479041334,-31.228559464199854,-30.999474975429358,16.918000000005122
312259.9027,-4.787504528404996,-22.561583724694422,-29.306762518222396,-30.544868047454823,16.918999999994412
312259.9037,-3.1902048901033124,-20.021590113487264,-26.461449902709795,-29.17496451087924,16.92000000004191
312259.9047,-1.0067062654937347,-16.859800373472662,-22.82339004593165,-26.999180269156728,16.9210000000312
312259.9057,1.6464586569459947,-13.216471271584279,-18.532671774686207,-24.138969456609306,16.92200000002049
312259.9067,4.646138673328042,-9.231751892344937,-13.731261857183386,-20.720101571161912,16.92300000000978
312259.9077,7.868713500453801,-5.038719866305109,-8.556569874216379,-16.86590695513078,16.92399999999907
312259.9087,11.195209423539929,-0.7579709940004788,-3.136444532017338,-12.691946448174642,16.925000000046566
312259.9097,14.51511270905246,3.505952296301493,2.4141264569236265,-8.302396256920469,16.926000000035856
312259.9107,17.728766288399523,7.666197563940766,7.994512931239738,-3.7882543050988935,16.927000000025146
312259.9117,20.748392561087783,11.653398534816061,13.518211240841216,0.7727120466479709,16.928000000014435
312259.9127,23.49792956774478,15.413898678409957,18.911124996695964,5.314526824701789,16.929000000003725
312259.9137,25.911984507840383,18.90680964219501,24.10873298917573,9.780461808089024,16.929999999993015
312259.9147,27.934285996163652,22.10040502646978,29.052616112561033,14.119867223671683,16.931000000040513
312259.9157,29.516047219361695,24.968388342455935,33.686863772370906,18.28489421478062,16.932000000029802
312259.9167,30.614633916407204,27.48655517533964,37.95487726108507,22.227609624452043,16.933000000019092
312259.9177,31.19286669301657,29.630296767362925,41.79703388782397,25.897934294523207,16.934000000008382
312259.9187,31.219184250936316,31.37327395226016,45.14957674327982,29.24272255962322,16.93499999999767
312259.9197,30.668764325079916,32.68743951693385,47.94496043101339,32.2061553961685,16.93600000004517
312259.9207,29.52555689196034,33.5444196115962,50.11372564739179,34.73145819423633,16.93700000003446
312259.9217,27.785045216692026,33.91809820494815,51.58780994745875,36.76379316446078,16.93800000002375
312259.9227,25.457429855567714,33.788099942599544,52.305043934585605,38.2540325101711,16.93900000001304
312259.9237,22.570842201077674,33.14375131405585,52.21444634436231,39.163006341637384,16.94000000000233
312259.9247,19.17414760780118,31.988029529590122,51.28183093392356,39.46575024499968,16.940999999991618
312259.9257,15.338899285655199,30.34099014658645,49.49518240789252,39.15525842617547,16.942000000039116
312259.9267,11.160053771618248,28.24220020623484,46.86925335828971,38.24528138007799,16.943000000028405
312259.9277,6.7551526570469385,25.751789966915457,43.44888024146363,36.77178883894945,16.944000000017695
312259.9287,2.2618045398297344,22.94986471540577,39.3106098442358,34.792841219137706,16.945000000006985
312259.9297,-2.1665466013887413,19.93417586817324,34.562360139599306,32.38676374685777,16.945999999996275
312259.9307,-6.366420136627597,16.816121978578042,29.340998863776125,29.64868188030954,16.947000000043772
312259.9317,-10.171365584484445,13.715318299052749,23.80789499980821,26.68563816445545,16.948000000033062
312259.9327,-13.419868663156183,10.753121472692154,18.14266694556311,23.61065310578776,16.94900000002235
312259.9337,-15.96357359751075,8.045608964064927,12.535501193904954,20.53620172789876,16.95000000001164
312259.9347,-17.675249483620124,5.696579611865363,7.178533457320996,17.56764211562274,16.95100000000093
312259.9357,-18.45592927409639,3.7911553485648635,2.256860085792979,14.79714579053833,16.95199999999022
312259.9367,-18.2407008577936,2.390523029885829,-2.06022478123971,12.29864053672416,16.95300000003772
312259.9377,-17.00272617741733,1.5282631454002245,-5.62719313242775,10.124187882017713,16.95400000002701
312259.9387,-14.75519750118408,1.2085776196360463,-8.328943799147183,8.302088282494816,16.955000000016298
312259.9397,-11.551097618134008,1.4065647683368652,-10.085763892525808,6.836849653717182,16.956000000005588
312259.9407,-7.480798481943531,2.0705114260557225,-10.856331532974504,5.710984558872861,16.956999999994878
312259.9417,-2.667695536800346,3.1259973221586685,-10.638652425250163,4.888434722349494,16.958000000042375
312259.9427,2.737781862632888,4.481451631999571,-9.468976087236069,4.319274860928899,16.959000000031665
312259.9437,8.56533235163998,6.034680980158525,-7.41887842102715,3.945235418015064,16.960000000020955
312259.9447,14.63259535559511,7.679813327866818,-4.590813883461327,3.705516556521462,16.961000000010245
312259.9457,20.753070243617504,9.314079933347845,-1.1125236287730844,3.542350134329703,16.961999999999534
312259.9467,26.743621840502737,10.843889565550402,2.869269901459745,3.4058036473932165,16.962999999988824
312259.9477,32.431121059211264,12.189731707329399,7.195447935487585,3.257406322526201,16.96400000003632
312259.9487,37.65787484394427,13.2895700088187,11.700960445716008,3.0723038663194933,16.96500000002561
312259.9497,42.285630843376,14.100541093503578,16.220838467450783,2.839802053425617,16.9660000000149
312259.9507,46.19808609454061,14.59894153199446,20.59551026272633,2.5623249027594754,16.96700000000419
312259.9517,49.301971254936134,14.778650675094926,24.67527930863467,2.252974032742296,16.96799999999348
312259.9527,51.52690861290328,14.648282764956779,28.32392359170215,1.9320157990678,16.969000000040978
312259.9537,52.8243408757908,14.227474011258373,31.42146599863226,1.6227279942141704,16.970000000030268
312259.9547,53.16588902509149,13.542778233664505,33.86623503501534,1.3470977096021872,16.971000000019558
312259.9557,52.541515543430975,12.623661827696697,35.57637665105489,1.1218704446317704,16.972000000008848
312259.9567,50.957842655295636,11.499053930566802,36.4909879659331,0.9554068418675475,16.972999999998137
312259.9577,48.43690708896331,10.194824732196931,36.57102230283936,0.8457119199020655,16.974000000045635
312259.9587,45.01553086082061,8.732442767464104,35.80006611727194,0.7798715770633422,16.975000000034925
312259.9597,40.745363036215956,7.128913641720483,34.18501948501813,0.7349756074242783,16.976000000024214
312259.9607,35.69351433736791,5.397943655522173,31.756632844835575,0.6804413346403319,16.977000000013504
312259.9617,29.943580155168554,3.552119099926566,28.569775297369468,0.5814941830758251,16.978000000002794
312259.9627,23.59674302705588,1.6057620135227644,24.703245892184786,0.40342747343901575,16.978999999992084
312259.9637,16.77257616094166,-0.42196979414030156,20.25889986189831,0.11616766252373206,16.98000000003958
312259.9647,9.609144981531294,-2.504215993257286,15.359855147885114,-0.3013762892527576,16.98100000002887
312259.9657,2.2620293041925343,-4.6042496387855625,10.147575716655268,-0.8576939323534789,16.98200000001816
312259.9667,-5.098035314475924,-6.67442305550693,4.777697648887002,-1.5462376909589628,16.98300000000745
312259.9677,-12.289077663589627,-8.656520320208777,-0.5854323489528762,-2.344512414216235,16.98399999999674
312259.9687,-19.12339787646982,-10.483664049323192,-5.7754071872462625,-3.214881534610043,16.985000000044238
312259.9697,-25.4145122269723,-12.08375180723721,-10.631357411400856,-4.107106022292872,16.986000000033528
312259.9707,-30.985210308709235,-13.384219143117024,-15.006116072887773,-4.962449602397505,16.987000000022817
312259.9717,-35.676240028383475,-14.317760736522976,-18.77444811823053,-5.719011957509037,16.988000000012107
312259.9727,-39.35501188244018,-14.828506314986738,-21.84075476354812,-6.317808664180592,16.989000000001397
312259.9737,-41.92364050695148,-14.878059209801435,-24.14562359059134,-6.709017732231708,16.989999999990687
312259.9747,-43.32562930747825,-14.450773689468665,-25.670612027313684,-6.857769085023647,16.991000000038184
312259.9757,-43.5505581071949,-13.557678096439613,-26.440729329700584,-6.748871107011602,16.992000000027474
312259.9767,-42.63625266933009,-12.238543631241226,-26.524217955131615,-6.389947452879501,16.993000000016764
312259.9777,-40.66809049361362,-10.561746377687259,-26.029420903833838,-5.81259148159152,16.994000000006054
312259.9787,-37.77531527752686,-8.621760072482587,-25.098743132997914,-5.071323114795184,16.994999999995343
312259.9797,-34.12447393978254,-6.534331807442029,-23.899953947287642,-4.2403372019633725,16.99600000004284
312259.9807,-29.910333231041996,-4.429611969832598,-22.615311955509895,-3.4082441545020554,16.99700000003213
312259.9817,-25.344854978716818,-2.4437119648911767,-21.429202599098726,-2.671202101801239,16.99800000002142
312259.9827,-20.64498861353089,-0.7093284665001478,-20.515139661348677,-2.1250054427057705,16.99900000001071
312259.9837,-16.020159020515738,0.6538158642640468,-20.02307933570243,-1.8568106183265642,17.0
312259.9847,-11.660374466801,1.5479201194031957,-20.068016472701647,-1.9372340129383203,17.00099999998929
312259.9857,-7.725847462986379,1.9046730739644182,-20.720772288877207,-2.4135427544562353,17.002000000036787
312259.9867,-4.338912170517667,1.6907708335306053,-22.001743194489666,-3.3045770365470033,17.003000000026077
312259.9877,-1.5788437385084153,0.9108747711369668,-23.8781709013358,-4.597899207804778,17.004000000015367
312259.9887,0.5200475234031716,-0.39228924193158526,-26.265230657460236,-6.2494730283527415,17.005000000004657
312259.9897,1.9669411664843632,-2.140748174793724,-29.030938665479592,-8.18595370845919,17.005999999993946
312259.9907,2.809823185524054,-4.226823545227203,-32.004576261585804,-10.309436242963764,17.007000000041444
312259.9917,3.1280320029583017,-6.520969105293781,-34.98804330135312,-12.504287889697276,17.008000000030734
312259.9927,3.0227010151632627,-8.881275479123312,-37.769311371274625,-14.645501202305507,17.009000000020023
312259.9937,2.605937799324109,-11.16386618830857,-40.13697052520036,-16.607864664646648,17.010000000009313
312259.9947,1.9896812810207563,-13.233330690910579,-41.894767488490274,-18.275171882655602,17.010999999998603
312259.9957,1.2751985339125869,-14.972336435975231,-42.87502804522908,-19.54868476271329,17.0120000000461
312259.9967,0.5441204147502151,-16.28963406832064,-42.94994315540929,-20.354131840506554,17.01300000003539
312259.9977,-0.1482247986202736,-17.125811436523435,-42.03987068132805,-20.646653961512367,17.01400000002468
312259.9987,-0.7766261034575263,-17.456350233457552,-40.11804826316349,-20.413293804995337,17.01500000001397
312259.9997,-1.3466522545747148,-17.291776029291885,-37.21140725917473,-19.672846289718173,17.01600000000326
312260.0007,-1.8921401687475443,-16.674946717608854,-33.39749748016151,-18.4731233532802,17.01699999999255
312260.0017,-2.4697673669977105,-15.675773022897689,-28.79784999503463,-16.885917165579308,17.018000000040047
312260.0027,-3.151223489114611,-14.383885326903386,-23.568392916668646,-15.000149315282787,17.019000000029337
312260.0037,-4.013707472116804,-12.899933911699137,-17.88776771726498,-12.91385124706986,17.020000000018626
312260.0047,-5.129624892337917,-11.326319476896819,-11.944551064287952,-10.725718856057247,17.021000000007916
312260.0057,-6.556431538996515,-9.758187978150485,-5.924455944872886,-8.527012892553763,17.021999999997206
312260.0067,-8.327558507922449,-8.275485628565121,0.0014395162954164474,-6.394534321942257,17.023000000044703
312260.0077,-10.445262147973637,-6.936760365995983,5.686503611211144,-4.38529425483307,17.024000000033993
312260.0087,-12.876077277624232,-5.775225760937401,11.01566735518977,-2.53333195306232,17.025000000023283
312260.0097,-15.549328742707914,-4.797388251824752,15.909367631815114,-0.8489274066141409,17.026000000012573
312260.0107,-18.35889416556013,-3.984298774734158,20.32413442704832,0.6797734718023479,17.027000000001863
312260.0117,-21.168132515386002,-3.2952474798339324,24.249944840140234,2.0829314338668667,17.027999999991152
312260.0127,-23.817623100043836,-2.673497583393966,27.704754349078495,3.403401688345624,17.02900000003865
312260.0137,-26.13512112518728,-2.0534718357953525,30.726859894301516,4.689920534692503,17.03000000002794
312260.0147,-27.946949607023225,-1.3686791206042035,33.365927946034354,5.9897843367091195,17.03100000001723
312260.0157,-29.08992899804494,-0.5596105226743846,35.673618347060774,7.341757652618448,17.03200000000652
312260.0167,-29.422905142495058,0.4191513768738615,37.69474359038899,8.769920227100899,17.03299999999581
312260.0177,-28.836975921848023,1.593281212667876,39.4598239095382,10.279067833568888,17.034000000043306
312260.0187,-27.26363279834983,2.965041816836141,40.97974001621813,11.85212889865538,17.035000000032596
312260.0197,-24.680214273770478,4.51192721338498,42.24296377619338,13.449862277069759,17.036000000021886
312260.0207,-21.112297192680916,6.187724119611609,43.215584588762646,15.012880442968909,17.037000000011176
312260.0217,-16.632907834204367,7.925867891281037,43.84407134680565,16.465817997042258,17.038000000000466
312260.0227,-11.358694665363007,9.644752942342388,44.060443324726116,17.72325927174135,17.038999999989755
312260.0237,-5.443445250259435,11.254476809717497,43.78929341622159,18.696870621561267,17.040000000037253
312260.0247,0.9304699872637372,12.66436809348422,42.95593518285289,19.303068635650938,17.041000000026543
312260.0257,7.562001721217741,13.790583232555104,41.4948466538241,19.470505654988703,17.042000000015832
312260.0267,14.241874176265508,14.563061002085849,39.357566931711645,19.146672983075426,17.043000000005122
312260.0277,20.76278682028899,14.931195556860079,36.51926665257643,18.303007748873583,17.043999999994412
312260.0287,26.928637615500516,14.867721068668077,32.98335262588899,16.938032819446253,17.04500000004191
312260.0297,32.56217443765353,14.370480051536354,28.783665961194693,15.078246270102563,17.0460000000312
312260.0307,37.510663584534875,13.461955489615118,23.98407161772861,12.776689420151477,17.04700000002049
312260.0317,41.64937559455797,12.18666341495329,18.675492048727392,10.109339766162005,17.04800000000978
312260.0327,44.882907401860116,10.606706548601938,12.97068371102038,7.169676440821954,17.04899999999907
312260.0337,47.1445643607519,8.79596136941248,6.997269084283894,4.061931963559287,17.050000000046566
312260.0347,48.39419590954343,6.833494176313691,0.8896982702182933,0.8936594384224291,17.051000000035856
312260.0357,48.61499845099116,4.796864893663634,-5.219091771964908,-2.2317015914694247,17.052000000025146
312260.0367,47.80985764170827,2.7559750048376466,-11.205534156689048,-5.2215893133879,17.053000000014435
312260.0377,45.99779538039574,0.7680489858526226,-16.962077769547115,-7.999818583167427,17.054000000003725
312260.0387,43.211016854138265,-1.125785852536649,-22.402023801978267,-10.510351681094233,17.054999999993015
312260.0397,39.4929290271089,-2.9020253588966596,-27.462142360572468,-12.719053177398974,17.056000000040513
312260.0407,34.8973384317367,-4.554321410122625,-32.10288481454126,-14.613342021732318,17.057000000029802
312260.0417,29.488851514497714,-6.09112747627503,-36.30625109184615,-16.199860649262465,17.058000000019092
312260.0427,23.344315599747127,-7.531755144960607,-40.07160805600045,-17.500473256819983,17.059000000008382
312260.0437,16.554973179179022,-8.901300961210659,-43.40996227999066,-18.547064777457006,17.05999999999767
312260.0447,9.2288749369766,-10.22501684044015,-46.33734769202903,-19.37572311263608,17.06100000004517
312260.0457,1.493021858639393,-11.522752894733529,-48.86808016691082,-20.020939301623386,17.06200000003446
312260.0467,-6.505307361006423,-12.80409343446339,-51.00864789920249,-20.510448756962468,17.06300000002375
312260.0477,-14.598538256143012,-14.064736117103696,-52.752946221580274,-20.861262965169303,17.06400000001304
312260.0487,-22.60047834242297,-15.284537838902143,-54.07943375680152,-21.07731272297408,17.06500000000233
312260.0497,-30.309920301053594,-16.427481586047403,-54.950595730968594,-21.148953959496872,17.065999999991618
312260.0507,-37.51621013478848,-17.443622869117398,-55.314868104884184,-21.054392439808318,17.067000000039116
312260.0517,-44.00661549933886,-18.272871894743385,-55.11092523429709,-20.76288348715901,17.068000000028405
312260.0527,-49.57513140355372,-18.850278266665402,-54.27398841573894,-20.2393771079274,17.069000000017695
312260.0537,-54.032188935365895,-19.11232743387725,-52.743596958417754,-19.450125901168924,17.070000000006985
312260.0547,-57.214605307465305,-19.003647870897634,-50.47211871745486,-18.36866797981763,17.070999999996275
312260.0557,-58.99504381648946,-18.483476005641652,-47.433179913317325,-16.981550205329857,17.072000000043772
312260.0567,-59.29024820787797,-17.531237436683114,-43.62917467319884,-15.293173009315234,17.073000000033062
312260.0577,-58.06737902154717,-16.15067704532402,-39.09707568547899,-13.329215453752749,17.07400000002235
312260.0587,-55.34790482648814,-14.372100155178508,-33.91190346502285,-11.138230471169718,17.07500000001164
312260.0597,-51.20867784822406,-12.252459460234832,-28.187410436669758,-8.791172665120595,17.07600000000093
312260.0607,-45.7800353745667,-9.873221370952477,-22.07377865315686,-6.378817855468029,17.07699999999022
312260.0617,-39.2409960775506,-7.336151479938899,-15.752393440030005,-4.007235554923241,17.07800000003772
312260.0627,-31.811843052900986,-4.757352088067406,-9.428014519588142,-1.7916630844392945,17.07900000002701
312260.0637,-23.744582495501366,-2.260046474720129,-3.318896566215426,0.1507151886778475,17.080000000016298
312260.0647,-15.311920547088246,0.03328075481415963,2.3544090608857666,1.70847303238225,17.081000000005588
312260.0657,-6.795497280262285,2.0087213297752773,7.380727173665774,2.783472692227672,17.081999999994878
312260.0667,1.5258520689620292,3.5680998191227236,11.56952680670562,3.2975751636445527,17.083000000042375
312260.0677,9.387074345498581,4.634858941054868,14.760949649561704,3.1979605034078693,17.084000000031665
312260.0687,16.546477921420287,5.158208030882775,16.83388299801765,2.460617396384767,17.085000000020955
312260.0697,22.793427387020625,5.115236157525037,17.71154217336969,1.0917312433240423,17.086000000010245
312260.0707,27.953851424238977,4.51088454478116,17.364251686053233,-0.8731057970867527,17.086999999999534
312260.0717,31.893463256607355,3.375872927523754,15.809359981297419,-3.3717402375886594,17.087999999988824
312260.0727,34.51879076876005,1.762861455651567,13.108465433965003,-6.320051019489053,17.08900000003632
312260.0737,35.776287812984684,-0.25871463042791726,9.362348105248039,-9.6178324431735,17.09000000002561
312260.0747,35.649932682837544,-2.60859119374454,4.704172400803962,-13.155402292578334,17.0910000000149
312260.0757,34.15780210157986,-5.20180354684161,-0.7083650592060183,-16.820323344134113,17.09200000000419
312260.0767,31.348133002894205,-7.954407116568319,-6.7012291142496085,-20.50363964111081,17.09299999999348
312260.0777,27.295349928591865,-10.788268916877431,-13.091900874674765,-24.105100991570286,17.094000000040978
312260.0787,22.09644940429059,-13.634528223495787,-19.69631210621197,-27.536972070104238,17.095000000030268
312260.0797,15.868006103233894,-16.435483258623382,-26.33443010785846,-30.726183167411662,17.096000000019558
312260.0807,8.743915089346746,-19.144840702828084,-32.83425252304198,-33.61476122904236,17.097000000008848
312260.0817,0.8738284556074049,-21.7264474584169,-39.03417511667339,-36.15866356221525,17.097999999998137
312260.0827,-7.577897900040303,-24.15179018091695,-44.78389209819128,-38.325303600949844,17.099000000045635
312260.0837,-16.43304366483164,-26.396680409540746,-49.944157092692144,-40.09019137252854,17.100000000034925
312260.0847,-25.500513970967805,-28.437628014390267,-54.385855664536365,-41.43319731781345,17.101000000024214
312260.0857,-34.577859556217476,-30.248434487325706,-57.98890475866209,-42.334978295760074,17.102000000013504
312260.0867,-43.45366770386807,-31.797507550467,-60.641494243393176,-42.77407610779906,17.103000000002794
312260.0877,-51.911074092506674,-33.04631298762894,-62.24012152749789,-42.725114888383715,17.103999999992084
312260.0887,-59.73251411081189,-33.949247636498264,-62.6907493965681,-42.15839308594517,17.10500000003958
312260.0897,-66.70567399247487,-34.455053054235655,-61.9112531842402,-41.04100214547667,17.10600000002887
312260.0907,-72.63043516163594,-34.509709817777534,-59.835134183020806,-39.33942443835113,17.10700000001816
312260.0917,-77.32644863269526,-34.060576688006755,-56.4162825836917,-37.023386179274056,17.10800000000745
312260.0927,-80.64084860129961,-33.06138557628739,-51.63439662250084,-34.070585521601785,17.10899999999674
312260.0937,-82.45553114605332,-31.47758879753638,-45.500524873365954,-30.47179814435789,17.110000000044238
312260.0947,-82.69339639343471,-29.29149196550172,-38.06211202408615,-26.23579510703923,17.111000000033528
312260.0957,-81.32298600510512,-26.5066013825707,-29.406906019927458,-21.393498189597434,17.112000000022817
312260.0967,-78.36104146818285,-23.150670244029726,-19.665130687615363,-16.000848172473805,17.113000000012107
312260.0977,-73.87265508173074,-19.27703864021522,-9.009440408229578,-10.139967332301595,17.114000000001397
312260.0987,-67.96887172517337,-14.964017747851303,2.347657224699787,-3.918348977435651,17.114999999990687
312260.0997,-60.8018080287237,-10.312253637152677,14.159013876736713,2.5340104254446576,17.116000000038184
312260.1007,-52.55756629739165,-5.4402024811189,26.150558558720938,9.069424903201721,17.117000000027474
312260.1017,-43.44741262572258,-0.4780369539025798,38.03116004510489,15.528976700912105,17.118000000016764
312260.1027,-33.697842642388245,4.439535861524554,49.50406440603183,21.750151278978223,17.119000000006054
312260.1037,-23.540258204927643,9.18094827988058,60.27917543082379,27.575059378384108,17.119999999995343
312260.1047,-13.201013177765907,13.625280792283155,70.0853447344264,32.85858700086167,17.12100000004284
312260.1057,-2.89255152156888,17.66895251375743,78.68181065965612,37.475807168460825,17.12200000003213
312260.1067,7.193741460253307,21.231007477712573,85.8679749791536,41.32804377086451,17.12300000002142
312260.1077,16.89251470296616,24.256536691620386,91.49083055242313,44.347092879599536,17.12400000001071
312260.1087,26.066998044306334,26.717948138828696,95.44954083704056,46.49726996455258,17.125
312260.1097,34.60909238363888,28.613999174019543,97.69690642575581,47.77514701210387,17.12599999998929
312260.1107,42.43720564638402,29.9667182663061,98.23771275322045,48.20705280380744,17.127000000036787
312260.1117,49.4922459789098,30.81654480794899,97.12421232670624,47.844612275523396,17.128000000026077
