TimeStamp,ECR,FCR,ECU,FCU,time_index
312304.4547,198.62408016089898,158.52359099641086,187.59090933561316,156.3223503046107,61.47100000001956
312304.4557,152.20930082720483,119.09290116338339,142.4905271619922,116.28956073387116,61.47200000000885
312304.4567,105.03108956887915,79.25066782930331,96.63314577454831,75.96253016083081,61.47299999999814
312304.4577,57.86227221709495,39.63676955036669,50.74930492707336,35.968219810077024,61.474000000045635
312304.4587,11.459994222302083,0.8723713221507018,5.558921406117397,-3.0889537848446453,61.475000000034925
312304.4597,-33.45067272854593,-36.45246151258696,-38.24421378232291,-40.63800629098718,61.476000000024214
312304.4607,-76.19244651568665,-71.79058199992036,-80.00750302452799,-76.1517405027894,61.477000000013504
312304.4617,-116.15057131034754,-104.64885837893372,-119.13386142414443,-109.15651168149961,61.478000000002794
312304.4627,-152.78626692656638,-134.598369529621,-155.09496492185227,-139.24130341492122,61.478999999992084
312304.4637,-185.64856933571147,-161.28348372642245,-187.44309066689055,-166.06595550931507,61.48000000003958
312304.4647,-214.38422602147486,-184.4295649844321,-215.82119958399238,-189.36831965903264,61.48100000002887
312304.4657,-238.7453001507456,-203.8490150294022,-239.9709035902115,-208.97005634403416,61.48200000001816
312304.4667,-258.5941410517799,-219.44533629231404,-259.737965587029,-224.78073911904852,61.48300000000745
312304.4677,-273.9054033254188,-231.2149014962136,-275.0750064635244,-236.79991120082084,61.48399999999674
312304.4687,-284.76484989940064,-239.24614589083245,-286.04114610903906,-245.11675308128937,61.48500000004424
312304.4697,-291.3647597933715,-243.71596367907242,-292.7983888201781,-249.90707456548066,61.48600000003353
312304.4707,-293.9958801065637,-244.88319158562444,-295.60467825843295,-251.42744164973493,61.48700000002282
312304.4717,-293.0360104588338,-243.07919648100705,-294.80369020331585,-250.0063846919115,61.48800000001211
312304.4727,-288.93547923948375,-238.6957428270279,-290.811595688366,-246.03280121427036,61.4890000000014
312304.4737,-282.19995311708016,-232.1704879614361,-284.1012019779273,-239.94185195542892,61.48999999999069
312304.4747,-273.37119994799923,-223.9706245360069,-275.18405067108114,-232.19883673942851,61.491000000038184
312304.4757,-263.0065844656872,-214.57534389199492,-264.5912058205418,-223.28170987532602,61.492000000027474
312304.4767,-251.6581998825398,-204.45791600754956,-252.85358504416754,-213.663035627867,61.493000000016764
312304.4777,-239.85261243140195,-194.0682568482381,-240.48275943965604,-203.79227709592047,61.494000000006054
312304.4787,-228.0722088920364,-183.8168717943551,-227.95316306283218,-194.07934440829686,61.49499999999534
312304.4797,-216.73908298785477,-174.0610182456475,-215.68660363104019,-184.8802932511838,61.49600000004284
312304.4807,-206.20227457539275,-165.09382097152516,-204.0398522043391,-176.48596105163202,61.49700000003213
312304.4817,-196.72899125005702,-157.13690560519808,-193.29591594997538,-169.1141606537648,61.49800000002142
312304.4827,-188.50020672202973,-150.33689982779873,-183.65937546130976,-162.90583113612777,61.49900000001071
312304.4837,-181.61076054342476,-144.76590402963708,-175.2559121740229,-157.92528888925878,61.5
312304.4847,-176.0737997249103,-140.42577285051613,-168.1358815690566,-154.16444943810583,61.50099999998929
312304.4857,-171.8291267115625,-137.25579706896792,-162.28152543954016,-151.55062406311345,61.50200000003679
312304.4867,-168.75477234520972,-135.1431527808952,-157.61718295864918,-149.95725737810307,61.50300000002608
312304.4877,-166.6809170226195,-133.9353105351942,-154.02167511431676,-149.21678291949493,61.50400000001537
312304.4887,-165.40515449932485,-133.45348602715856,-151.34191597388312,-149.13464973479725,61.50500000000466
312304.4897,-164.70804138316595,-133.50617566576028,-149.40675756318615,-149.50352457641398,61.505999999993946
312304.4907,-164.36790539180745,-133.90185804951943,-148.04010683813186,-150.11670558902736,61.507000000041444
312304.4917,-164.17399391828351,-134.46005258539432,-147.07246035872112,-150.77989118983757,61.508000000030734
312304.4927,-163.93722148201616,-135.02009914998345,-146.35017520489865,-151.32062216124086,61.50900000002002
312304.4937,-163.4980043351057,-135.44724218495847,-145.74201786719195,-151.59493979302596,61.51000000000931
312304.4947,-162.73093234035733,-135.6358490980492,-145.142786262934,-151.49105769400794,61.5109999999986
312304.4957,-161.5462990081128,-135.50984409422912,-144.4740609537087,-150.93010650473113,61.5120000000461
312304.4967,-159.88876646077773,-135.02067207653,-143.68238677911643,-149.86425561644035,61.51300000003539
312304.4977,-157.73366090001903,-134.14330233373653,-142.73539378268737,-148.27272236178683,61.51400000002468
312304.4987,-155.0815573811991,-132.8709214387338,-141.616518430304,-146.1563290603837,61.51500000001397
312304.4997,-151.95190725132701,-131.2090375415756,-140.31906998895266,-143.53134937828742,61.51600000000326
312304.5007,-148.37648097746234,-129.16971892303283,-138.8403963564126,-140.42339197552005,61.51699999999255
312304.5017,-144.39334394397216,-126.76662005036299,-137.17683952883988,-136.8620028325457,61.51800000004005
312304.5027,-140.04196083468364,-124.01131692037693,-135.3200411753829,-132.87653641557543,61.51900000002934
312304.5037,-135.35984938952066,-120.91129450411196,-133.25497757399248,-128.49366452919338,61.52000000001863
312304.5047,-130.38099542931366,-117.46972136502306,-130.95988937906037,-123.73667953688917,61.521000000007916
312304.5057,-125.13601985348592,-113.68693132558593,-128.4080472169946,-118.62652757904527,61.521999999997206
312304.5067,-119.65387744663772,-109.56333120163991,-125.57108161683503,-113.18430004143347,61.5230000000447
312304.5077,-113.96468801615423,-105.10328724938776,-122.4234265297522,-107.43473875563933,61.52400000003399
312304.5087,-108.1031704091978,-100.31942759454952,-118.94729741752663,-101.4101895069138,61.52500000002328
312304.5097,-102.11208193760677,-95.23674482955711,-115.13756010434795,-95.15438130182244,61.52600000001257
312304.5107,-96.04506590829286,-89.89589715595355,-111.0058513548052,-88.72542093598521,61.52700000000186
312304.5117,-89.96837759496442,-84.35518612679343,-106.5833855210836,-82.19747213424475,61.52799999999115
312304.5127,-83.96108652974098,-78.69082585181512,-101.9220157696294,-75.66072752915144,61.52900000003865
312304.5137,-78.11352681404094,-72.99529839122768,-97.09329945172198,-69.21946564695794,61.53000000002794
312304.5147,-72.5239689378595,-67.37379459572186,-92.1855265511701,-62.98819499314285,61.53100000001723
312304.5157,-67.2936952029892,-61.93894798263089,-87.29888644208121,-57.08610171881085,61.53200000000652
312304.5167,-62.52085439371607,-56.80426009264226,-82.53914935911163,-51.630214127714844,61.53299999999581
312304.5177,-58.293629422238745,-52.07676956995574,-78.0104044786024,-46.72785604189041,61.53400000004331
312304.5187,-54.68335740719885,-47.84961801565017,-73.80750934696599,-42.46906507308742,61.535000000032596
312304.5197,-51.73828335237432,-44.195202768864775,-70.00895383074713,-38.919689810290016,61.536000000021886
312304.5207,-49.47860101141164,-41.15957575518959,-66.67082046349303,-36.11584701085457,61.537000000011176
312304.5217,-47.893339337443166,-38.75865072693775,-63.822433620698796,-34.06031827662708,61.538000000000466
312304.5227,-46.93949861704883,-36.97662744646936,-61.46414072851754,-32.72130444487797,61.538999999989755
312304.5237,-46.54364146046561,-35.76684513168411,-59.567474010016745,-32.03375003949256,61.54000000003725
312304.5247,-46.60591932446092,-35.055057534718294,-58.07771993147795,-31.903219145681152,61.54100000002654
312304.5257,-47.006286946958234,-34.74489951225941,-56.91869704590318,-32.21207014894221,61.54200000001583
312304.5267,-47.61244730456809,-34.725111360465014,-55.999333422985046,-32.82746253323273,61.54300000000512
312304.5277,-48.288899161971024,-34.87792226019306,-55.22146278788737,-33.61055522795189,61.54399999999441
312304.5287,-48.90634498412709,-35.087883951389124,-54.48814074596256,-34.42613989172722,61.54500000004191
312304.5297,-49.35067058396944,-35.25040101586291,-53.71173067339134,-35.15190560574852,61.5460000000312
312304.5307,-49.530734509636694,-35.27922937352848,-52.821028238564885,-35.686558673806765,61.54700000002049
312304.5317,-49.38430291605488,-35.11230752078238,-51.766782412273834,-35.956120410424504,61.54800000000978
312304.5327,-48.881625709237,-34.71543686837999,-50.5251208035486,-35.91788782134893,61.54899999999907
312304.5337,-48.02635724356296,-34.08352380958319,-49.098583866309475,-35.561751749806064,61.550000000046566
312304.5347,-46.85376032125876,-33.23931814899246,-47.51469706593882,-34.9088045781415,61.551000000035856
312304.5357,-45.4263734855745,-32.229809095307154,-45.82224088142741,-34.007412448458915,61.552000000025146
312304.5367,-43.82754583189062,-31.120649638536165,-44.08559335865706,-32.92715219946486,61.553000000014435
312304.5377,-42.15342963357975,-29.98915298169821,-42.37769820013301,-31.751199535740376,61.554000000003725
312304.5387,-40.50415152654331,-28.91652460388522,-40.77233602738978,-30.567884865185494,61.554999999993015
312304.5397,-38.97494573103722,-27.980049519499342,-39.336435670178595,-29.462194760196116,61.55600000004051
312304.5407,-37.64802227102986,-27.245941639681686,-38.12315068901606,-28.507984761707082,61.5570000000298
312304.5417,-36.58586091312251,-26.763482792753017,-37.166345296264566,-27.761585048447465,61.55800000001909
312304.5427,-35.826476031806884,-26.560941341291866,-36.476991626383416,-27.257333093051287,61.55900000000838
312304.5437,-35.38100332738485,-26.64357847522143,-36.04179107156421,-27.005371665170607,61.55999999999767
312304.5447,-35.23373542361173,-26.993842401950328,-35.824114831539674,-26.99182587889505,61.56100000004517
312304.5457,-35.34450174724345,-27.573637430458447,-35.76713430320749,-27.18124157105271,61.56200000003446
312304.5467,-35.653071226101424,-28.3283573417845,-35.79880241856428,-27.520951800913107,61.56300000002375
312304.5477,-36.08507510288043,-29.192209717488513,-35.83817291394399,-27.946859620232114,61.56400000001304
312304.5487,-36.5588187514364,-30.094245705443534,-35.8024225877765,-28.390000634282494,61.56500000000233
312304.5497,-36.99228765946158,-30.96445853184098,-35.61388346380565,-28.7831899563587,61.56599999999162
312304.5507,-37.309659073879224,-31.73932824271698,-35.20640265959917,-29.067070047805945,61.567000000039116
312304.5517,-37.44670556846558,-32.366267428931,-34.53042605937291,-29.194956650096493,61.568000000028405
312304.5527,-37.35461156535253,-32.80655448847653,-33.55633933521271,-29.136020714391837,61.569000000017695
312304.5537,-37.00190427491901,-33.03651330771418,-32.27578235708889,-28.87653012349461,61.570000000006985
312304.5547,-36.37440779686339,-33.04689308710552,-30.700862074413536,-28.41908682943611,61.570999999996275
312304.5557,-35.47334186843796,-32.840599199080366,-28.861403471502737,-27.780011025615515,61.57200000004377
312304.5567,-34.311883161508646,-32.42910509964862,-26.800576660661036,-26.98522203076308,61.57300000003306
312304.5577,-32.91066710300163,-31.828017977152648,-24.56940071619474,-26.065125462694468,61.57400000002235
312304.5587,-31.292815690813924,-31.05236232484602,-22.22073524788966,-25.049121713515007,61.57500000001164
312304.5597,-29.479120871222065,-30.11217651637138,-19.80341798639993,-23.96039094020009,61.57600000000093
312304.5607,-27.483989387211878,-29.008984475468854,-17.357186156964836,-22.81158061418594,61.57699999999022
312304.5617,-25.3126661596605,-27.733610905828993,-14.908933286436906,-21.601926028522126,61.57800000003772
312304.5627,-22.960108424911674,-26.26566371396964,-12.47071002278269,-20.316181689740063,61.57900000002701
312304.5637,-20.411696933310996,-24.574825891817653,-10.03969194787227,-18.925547660088203,61.5800000000163
312304.5647,-17.645762635151208,-22.6238996777641,-7.600127907896711,-17.390559346503444,61.58100000000559
312304.5657,-14.637698857850712,-20.373348669051897,-5.127070168336445,-15.665693917463303,61.58199999999488
312304.5667,-11.365241573625363,-17.786908992272227,-2.5914941531917064,-13.70525351317637,61.583000000042375
312304.5677,-7.814353521518574,-14.837706795357981,0.03373970628337092,-11.469934620797847,61.584000000031665
312304.5687,-3.9850572611140187,-11.514240392694049,2.767730503728795,-8.933400215318965,61.585000000020955
312304.5697,0.10346226148153645,-7.825570180502864,5.615872470080368,-6.08814660583868,61.586000000010245
312304.5707,4.409119880270493,-3.8051104661234136,8.565333558808762,-2.9500037225129483,61.586999999999534
312304.5717,8.865079959915064,0.48746941626951756,11.582229677727812,0.4392779240417789,61.587999999988824
312304.5727,13.380149045744943,4.966562133621789,14.61089079117859,4.011728698045121,61.58900000003632
312304.5737,17.84155879030012,9.52328324244652,17.57541631057991,7.6753121962285835,61.59000000002561
312304.5747,22.120058073243612,14.03038260360762,20.383495154508964,11.318457912630912,61.5910000000149
312304.5757,26.077006340006886,18.34909764288795,22.93224210217346,14.816672656484212,61.59200000000419
312304.5767,29.57295700842288,22.337448992028474,25.115598382589187,18.04072290023758,61.59299999999348
312304.5777,32.47706036971226,25.859331458105512,26.832680789042236,20.86571896421707,61.59400000004098
312304.5787,34.67651570558092,28.793663473186133,27.99635614612607,23.18033172607443,61.59500000003027
312304.5797,36.08527267809077,31.042835289798827,28.54127747829054,24.895343592790777,61.59600000001956
312304.5807,36.65122607644377,32.53974295588302,28.43064910791063,25.950781154567427,61.59700000000885
312304.5817,36.36126233212017,33.25280761684014,27.66108767471848,26.320993420625832,61.59799999999814
312304.5827,35.24369070805089,33.18854775552019,26.265105636914186,26.01721614370687,61.599000000045635
312304.5837,33.36781081464648,32.39148008410617,24.310948377574427,25.08738298219392,61.600000000034925
312304.5847,30.84061092926119,30.941353611427626,21.899746488174422,23.613187405980362,61.601000000024214
312304.5857,27.800835988777788,28.947949624318777,19.16017956518823,21.704642373267664,61.602000000013504
312304.5867,24.410887405636906,26.543886718009574,16.241064981418027,19.492604923497268,61.603000000002794
312304.5877,20.847198342179066,23.87603547414281,13.302464346063827,17.11990918098321,61.603999999992084
312304.5887,17.2898510601683,21.09625673833538,10.506025164715439,14.73186728470738,61.60500000003958
312304.5897,13.912256306713754,18.352220894873096,8.005334199606214,12.466942696271099,61.60600000002887
312304.5907,10.87169389651005,15.779039579514087,5.937047155793383,10.448370275226651,61.60700000001816
312304.5917,8.301421238498873,13.492349034500316,4.413478280144334,8.777395749927317,61.60800000000745
312304.5927,6.304901847529212,11.583335207562673,3.5171915190452796,7.528643944970906,61.60899999999674
312304.5937,4.952504055948082,10.115999507080646,3.2979460368728435,6.747916442732841,61.61000000004424
312304.5947,4.280790755152966,9.126749545191053,3.7721315116867005,6.4524856739654615,61.61100000003353
312304.5957,4.29428609065845,8.626182024154586,4.924603628565395,6.633716504113911,61.61200000002282
312304.5967,4.969386983845576,8.602726021650511,6.712619051583575,7.261631073988407,61.61300000001211
312304.5977,6.259906709806358,9.027653235894842,9.0713917965929,8.290858709556197,61.6140000000014
312304.5987,8.103611262791981,9.860852414216977,11.920665808108755,9.667296729211813,61.61499999999069
312304.5997,10.429048209204943,11.056718126837035,15.171633082165942,11.334760770211469,61.616000000038184
312304.6007,13.161976990832546,12.569522997916769,18.733528168246377,13.240928827933065,61.617000000027474
312304.6017,16.23078709790288,14.3577246836878,22.519297021323208,15.34197834845509,61.618000000016764
312304.6027,19.57042739799076,16.38679528401084,26.449863219733565,17.605470361360084,61.619000000006054
312304.6037,23.124551611854038,18.63033716383114,30.456684137529944,20.01123284778029,61.61999999999534
312304.6047,26.845792576333224,21.0694471299537,34.48248608907901,22.5502170945003,61.62100000004284
312304.6057,30.694290192376766,23.690490259769224,38.48027054548187,25.221523205331742,61.62200000003213
312304.6067,34.634793165840705,26.481625044679163,42.41087252940167,28.027991703243632,61.62300000002142
312304.6077,38.63281297653057,29.428564472020216,46.239508032276746,30.970916930367174,61.62400000001071
312304.6087,42.65041391047522,32.51014858033075,49.93185400824728,34.04453861419678,61.625
312304.6097,46.64226479000617,35.69433347198843,53.45025142833932,37.23100019879844,61.62599999998929
312304.6107,50.55255199639667,38.93516652067843,56.75060434827832,40.49642285285634,61.62700000003679
312304.6117,54.313262116054936,42.17122085041838,59.78046782338822,43.78863615925394,61.62800000002608
312304.6127,57.844195270187974,45.3258135800449,62.47868303486265,47.03694088960902,61.62900000001537
312304.6137,61.05488182080879,48.309146604401896,64.77674297329028,50.15407229807813,61.63000000000466
312304.6147,63.84836481740806,51.022304445288775,66.60187444895918,53.04030455770268,61.630999999993946
312304.6157,66.12659972210845,53.36284158184979,67.88162245431063,55.58941101857534,61.632000000041444
312304.6167,67.79703328763641,55.23151225269212,68.5495417402677,57.69599354729194,61.633000000030734
312304.6177,68.77977465996939,56.53955750946563,68.55145690437462,59.26353768216679,61.63400000002002
312304.6187,69.01467959505835,57.215881842780924,67.85166168990912,60.212454777408865,61.63500000000931
312304.6197,68.46764334130631,57.21343411870015,66.4384007026486,60.487347880902355,61.6359999999986
312304.6207,67.13544288215252,56.51415760796748,64.32801622828188,60.06278803981541,61.6370000000461
312304.6217,65.04858149572374,55.131987620770694,61.56724643048455,58.94700802947529,61.63800000003539
312304.6227,62.27175789874892,53.11354239151059,58.23331960607586,57.18310021761535,61.63900000002468
312304.6237,58.90179276608676,50.536357735120795,54.43168746009273,54.84752760080353,61.64000000001397
312304.6247,55.06307708570443,47.504739105436,50.29145948951246,52.04600091825559,61.64100000000326
312304.6257,50.90083726813154,44.14352455590173,45.958819203652574,48.90701687265477,61.64199999999255
312304.6267,46.5727187283272,40.5902474058139,41.58889956008859,45.57356961249425,61.64300000004005
312304.6277,42.239352454793725,36.986339060959054,37.33675010540755,42.193718790463606,61.64400000002934
312304.6287,38.054671652191296,33.46810545385891,33.348126220036676,38.91080607350832,61.64500000001863
312304.6297,34.1567773980406,30.158235583958845,29.750861372651567,35.85414726537734,61.646000000007916
312304.6307,30.660109690268445,27.158554818128497,26.64754268100637,33.130985543277646,61.646999999997206
312304.6317,27.64956676841574,24.544622961711188,24.11010153431215,30.820376421162496,61.6480000000447
312304.6327,25.17704154193219,22.36260810804473,22.176764359552052,28.96949769004035,61.64900000003399
312304.6337,23.26062563879448,20.62865787325713,20.851599310042698,27.59265452558134,61.65000000002328
312304.6347,21.88648963374582,19.33075971896426,20.106662432567443,26.673002378730594,61.65100000001257
312304.6357,21.013205428505163,18.432853576518188,19.88651375479037,26.166761727717887,61.65200000000186
312304.6367,20.578056674045566,17.880754733164654,20.114661929499633,26.009472916707814,61.65299999999115
312304.6377,20.50470657466254,17.60928253114334,20.701325795994947,26.123657594833304,61.65400000003865
312304.6387,20.71147626360711,17.549886358834375,21.551788736591515,26.427132893744133,61.65500000002794
312304.6397,21.11944225326282,17.638024551850542,22.574577738136536,26.84117671245258,61.65600000001723
312304.6407,21.659592412004177,17.819587463890667,23.688727739183953,27.297771575935403,61.65700000000652
312304.6417,22.27838337407621,18.05575950125139,24.829490273530336,27.745257344487445,61.65799999999581
312304.6427,22.94120811114463,18.325876174725924,25.952004001967023,28.15188931915592,61.65900000004331
312304.6437,23.633494422150193,18.628035471068205,27.032648051673423,28.50701166099587,61.660000000032596
312304.6447,24.35939271161417,18.977448301502744,28.06802745308202,28.81979565838455,61.661000000021886
312304.6457,25.13825154972007,19.40273853955419,29.07177129060171,29.11573489826158,61.662000000011176
312304.6467,25.999298849460487,19.94060730699546,30.069536142557705,29.431311270964297,61.663000000000466
312304.6477,26.97512381163186,20.62943892114308,31.09277958236942,29.807425479834272,61.663999999989755
312304.6487,28.094672937864857,21.502531535761776,32.171984456013675,30.282305998503237,61.66500000003725
312304.6497,29.376521019906665,22.581673811096522,33.3300633427225,30.884659703340912,61.66600000002654
312304.6507,30.82315056536636,23.871756299077894,34.57664959552662,31.627801114665328,61.66700000001583
312304.6517,32.416873390210334,25.35700587806308,35.90388915476265,32.505398075228754,61.66800000000512
312304.6527,34.11786587905456,26.999273330726343,37.2841951373878,33.48930962196634,61.66899999999441
312304.6537,35.86458051697157,28.738603443619937,38.67023001984238,34.529782719073246,61.67000000004191
312304.6547,37.57656106633487,30.496093330838946,39.99715736001903,35.558038917681685,61.6710000000312
312304.6557,39.15945006024258,32.178819760955314,41.18697818465502,36.491042939233694,61.67200000002049
312304.6567,40.51175827840058,33.68641190159225,42.15455846085755,37.23802599973271,61.67300000000978
312304.6577,41.53278779322909,34.918681873074334,42.814783713551144,37.70815878633637,61.67399999999907
312304.6587,42.130980266334745,35.78361766843604,43.0901613079128,37.8186497065683,61.675000000046566
312304.6597,42.231912032708074,36.20500173384088,42.91814129101052,37.50249496706064,61.676000000035856
312304.6607,41.785181968863924,36.12894773439772,42.25744766387073,36.715132968253755,61.677000000025146
312304.6617,40.76953482984402,35.52874485605872,41.092801364703334,35.43935388913692,61.678000000014435
312304.6627,39.195722327234236,34.40755399366385,39.43756529644207,33.68797660898223,61.679000000003725
312304.6637,37.10681133830927,32.79869834019648,37.33403589286603,31.504013608255462,61.679999999993015
312304.6647,34.575883385802456,30.76351310305357,34.85132613915071,28.95827999643705,61.68100000004051
312304.6657,31.701309416195613,28.386943967318334,32.08101032728299,26.144642549758938,61.6820000000298
312304.6667,28.600006027793903,25.771289978195917,29.130909425004592,23.173325482699433,61.68300000001909
312304.6677,25.399262554097188,23.028654121375144,26.117567774338013,20.16287040613232,61.68400000000838
312304.6687,22.227855515958257,20.272778247063595,23.15809056365075,17.23147128711101,61.68499999999767
312304.6697,19.2072261146959,17.610987633922882,20.36206600103243,14.488459587647819,61.68600000004517
312304.6707,16.4434824289023,15.136950246940852,17.824281490833876,12.026695217367918,61.68700000003446
312304.6717,14.020902634372906,12.924869100223422,15.61886122446212,9.916527755099604,61.68800000002375
312304.6727,11.997467562283006,11.025581970614368,13.795311784902925,8.201838762683971,61.68900000001304
312304.6737,10.402754883604343,9.464855388701796,12.376776633732248,6.898475107507566,61.69000000000233
312304.6747,9.238302316254993,8.243947791884908,11.36058797255632,5.995154692940268,61.69099999999162
312304.6757,8.48031529989064,7.342300644640121,10.720986196763,5.456692087408701,61.692000000039116
312304.6767,8.084377900703704,6.722017132570961,10.4136741847751,5.229174846889728,61.693000000028405
312304.6777,7.991644987662489,6.333624840333391,10.381705571625131,5.246542633592373,61.694000000017695
312304.6787,8.13586602565505,6.122507106307391,10.562089008758212,5.43789751634658,61.695000000006985
312304.6797,8.4505279622969,6.035337858946353,10.892435216456139,5.734816619842732,61.695999999996275
312304.6807,8.875412070097084,6.025870925619288,11.316985280394027,6.077952559514904,61.69700000004377
312304.6817,9.361935802348235,6.059514822879547,11.791435450755928,6.422290862679966,61.69800000003306
312304.6827,9.87678759429057,6.11625941102679,12.286107611005509,6.740578089285076,61.69900000002235
312304.6837,10.403546084939942,6.191697670773153,12.787191959878083,7.024625015386272,61.70000000001164
312304.6847,10.942186961675056,6.296086379233628,13.295991434894043,7.28440699952313,61.70100000000093
312304.6857,11.506599388719742,6.451593530241415,13.826305671782915,7.545106939139753,61.70199999999022
312304.6867,12.12043803223354,6.688067601053728,14.400285045136403,7.842453026234732,61.70300000003772
312304.6877,12.81180583736414,7.037815591275665,15.043243349184488,8.216873522108914,61.70400000002701
312304.6887,13.607380259615615,7.529978093096403,15.778025197828672,8.707107368365781,61.7050000000163
312304.6897,14.526650066427855,8.18513048367146,16.619570515744876,9.34396131334143,61.70600000000559
312304.6907,15.576915848646827,9.010715683665554,17.570298911383563,10.144886438447207,61.70699999999488
312304.6917,16.749626560087655,9.997828254227425,18.61685318073306,11.109961474025493,61.708000000042375
312304.6927,18.018484934350095,11.119730555957084,19.72860198473134,12.219725740585295,61.709000000031665
312304.6937,19.339570558748708,12.332303260161117,20.85812074795152,13.435115416967351,61.710000000020955
312304.6947,20.653519228291035,13.57643263847456,21.94366513137764,14.699542014307333,61.711000000010245
312304.6957,21.889582104463873,14.782135893926982,22.913443555138468,15.942932868339804,61.711999999999534
312304.6967,22.971189844883785,15.874043639087215,23.691305096865154,17.087352031201238,61.712999999988824
312304.6977,23.82248530624771,16.777713921296403,24.20330588549611,18.053656292744147,61.71400000003632
312304.6987,24.375180081236504,17.42615967925928,24.38451645447325,18.768531602104577,61.71500000002561
312304.6997,24.575046161202522,17.765940736283703,24.185394840510405,19.171210937284247,61.7160000000149
312304.7007,24.38737917245324,17.762205783399253,23.577079712850473,19.219200258188426,61.71700000000419
312304.7017,23.80086178032961,17.402166163814478,22.5550520285109,18.89243221995842,61.71799999999348
312304.7027,22.829406170432865,16.69663231600721,21.14076373281867,18.195418756746967,61.71900000004098
312304.7037,21.51174835640616,15.679430858361224,19.38102339685541,17.157168595886873,61.72000000003027
312304.7047,19.90878540674511,14.404727058624925,17.3451427930286,15.828855006465865,61.72100000001956
312304.7057,18.0988680083259,12.942483373552845,15.120064328581854,14.279440951887029,61.72200000000885
312304.7067,16.171463198534003,11.372469434404966,12.803885797161247,12.589671317734915,61.72299999999814
312304.7077,14.21976549901447,9.77738390258024,10.498356707661582,10.845004895177132,61.724000000045635
312304.7087,12.332942747764765,8.235739500488098,8.301023873139592,9.12816603050211,61.725000000034925
312304.7097,10.588744720179793,6.815190011373184,6.297742623528335,7.512036471552145,61.726000000024214
312304.7107,9.047173697713534,5.566939130320359,4.556239867997585,6.053577651497839,61.727000000013504
312304.7117,7.745818954439205,4.521769249736972,3.1213189002090305,4.789375119800059,61.728000000002794
312304.7127,6.697300852698832,3.688073274409136,2.0121423933383955,3.733239457568652,61.728999999992084
312304.7137,5.889069847196156,3.052079327576277,1.2218341369516776,2.876097025190011,61.73000000003958
312304.7147,5.285580529914683,2.580245467661821,0.7194205581005626,2.188178863281775,61.73100000002887
312304.7157,4.832632723644112,2.223589993252147,0.4539111225633606,1.6232890331939807,61.73200000001816
312304.7167,4.463462722686438,1.9235332335082296,0.3601137977390849,1.1247269697585258,61.73300000000745
312304.7177,4.105998451250504,1.6186775031222795,0.36561754895722715,0.632272467468602,61.73399999999674
312304.7187,3.6905791308741347,1.2518578662411985,0.39826429557329046,0.08953327023156826,61.73500000004424
312304.7197,3.157394163074675,0.7767668985337257,0.3933885580091494,-0.5490851202876906,61.73600000003353
312304.7207,2.4629219656635746,0.16349490056827312,0.3001285415682905,-1.3124955151054818,61.73700000002282
312304.7217,1.584745087088564,-0.5975704431710103,0.08620522125237856,-2.208736914684375,61.73800000001211
312304.7227,0.5242739279076991,-1.4938838573420539,-0.25928284026774995,-3.222917698467725,61.7390000000014
312304.7237,-0.6928872064834604,-2.491123998157227,-0.7253063374615535,-4.3175305493428455,61.73999999999069
312304.7247,-2.0189706795174454,-3.535801800295151,-1.280631471861937,-5.43514382955575,61.741000000038184
312304.7257,-3.3882804535617264,-4.559864014908392,-1.8776402765149796,-6.503240344910027,61.742000000027474
312304.7267,-4.723226386114758,-5.486865070714555,-2.4578549137361128,-7.440761430251393,61.743000000016764
312304.7277,-5.941579320987991,-6.2391256659306356,-2.958609335377752,-8.165742972951866,61.744000000006054
312304.7287,-6.964250795483587,-6.745197419143575,-3.3201996871347816,-8.603317278284946,61.74499999999534
312304.7297,-7.722850938186388,-6.946919238889901,-3.4927982603162713,-8.693311820971246,61.74600000004284
312304.7307,-8.166300077657665,-6.805386249134199,-3.4424391834713055,-8.396707386864874,61.74700000003213
312304.7317,-8.265861520796168,-6.305252884475149,-3.1554750982957094,-7.700321116843423,61.74800000002142
312304.7327,-8.018115878498897,-5.456948521245144,-2.6410538544453677,-6.619244769863676,61.74900000001071
312304.7337,-7.445596273729193,-4.296581666050035,-1.9313581121137398,-5.1967793328579175,61.75
312304.7347,-6.59502935601775,-2.883528221670951,-1.0795696739831053,-3.501843625338138,61.75099999998929
312304.7357,-5.533357294310541,-1.2959194968453334,-0.15574294512130107,-1.6240739507950348,61.75200000003679
312304.7367,-4.341928438536445,0.3755548461440631,0.7590236386747236,0.33294899493041413,61.75300000002608
312304.7377,-3.1094185126259797,2.0349540743879975,1.5795630531797642,2.2597320165639196,61.75400000001537
312304.7387,-1.9241631945634576,3.588824716911841,2.224094871914003,4.0494270337693274,61.75500000000466
312304.7397,-0.8666353409498028,4.953651735984378,2.621446347117538,5.606132274767284,61.755999999993946
312304.7407,-0.002781041068587083,6.062334304293278,2.7173485388233525,6.852180602196065,61.757000000041444
312304.7417,0.6211597507865954,6.869093932775553,2.4792070125635304,7.7337564066709055,61.758000000030734
312304.7427,0.9818711700036359,7.35237526187833,1.8988953974686462,8.224343006463334,61.75900000002002
312304.7437,1.0799357606254487,7.515494096200253,0.9933125980263436,8.325709989778623,61.76000000000931
312304.7447,0.9385040294082271,7.385004308514484,-0.19733825349414844,8.066384273153304,61.7609999999986
312304.7457,0.599823918458699,7.006973959539998,-1.613370267808646,7.4977871075012335,61.7620000000461
312304.7467,0.12000324177341717,6.4415601435489265,-3.181151288945954,6.688438779491413,61.76300000003539
312304.7477,-0.43745135903526616,5.75643238981734,-4.819814427001024,5.716812171264527,61.76400000002468
312304.7487,-1.008659357298946,5.019700462919659,-6.448484122012223,4.6635384608152926,61.76500000001397
312304.7497,-1.5362452868397034,4.2930439777967155,-7.993315442257135,3.6037215068187085,61.76600000000326
312304.7507,-1.9753819330672242,3.625714558995533,-9.393667614838082,2.600097052226526,61.76699999999255
312304.7517,-2.2983963850394753,3.0499891866395075,-10.606822699625468,1.6976811890485324,61.76800000004005
312304.7527,-2.4974852329257984,2.578505132431723,-11.610807848138563,0.9203988886052566,61.76900000002934
312304.7537,-2.5852773889990157,2.2037172184011373,-12.405070088841958,0.2699831675152397,61.77000000001863
312304.7547,-2.593200588342072,1.8995057726971734,-13.008967200260946,-0.27279152644249144,61.771000000007916
312304.7557,-2.5678289714762266,1.6247495335677704,-13.458255777245931,-0.7447094822866543,61.771999999997206
312304.7567,-2.5655923072116344,1.3284829133751122,-13.799956603540274,-1.194928234132559,61.7730000000447
312304.7577,-2.6463922471145485,0.9561005899915999,-14.08613829811468,-1.678562038519853,61.77400000003399
312304.7587,-2.8667811895751854,0.45596964548467667,-14.367267053898455,-2.249706722770269,61.77500000002328
312304.7597,-3.273403965628885,-0.21422957987341076,-14.685812608923126,-2.9546286863407984,61.77600000001257
312304.7607,-3.8973772253676926,-1.0820843855795397,-15.07077421087522,-3.8258191686781577,61.77700000000186
312304.7617,-4.750188611983472,-2.156509960797069,-15.53369785154235,-4.8775236334093925,61.77799999999115
312304.7627,-5.82154674416233,-3.4256984710007186,-16.066606563704394,-6.103204561555445,61.77900000003865
312304.7637,-7.079418639056322,-4.8571777842353265,-16.642073813410843,-7.475199314407859,61.78000000002794
312304.7647,-8.472272743672127,-6.399990051280844,-17.21545488162078,-8.9466126441481,61.78100000001723
312304.7657,-9.93332484532101,-7.988788662548324,-17.72907382486834,-10.455257986241238,61.78200000000652
312304.7667,-11.386382708508982,-9.549460212570278,-18.11796558395669,-11.929255235666687,61.78299999999581
312304.7677,-12.752723347125615,-11.005724958265741,-18.316613650565017,-13.293725742527265,61.78400000004331
312304.7687,-13.958330527882794,-12.286069992241694,-18.266019187833955,-14.477914281691504,61.785000000032596
312304.7697,-14.940780089785207,-13.330333798516728,-17.920398070609657,-15.422023718929196,61.786000000021886
312304.7707,-15.655091107320322,-14.095292579411256,-17.25283202851743,-16.083075342466802,61.787000000011176
312304.7717,-16.07795903147462,-14.558694684615107,-16.259296227100585,-16.43920362813102,61.788000000000466
312304.7727,-16.209943241657967,-14.721340261153445,-14.960638977334556,-16.491949048138935,61.788999999989755
312304.7737,-16.075380700968786,-14.606994096690807,-13.402284969699364,-16.266311062990898,61.79000000003725
312304.7747,-15.720020120124758,-14.260131812324923,-11.651652460760232,-15.808545967323564,61.79100000002654
312304.7757,-15.206595329288591,-13.741732218306995,-9.793495856998401,-15.181918719575114,61.79200000001583
312304.7767,-14.608760338454172,-13.123520845598115,-7.923586569732811,-14.46082198626206,61.79300000000512
312304.7777,-14.003971692143502,-12.481222456066833,-6.141307159905323,-13.72383907768585,61.79399999999441
312304.7787,-13.466009982280351,-11.887478604903558,-4.541840758573793,-13.046433940886857,61.79500000004191
312304.7797,-13.057871099077783,-11.405120301305496,-3.208679004478242,-12.493990215033424,61.7960000000312
312304.7807,-12.825724897112018,-11.081452006670217,-2.207143146360005,-12.1158885252624,61.79700000002049
312304.7817,-12.794537373926689,-10.9441047928286,-1.5795171865814759,-11.941209756532011,61.79800000000978
312304.7827,-12.965791893896935,-10.998862977539654,-1.3422382246699405,-11.976491866361233,61.79899999999907
312304.7837,-13.317540954992673,-11.22967491268912,-1.4853923929088713,-12.205764557199032,61.800000000046566
312304.7847,-13.806792324905224,-11.600843750709965,-1.9745440801180532,-12.592859829268113,61.801000000035856
312304.7857,-14.374004290715492,-12.061179014166747,-2.754702992137036,-13.085769405773584,61.802000000025146
312304.7867,-14.949256718861326,-12.549695769281994,-3.756029738247565,-13.622614739412466,61.803000000014435
312304.7877,-15.459498078642675,-13.002294282030537,-4.900715937558504,-14.138632173836362,61.804000000003725
312304.7887,-15.836160023904378,-13.358754459692095,-6.110365371636486,-14.573471157846706,61.804999999993015
312304.7897,-16.02239142021229,-13.569346010736451,-7.313159142218342,-14.878067797091408,61.80600000004051
312304.7907,-15.979197018651755,-13.60039058582447,-8.450114355042034,-15.020393312927428,61.8070000000298
312304.7917,-15.689869356047973,-13.438212962581426,-9.479839905516634,-14.989483830851121,61.80800000001909
312304.7927,-15.162266088725445,-13.091074950728222,-10.381345235070304,-14.797324152963059,61.80900000000838
312304.7937,-14.428693104510732,-12.588882967935465,-11.154653486850275,-14.478367714218344,61.80999999999767
312304.7947,-13.543386264280402,-11.9806789856249,-11.81919008837801,-14.086707396755576,61.81100000004517
312304.7957,-12.577818909598365,-11.33014341822742,-12.410139824986366,-13.691144565197952,61.81200000003446
312304.7967,-11.614275495867476,-10.70953609697951,-12.973168082859873,-13.368613761693702,61.81300000002375
312304.7977,-10.738303008329007,-10.192658311860338,-13.558065164441379,-13.196587260174486,61.81400000001304
312304.7987,-10.030764348958494,-9.84751952344509,-14.211980293377485,-13.245190580346966,61.81500000000233
312304.7997,-9.5602604790138,-9.729426687186782,-14.972953450778924,-13.569796348617757,61.81599999999162
312304.8007,-9.376656378596344,-9.875178587278493,-15.864424332167511,-14.204825670303707,61.817000000039116
312304.8017,-9.506342681701431,-10.298945351230651,-16.891301209648717,-15.159376810680975,61.818000000028405
312304.8027,-9.949699971235345,-10.990254132006863,-18.038017703736344,-16.41513078976465,61.819000000017695
312304.8037,-10.681022008807936,-11.914301104580018,-19.268807531214232,-17.926768758193063,61.820000000006985
312304.8047,-11.650917958932068,-13.014586825009243,-20.530205580530403,-19.62489740738896,61.820999999996275
312304.8057,-12.790974796113543,-14.217648243895574,-21.755559923405897,-21.421239222790252,61.82200000004377
312304.8067,-14.020242699690534,-15.439457949513368,-22.87113558820896,-23.215627293560225,61.82300000003306
312304.8077,-15.252929525418969,-16.59289921248788,-23.803227170210757,-24.90417069522998,61.82400000002235
312304.8087,-16.406572544673693,-17.595619841546583,-24.485589828525935,-26.387843025927094,61.82500000001164
312304.8097,-17.409908008101645,-18.37752898627474,-24.86645764507199,-27.580704529001622,61.82600000000093
312304.8107,-18.20968634821528,-18.887232608292372,-24.91444890495439,-28.417001486569674,61.82699999999022
312304.8117,-18.77578034587387,-19.09680231790093,-24.62275687562967,-28.85649201308476,61.82800000003772
312304.8127,-19.104095706481868,-19.004429038419385,-24.011182719358246,-28.887514803470715,61.82900000002701
312304.8137,-19.217002523976163,-18.634712328539564,-23.125769118051057,-28.5275305774316,61.8300000000163
312304.8147,-19.161241835349948,-18.03655888109676,-22.03601958657127,-27.821104269664225,61.83100000000559
312304.8157,-19.003501122073168,-17.2788882317007,-20.829917472360908,-26.83553640022781,61.83199999999488
312304.8167,-18.824073108991463,-16.444548447312936,-19.607168189341,-25.65457132289901,61.833000000042375
312304.8177,-18.70919237959463,-15.623009908354996,-18.471258095585597,-24.370787105775445,61.834000000031665
312304.8187,-18.742766978029405,-14.902515527211259,-17.521037225057384,-23.077389727154547,61.835000000020955
312304.8197,-18.998275748155756,-14.362410551172813,-16.842579885145007,-21.860181959328273,61.836000000010245
312304.8207,-19.53158185565343,-14.066350565179386,-16.5020524875128,-20.790450532349467,61.836999999999534
312304.8217,-20.375321124668673,-14.056995279025186,-16.54022436077955,-19.91941696331017,61.837999999988824
312304.8227,-21.535369798119472,-14.352647445451208,-16.969103838524013,-19.27473780460308,61.83900000003632
312304.8237,-22.989695397635437,-14.946105618417864,-17.77098353268724,-18.859334963083366,61.84000000002561
312304.8247,-24.689666291298664,-15.805785282698368,-18.899954606997298,-18.652606501089927,61.8410000000149
312304.8257,-26.56366268207467,-16.87894621293938,-20.285721704461956,-18.613835647948882,61.84200000000419
312304.8267,-28.522616656537252,-18.096665917081953,-21.839339921741885,-18.687403460427216,61.84299999999348
312304.8277,-30.46693245828804,-19.380038892422405,-23.46032300224959,-18.809239402441396,61.84400000004098
312304.8287,-32.294117149804215,-20.646974542856704,-25.044454096120212,-18.91383066730053,61.84500000003027
312304.8297,-33.906397637655026,-21.81892300854856,-26.491577993936996,-18.941066191460212,61.84600000001956
312304.8307,-35.217617364384594,-22.82688157482018,-27.712671235645022,-18.84221906130304,61.84700000000885
312304.8317,-36.15879244930593,-23.616121832999124,-28.63557162023122,-18.58446826891982,61.84799999999814
312304.8327,-36.68185350806119,-24.149220095844996,-29.208892476361275,-18.15351754808318,61.849000000045635
312304.8337,-36.76129072745045,-24.407156049013867,-29.40383496443262,-17.55406947485476,61.850000000034925
312304.8347,-36.393636568154264,-24.38844863363662,-29.213824775333403,-16.8081370127896,61.851000000024214
312304.8357,-35.59494082329089,-24.10650300845637,-28.652116600531453,-15.95139978016254,61.852000000013504
312304.8367,-34.396594523138226,-23.585527420205224,-27.747709132106987,-15.028015984469578,61.853000000002794
312304.8377,-32.84002213447403,-22.855525250385824,-26.540075432080027,-14.084462805969915,61.853999999992084
312304.8387,-30.97086939411066,-21.946960641457128,-25.0733224146211,-13.16308175648851,61.85500000003958
312304.8397,-28.83335624009541,-20.8857265448201,-23.390438405108743,-12.296040676094673,61.85600000002887
312304.8407,-26.465436583219397,-19.689008694105265,-21.528265160620116,-11.50038682685092,61.85700000001816
312304.8417,-23.89531204309742,-18.362541423154312,-19.513743022364956,-10.774759425694995,61.85800000000745
312304.8427,-21.139694933406346,-16.899601218951496,-17.361834184044852,-10.098165183160129,61.85899999999674
312304.8437,-18.20402216188733,-15.281896522327703,-15.07534413332927,-9.431013067800842,61.86000000004424
312304.8447,-15.084605984639238,-13.48230646078646,-12.646653981325022,-8.71837494607109,61.86100000003353
312304.8457,-11.772491667853775,-11.469217742584217,-10.061167674493019,-7.89520957585631,61.86200000002282
312304.8467,-8.258598102484079,-9.212028544563712,-7.302089139939051,-6.893081343040412,61.86300000001211
312304.8477,-4.539565226261336,-6.687249379741553,-4.3559944188124256,-5.647742651838933,61.8640000000014
312304.8487,-0.62363758196063,-3.884548090947332,-1.2185680785707307,-4.106846371549245,61.86499999999069
312304.8497,3.4641133449108397,-0.8120682595949418,2.1001584499277572,-2.2370227919752126,61.866000000038184
312304.8507,7.67788073999066,2.4995999698993714,5.571692976790951,-0.02959791451132129,61.867000000027474
312304.8517,11.94906841800095,5.995304454229661,9.146619049894165,2.495656831956533,61.868000000016764
312304.8527,16.186461808271897,9.595412510656908,12.754153557945155,5.289179541674445,61.869000000006054
312304.8537,20.278783666113487,13.198227064880843,16.303901154846923,8.272895405590946,61.86999999999534
312304.8547,24.099562234945356,16.684653623980694,19.689765494562295,11.344093013381759,61.87100000004284
312304.8557,27.51400913208188,19.924815983045985,22.795761954371635,14.381632900951267,61.87200000003213
312304.8567,30.387397836437728,22.786124962037267,25.503282804205078,17.254001679564674,61.87300000002142
312304.8577,32.59427167969186,25.142154409840167,27.69921278803714,19.828548388863307,61.87400000001071
312304.8587,34.02770887447548,26.88158703928249,29.284196043721565,21.98112348571458,61.875
312304.8597,34.60784178420005,27.916468647104384,30.180324017094655,23.605296344745778,61.87599999998929
312304.8607,34.288871987191456,28.189055732757325,30.337551969799897,24.62035869961075,61.87700000003679
312304.8617,33.063938187181094,27.676654510855464,29.738255568076568,24.977426227397864,61.87800000002608
312304.8627,30.967370308943483,26.39401848400964,28.399499199365998,24.663118613314044,61.87900000001537
312304.8637,28.0740839796139,24.393081387713703,26.372788958993528,23.700514032411636,61.88000000000466
312304.8647,24.496114529665153,21.76003284731101,23.741306553407014,22.147316652702518,61.880999999993946
312304.8657,20.376535830839686,18.609973927447953,20.61484442389532,20.09142257491416,61.882000000041444
312304.8667,15.881233775937009,15.079597432586942,17.12286589009049,17.644297342317202,61.883000000030734
312304.8677,11.189186131207045,11.318504021438244,13.406277743198602,14.932765475159272,61.88400000002002
312304.8687,6.482023067506497,7.4798746306390145,9.608611067021654,12.089942086651407,61.88500000000931
312304.8697,1.9336947890362886,3.7112625370226042,5.867349086561764,9.246096840653065,61.8859999999986
312304.8707,-2.2989500610024836,0.1462411915098316,2.3061148301360253,6.520226379892195,61.8870000000461
312304.8717,-6.083966402111932,-3.1024500049381634,-0.9716606932433067,4.013025140531057,61.88800000003539
312304.8727,-9.319943745632711,-5.947770930285942,-3.887117926613729,1.8017953549277457,61.88900000002468
312304.8737,-11.939119454079787,-8.33095919787786,-6.3881147460137875,-0.062359797202859134,61.89000000001397
312304.8747,-13.907859378034544,-10.221740595078442,-8.449071996765525,-1.5549408496265926,61.89100000000326
312304.8757,-15.224628107856915,-11.616309093274225,-10.068668057036467,-2.6761663056950957,61.89199999999255
312304.8767,-15.915790819177252,-12.533414191330062,-11.265729810686514,-3.4471224787019437,61.89300000004005
312304.8777,-16.02977048550255,-13.00905592589439,-12.073827768590562,-3.904451839197241,61.89400000002934
312304.8787,-15.630211351063705,-13.090397761563269,-12.535190680371365,-4.094205676018005,61.89500000001863
312304.8797,-14.788860738998254,-12.829554963300518,-12.694599888361493,-4.065544432627862,61.896000000007916
312304.8807,-13.578871768604584,-12.27789736365884,-12.593902164991276,-3.864956596647939,61.896999999997206
312304.8817,-12.06915155792657,-11.481423595918521,-12.267694665112597,-3.5315867794797726,61.8980000000447
312304.8827,-10.320241852611614,-10.477627984462398,-11.740595984870133,-3.094124626941991,61.89900000003399
312304.8837,-8.3820363678511,-9.294105729670111,-11.026337554584746,-2.569523243762998,61.90000000002328
312304.8847,-6.293430368632691,-7.948944966633215,-10.128708018716868,-1.9636079806350013,61.90100000001257
312304.8857,-4.083784466101704,-6.452755879143937,-9.044180284876221,-1.2734251854802876,61.90200000000186
312304.8867,-1.7758878944723742,-4.812007468416119,-7.76586705667603,-0.49098755509138176,61.90299999999115
312304.8877,0.6100535637115901,-3.0331999612390352,-6.288304468345525,0.39208219934469984,61.90400000003865
312304.8887,3.0519873216740385,-1.1273095472130645,-4.612469710609709,1.379608681743311,61.90500000002794
312304.8897,5.521767963009295,0.8860887043787984,-2.750406840447174,2.466258195921613,61.90600000001723
312304.8907,7.981698786467256,2.9755812611878105,-0.7288686746003585,3.6338748802773844,61.90700000000652
312304.8917,10.3823761696636,5.09602867115271,1.4085213869652993,4.84926687281287,61.90799999999581
312304.8927,12.662208188038818,7.188355684128024,3.6009349816272014,6.063799009512753,61.90900000004331
312304.8937,14.748794175378968,9.18116502676487,5.771992340024282,7.214956761118913,61.910000000032596
312304.8947,16.5621451669279,10.994123751534149,7.833357893953169,8.229833770312656,61.911000000021886
312304.8957,18.019517633897916,12.542876255365442,9.690026843366919,9.030284129919355,61.912000000011176
312304.8967,19.041445953512888,13.745065514070074,11.246868207294984,9.53929213553243,61.913000000000466
312304.8977,19.55841202519043,14.526911599492406,12.4158469464338,9.687966196569075,61.913999999989755
312304.8987,19.51749877164145,14.829717993806932,13.12325997415456,9.422475325023587,61.91500000003725
312304.8997,18.888347896722944,14.615660112955226,13.316297616801151,8.710225885786517,61.91600000002654
312304.9007,17.667784653812518,13.872259120177034,12.96828637118105,7.54462614289984,61.91700000001583
312304.9017,15.882580085851123,12.615053415075034,12.08207701403698,5.947902595447492,61.91800000000512
312304.9027,13.589984253094393,10.888139915879918,10.691204295857835,3.9716045056982674,61.91899999999441
312304.9037,10.875866798812671,8.762452121337091,8.858645273348955,1.6946450551108525,61.92000000004191
312304.9047,7.850524179451229,6.3318530643730515,6.673223579756031,-0.7810411887529023,61.9210000000312
312304.9057,4.642434226686121,3.7073280393338237,4.243925354274877,-3.3369168491298042,61.92200000002049
312304.9067,1.390436643330893,1.0097440832603164,1.6925879582029395,-5.845826417517828,61.92300000000978
312304.9077,-1.7650270489320314,-1.6382173890339482,-0.8544240634861692,-8.18088050351137,61.92399999999907
312304.9087,-4.690884201620412,-4.120265572202601,-3.274845109402655,-10.224477985063528,61.925000000046566
312304.9097,-7.269854453542039,-6.334135863188068,-5.4586965354876344,-11.876680518595649,61.926000000035856
312304.9107,-9.407611530601562,-8.197998387287742,-7.315336575909541,-13.062204215336338,61.927000000025146
312304.9117,-11.038080490532755,-9.655093814169739,-8.77877848266877,-13.735413575987362,61.928000000014435
312304.9127,-12.126436264344564,-10.676214940042678,-9.810845423998027,-13.882881892384441,61.929000000003725
312304.9137,-12.669579480680246,-11.259853009003532,-10.401933255833065,-13.52330339384682,61.929999999993015
312304.9147,-12.694096901649061,-11.430045317095187,-10.569375663634757,-12.70478442027585,61.93100000004051
312304.9157,-12.251944100934491,-11.2321742771299,-10.353628790493252,-11.499780730713466,61.9320000000298
312304.9167,-11.414295090829055,-10.727157160499202,-9.812692824623635,-9.998162748279817,61.93300000001909
312304.9177,-10.264167502676905,-9.9846118869211,-9.015346801648503,-8.299059539084727,61.93400000000838
312304.9187,-8.888536883426191,-9.075673383976762,-8.033874849039407,-6.502239463694652,61.93499999999767
312304.9197,-7.370689662961104,-8.066158617664675,-6.936997597828943,-4.699820539719569,61.93600000004517
312304.9207,-5.783528063293554,-7.010734230089027,-5.783688362793143,-2.969063391004328,61.93700000003446
312304.9217,-4.184435393105358,-5.948633247676558,-4.618453619320763,-1.366888281190684,61.93800000002375
312304.9227,-2.6121472054560066,-4.9013071568338615,-3.4685014081996206,0.07341394626196618,61.93900000001304
312304.9237,-1.0858687531671485,-3.872202536623207,-2.343025154433819,1.3430224584778463,61.94000000000233
312304.9247,0.3933478019298713,-2.848636741269024,-1.2346134829725606,2.4559619522866885,61.94099999999162
312304.9257,1.8391796287212525,-1.805535897435138,-0.12258043699059203,3.445234149931988,61.942000000039116
312304.9267,3.2749802673717947,-0.7106114303066733,1.022183583030827,4.357140743926077,61.943000000028405
312304.9277,4.727676501917927,0.4695932052520241,2.2313926957718038,5.2444038708674094,61.944000000017695
312304.9287,6.2212975247909,1.7634417616614255,3.533227347648381,6.158800700171193,61.945000000006985
312304.9297,7.7708539668954435,3.188409106716981,4.946557011022621,7.144068719550735,61.945999999996275
312304.9307,9.377247796141848,4.746383470607229,6.476165868744995,8.229804242525054,61.94700000004377
312304.9317,11.02378948104164,6.4205924602827915,8.10952084392671,9.426972203387782,61.94800000003306
312304.9327,12.674736479298614,8.174517369857586,9.815463948741503,10.725480909077215,61.94900000002235
312304.9337,14.276062994179606,9.952962457029564,11.545014516562407,12.094067336696185,61.95000000001164
312304.9347,15.758445077289352,11.685230368976864,13.23425092401681,13.482507243531614,61.95100000000093
312304.9357,17.042219704682303,13.290142865884102,14.809027317150404,14.825932433433547,61.95199999999022
312304.9367,18.043873537588073,14.6824581807875,16.191089876901792,16.050827632107474,61.95300000003772
312304.9377,18.68345663199428,15.780091217738839,17.305008292616233,17.082111991601682,61.95400000002701
312304.9387,18.892214186183818,16.511454648652027,18.08524624783571,17.85060151414996,61.9550000000163
312304.9397,18.61969565223739,16.822216624228712,18.482669182575876,18.30010914841204,61.95600000000559
312304.9407,17.839638682145086,16.680816687656037,18.46983122269874,18.393472699462276,61.95699999999488
312304.9417,16.554031947280716,16.082191373480093,18.044492038780614,18.11690363351693,61.958000000042375
312304.9427,14.794925739094975,15.049324474418166,17.23097820482822,17.482212211022606,61.959000000031665
312304.9437,12.623766652628781,13.632438443261629,16.0792066689183,16.526670242866942,61.960000000020955
312304.9447,10.128262673523748,11.905863546552796,14.661410646489145,15.310502019560344,61.961000000010245
312304.9457,7.417015540024699,9.962839057297591,13.066829046873313,13.912224250066961,61.961999999999534
312304.9467,4.612366185609095,7.908695044003429,11.394817999384056,12.422264733675783,61.962999999988824
312304.9477,1.8420663249760747,5.853015509151926,9.746997902932167,10.935456655415017,61.96400000003632
312304.9487,-0.7695012074013127,3.901479132646025,8.219146491808274,9.543114610058401,61.96500000002561
312304.9497,-3.109789381128324,2.148103532445262,6.893578042788938,8.325439149781213,61.9660000000149
312304.9507,-5.085507847161616,0.668579961296499,5.832707888342262,7.344964926901283,61.96700000000419
312304.9517,-6.628364123168613,-0.48471847566117165,5.074393501178516,6.641666529859134,61.96799999999348
312304.9527,-7.6986503895447616,-1.285630625871037,4.629478703172535,6.23017578775984,61.96900000004098
312304.9537,-8.286404037235299,-1.734776777842746,4.481761661986375,6.099360310301161,61.97000000003027
312304.9547,-8.410097251974404,-1.857796024666393,4.5903799177147695,6.214285231263504,61.97100000001956
312304.9557,-8.113040491072713,-1.701461639485546,4.894378498899352,6.520350720219832,61.97200000000885
312304.9567,-7.457894659992275,-1.3280810710159818,5.319022038519391,6.94918913180273,61.97299999999814
312304.9577,-6.519857039034771,-0.8087434010027358,5.783248406140484,7.425737943997442,61.974000000045635
312304.9587,-5.37920035834816,-0.21607827207845096,6.20755546919756,7.875794151664258,61.975000000034925
312304.9597,-4.113892145228962,0.3827730789845003,6.52157441129321,8.233313191761729,61.976000000024214
312304.9607,-2.792998334960578,0.9323051728296272,6.670616286623024,8.446744819864303,61.977000000013504
312304.9617,-1.4714838009759394,1.3933400434019745,6.620580013935742,8.483796656220125,61.978000000002794
312304.9627,-0.18687220460398016,1.7458397797265977,6.360770056864708,8.334173674419665,61.978999999992084
312304.9637,1.0419666084580714,1.9896065707439385,5.9043751838729355,8.010043241104484,61.98000000003958
312304.9647,2.21385226790824,2.142848578751837,5.286586350664914,7.544200686510208,61.98100000002887
312304.9657,3.3423250423914808,2.238802122669065,4.560560005137697,6.986137702916626,61.98200000001816
312304.9667,4.451047899342182,2.3207926177969926,3.7916409041296513,6.396422848838763,61.98300000000745
312304.9677,5.568118853885237,2.4362697592576477,3.0504257362354434,5.839969780787283,61.98399999999674
312304.9687,6.71994184284182,2.630451641913258,2.405359264847532,5.378878208193839,61.98500000004424
312304.9697,7.925347261730004,2.94024824813632,1.915597635597486,5.065574205144657,61.98600000003353
312304.9707,9.190625976087944,3.389103593756355,1.6248447747972672,4.936946278146939,61.98700000002282
312304.9717,10.506045711281487,3.9833009469607665,1.5567702459459616,5.01007438964753,61.98800000001211
312304.9727,11.844265578914957,4.710126326919993,1.7124600375833865,5.279990651484278,61.9890000000014
312304.9737,13.160868249960929,5.53809669528696,2.070150822046317,5.719708145992177,61.98999999999069
312304.9747,14.397009395267569,6.419249529644987,2.5872728498112707,6.2825281472859125,61.991000000038184
312304.9757,15.483962364719387,7.293280554939081,3.204598826305963,6.906408134537817,61.992000000027474
312304.9767,16.34913482125436,8.09312710448434,3.85208811259238,7.519965862952686,61.993000000016764
312304.9777,16.92297342845384,8.75144469961431,4.455847740049793,8.049528853774136,61.994000000006054
312304.9787,17.14606903867094,9.207328954871517,4.945520474429948,8.426530456493893,61.99499999999534
312304.9797,16.975738928949983,9.412603498188323,5.261366441426327,8.594513983519843,61.99600000004284
312304.9807,16.391398640872836,9.33703063061349,5.360332989849548,8.515039487230268,61.99700000003213
312304.9817,15.398140984439678,8.971901698993358,5.220504864516992,8.171890593241821,61.99800000002142
312304.9827,14.028104034168544,8.331619049707227,4.843483974903461,7.573141628362702,61.99900000001071
312304.9837,12.339417852253098,7.453075992878542,4.254449815257246,6.750852388222075,62.0
312304.9847,10.412751203734096,6.392856493931182,3.4998782891481404,5.758389192115601,62.00099999998929
312304.9857,8.345712218956608,5.22249126330245,2.6431262318893296,4.6656038485769304,62.00200000003679
312304.9867,6.245568086981915,4.022200412606133,1.7582989188728646,3.55231403816903,62.00300000002608
312304.9877,4.220917672693119,2.8737057697734665,0.9229877867780472,2.5006986223783816,62.00400000001537
312304.9887,2.373060687487593,1.852793067134431,0.21057885048714675,1.5873327360397513,62.00500000000466
312304.9897,0.7878466167926109,1.022335700575436,-0.31712224749831175,0.8756291057659072,62.005999999993946
312304.9907,-0.4712483064093734,0.42645415070157666,-0.6162294876227441,0.4094195128047634,62.007000000041444
312304.9917,-1.3681743011358307,0.08638174806661802,-0.6654576281823052,0.2083065462033093,62.008000000030734
312304.9927,-1.8970178799310287,-0.0015520093121110811,-0.4686800255644519,0.2652505763342325,62.00900000002002
312304.9937,-2.082108920176536,0.13439033581692045,-0.05510031758127572,0.5466460277288065,62.01000000000931
312304.9947,-1.9755051807293136,0.44398358168741864,0.5229967199742709,0.9949048231398671,62.0109999999986
312304.9957,-1.652076742023795,0.8597540833960589,1.1947181328957441,1.5333260867798386,62.0120000000461
312304.9967,-1.2026345807000896,1.3033456322707404,1.8768496770422796,2.072812893057506,62.01300000003539
312304.9977,-0.7257274913176435,1.6929443535841182,2.481373245830478,2.519820118912255,62.01400000002468
312304.9987,-0.31885266073687507,1.9510669792292985,2.9235140053595967,2.784799368845564,62.01500000001397
312304.9997,-0.06987590082163479,2.0119803948982717,3.1295662328313467,2.7903588697556154,62.01600000000326
312305.0007,-0.04943317048063065,1.8280540518585375,3.0437686002949644,2.4783827620705714,62.01699999999255
312305.0017,-0.30498813391937557,1.374447465462323,2.6335909743229213,1.8154526957340726,62.01800000004005
312305.0027,-0.8570606564395024,0.6516928906153555,1.8929466415647465,0.796075460724269,62.01900000002934
312305.0037,-1.6979339186126488,-0.3140668870661918,0.8430413253168416,-0.5565720880456334,62.02000000001863
312305.0047,-2.7929133280115837,-1.4732031920733741,-0.4692058134874907,-2.1924354246896747,62.021000000007916
312305.0057,-4.083971260561781,-2.7568823906846514,-1.9750054937202721,-4.038728581154667,62.021999999997206
312305.0067,-5.495390841429408,-4.083093678602144,-3.589431102981426,-6.006031591134269,62.0230000000447
312305.0077,-6.9408405510231646,-5.363850942193127,-5.218492532166853,-7.995757360067931,62.02400000003399
312305.0087,-8.331186550359012,-6.5128881436969435,-6.766883070472575,-9.908284008671224,62.02500000002328
312305.0097,-9.582292809990268,-7.453125696127101,-8.145676938157992,-11.650995007466266,62.02600000001257
312305.0107,-10.622075260543255,-8.123212881226602,-9.279270427240977,-13.145488845908048,62.02700000000186
312305.0117,-11.396162995199264,-8.482545546037038,-10.110942739227282,-14.333310143461043,62.02799999999115
312305.0127,-11.871667907352684,-8.514309652098966,-10.60655478467123,-15.179705715219463,62.02900000003865
312305.0137,-12.038758956523196,-8.226294783950754,-10.756091093038673,-15.675106912850897,62.03000000002794
312305.0147,-11.909958998333465,-7.649438439346452,-10.572962978176863,-15.834263906189676,62.03100000001723
312305.0157,-11.517308760282779,-6.834280629837697,-10.091209212173537,-15.693186300906904,62.03200000000652
312305.0167,-10.907751732133084,-5.845707719663811,-9.360932330263596,-15.304255150218369,62.03299999999581
312305.0177,-10.137264971386669,-4.756525203312324,-8.442474711631528,-14.73004346356743,62.03400000004331
312305.0187,-9.26437747562667,-3.6405058085641158,-7.3999527868979,-14.036499108208115,62.035000000032596
312305.0197,-8.343768709218995,-2.56560181434742,-6.294819324899712,-13.286194443902163,62.036000000021886
312305.0207,-7.4206205188006695,-1.5879850250191252,-5.180108169530635,-12.532326640800168,62.037000000011176
312305.0217,-6.526308441563167,-0.7474873570686048,-4.095935079569765,-11.81406395123367,62.038000000000466
312305.0227,-5.675872432744497,-0.06486875226667953,-3.0666909175523758,-11.153685540528855,62.038999999989755
312305.0237,-4.867517236726782,0.45884814944733354,-2.1001833335402997,-10.555770952328817,62.04000000003725
312305.0247,-4.084178222049936,0.84094677358973,-1.1887784514465602,-10.008479321738335,62.04100000002654
312305.0257,-3.2969711048964636,1.1136701723976918,-0.3123854119523762,-9.486739862653646,62.04200000001583
312305.0267,-2.4701454550895448,1.3193325595781775,0.5570651744041594,-8.956975962532523,62.04300000000512
312305.0277,-1.5670021556287914,1.5044155539505164,1.4501535970322428,-8.382825462842606,62.04399999999441
312305.0287,-0.5561301297959081,1.7132760999839578,2.3941231775574763,-7.731215466342006,62.04500000004191
312305.0297,0.5827217504701983,1.9821301719097184,3.4073032929096336,-6.978111810149905,62.0460000000312
312305.0307,1.853791526304722,2.3339468983820586,4.494430311096955,-6.113295081839041,62.04700000002049
312305.0317,3.2420269001291717,2.7747947361418626,5.643405368093628,-5.143613634995812,62.04800000000978
312305.0327,4.7117869205728535,3.2920341116137144,6.8238845050709385,-4.094319677438922,62.04899999999907
312305.0337,6.207729525602949,3.8545642139256224,7.987912143267786,-3.0082916198056884,62.050000000046566
312305.0347,7.657873046159482,4.4151239201683525,9.072601497651705,-1.9431647471640552,62.051000000035856
312305.0357,8.978599928054667,4.914438773394977,10.004655929722801,-0.9666109346963326,62.052000000025146
312305.0367,10.081171881555283,5.2868181451117895,10.706334299953287,-0.15020453685782906,62.053000000014435
312305.0377,10.879167241493704,5.4666578153554095,11.10231019825877,0.43753416019298724,62.054000000003725
312305.0387,11.29614938926659,5.395207972395886,11.126774923811714,0.7382301994969673,62.054999999993015
312305.0397,11.272840004774125,5.026934555898165,10.730097461104805,0.7101638785558804,62.05600000004051
312305.0407,10.7731064884288,4.334836204631618,9.884385437723312,0.3335263391173907,62.0570000000298
312305.0417,9.788175999397145,3.3141765436894106,8.587386498957612,-0.3861414567284749,62.05800000001909
312305.0427,8.338649443822483,1.9842426597110487,6.864320660137215,-1.4167206757514963,62.05900000000838
312305.0437,6.474091981114092,0.387930584018712,4.767426459515902,-2.700682732664372,62.05999999999767
312305.0447,4.270202586471029,-1.410831182484351,2.3732185094150067,-4.158608943990662,62.06100000004517
312305.0457,1.8237920421755809,-3.331599234700197,-0.22232955107947872,-5.694788835556896,62.06200000003446
312305.0467,-0.7539955656959842,-5.283464203181262,-2.9102657557519223,-7.204420014045873,62.06300000002375
312305.0477,-3.3456181625197163,-7.1720720600154495,-5.5762349723234035,-8.581772503394733,62.06400000001304
312305.0487,-5.835520611032558,-8.906963754218628,-8.10847527621933,-9.728580568954763,62.06500000000233
312305.0497,-8.118222061694688,-10.40854777988087,-10.405522638194437,-10.561895436228278,62.06599999999162
312305.0507,-10.105389970167213,-11.614055757134919,-12.382939730330055,-11.020676272916447,62.067000000039116
312305.0517,-11.731284797165742,-12.481930034431512,-13.978478988921777,-11.070510498413114,62.068000000028405
312305.0527,-12.95611779613903,-12.994245080275295,-15.155240904154297,-10.706027259662811,62.069000000017695
312305.0537,-13.767065863460365,-13.15695609811777,-15.902581176533989,-9.950783319217313,62.070000000006985
312305.0547,-14.176912525565347,-12.997980090179047,-16.23473613092317,-8.854637983867283,62.070999999996275
312305.0557,-14.220510824912651,-12.563325713958893,-16.187353582573415,-7.488870193078583,62.07200000004377
312305.0567,-13.949470047831536,-11.911677934295732,-15.812314961484784,-5.939503627085935,62.07300000003306
312305.0577,-13.425633828994307,-11.107992948551164,-15.171394540307924,-4.299474060494017,62.07400000002235
312305.0587,-12.71402606618064,-10.216753336639615,-14.32940745949526,-2.6603808029914107,62.07500000001164
312305.0597,-11.87598274556211,-9.295563428219783,-13.347539585245663,-1.1046004145470023,62.07600000000093
312305.0607,-10.963158277443439,-8.389727387421587,-12.277525077445155,0.30149766410934137,62.07699999999022
312305.0617,-10.012997341382698,-7.528351056597204,-11.157244619977652,1.5126037164805468,62.07800000003772
312305.0627,-9.046107312926374,-6.722353078931238,-10.008167780924916,2.5073291970915803,62.07900000002701
312305.0637,-8.065767623125168,-5.964576523721613,-8.834871713545029,3.288632245689078,62.0800000000163
312305.0647,-7.059590651914417,-5.231978348744259,-7.626654308100274,3.881800454065431,62.08100000000559
312305.0657,-6.003126033475943,-4.489661741332126,-6.361044172399932,4.330222247595921,62.08199999999488
312305.0667,-4.8649987290040775,-3.6963267924415693,-5.008813868797649,4.689393468831345,62.083000000042375
312305.0677,-3.613011000390859,-2.8105670139303345,-3.5399461714227587,5.019777072416587,62.084000000031665
312305.0687,-2.2205355362157397,-1.7973477940475617,-1.9299013971188892,5.379244574475475,62.085000000020955
312305.0697,-0.6724918257781594,-0.6339773475069277,-0.16549738430039987,5.815867262047272,62.086000000010245
312305.0707,1.0297658524013795,0.6850760761015082,1.7502536924728875,6.361789334768005,62.086999999999534
312305.0717,2.8652161265207123,2.145058918525446,3.79490872692491,7.028807632509487,62.087999999988824
312305.0727,4.791998915165816,3.709874607915233,5.925358942466319,7.806113902523674,62.08900000003632
312305.0737,6.7485051020540645,5.323267709726476,8.078801673476763,8.66044214623413,62.09000000002561
312305.0747,8.656701655804996,6.912203678978927,10.175904039594764,9.538626281113345,62.0910000000149
312305.0757,10.427440132881548,8.3921797631377,12.125923784297914,10.372335295784284,62.09200000000419
312305.0767,11.967292840357663,9.674008124040283,13.833353288536957,11.084537460631033,62.09299999999348
312305.0777,13.186299991977354,10.671460585515046,15.205494029668465,11.59707296753796,62.09400000004098
312305.0787,14.005908991037023,11.309070534801277,16.160266306024067,11.838602344665341,62.09500000003027
312305.0797,14.366353827930059,11.52936077089584,16.63352319972765,11.752156983435315,62.09600000001956
312305.0807,14.23276207242204,11.29880934510151,16.585172340985544,11.301552061510598,62.09700000000885
312305.0817,13.59938557424108,10.61197473181292,16.0035110443759,10.476027694730522,62.09799999999814
312305.0827,12.491518524204487,9.493366655058598,14.907340220615453,9.292651005446448,62.099000000045635
312305.0837,10.964876996047648,7.996853847582964,13.345624895800638,7.796223733224192,62.100000000034925
312305.0847,9.102447330672732,6.202625354830871,11.394694805711488,6.056676485557272,62.101000000024214
312305.0857,7.0090443699009715,4.211946194933899,9.153205714335455,4.164168860891439,62.102000000013504
312305.0867,4.804032190781556,2.140149874763384,6.735289006290548,2.2223315132969605,62.103000000002794
312305.0877,2.612829371550118,0.10847028540492974,4.262483851396112,0.3402609458759933,62.103999999992084
312305.0887,0.5579317813227476,-1.7645812343638556,1.855156852215981,-1.3760062513360491,62.10500000003958
312305.0897,-1.2497720601020068,-3.371550954229248,-0.37584198362181354,-2.8317667799642687,62.10600000002887
312305.0907,-2.7186486744828446,-4.623379802369308,-2.3365649408554474,-3.9509262982806543,62.10700000001816
312305.0917,-3.7822861757792476,-5.45513085568338,-3.9557667958094114,-4.681630448478535,62.10800000000745
312305.0927,-4.403295288323273,-5.829650426860627,-5.188645845924043,-4.999763653621582,62.10899999999674
312305.0937,-4.5746642591993085,-5.738901567353205,-6.018249251951863,-4.910032628892881,62.11000000004424
312305.0947,-4.318615148957665,-5.202926392300491,-6.454487793732519,-4.444581279541254,62.11100000003353
312305.0957,-3.6831392718225224,-4.266612138997781,-6.530929716815411,-3.659316229179082,62.11200000002282
312305.0967,-2.736599973146313,-2.99463435578916,-6.299749161775913,-2.6283351398102703,62.11300000001211
312305.0977,-1.5609614337904367,-1.4651102396310896,-5.825371909021089,-1.437022789078552,62.1140000000014
312305.0987,-0.24431672631526888,0.23739903727222994,-5.177473865979912,-0.17449611685127597,62.11499999999069
312305.0997,1.1265636039582094,2.028855751949109,-4.424035287734645,1.0738717050462363,62.116000000038184
312305.1007,2.47296359227901,3.832025903681664,-3.6251319833201485,2.233140910693578,62.117000000027474
312305.1017,3.729625724344164,5.581503422415459,-2.828056344080337,3.2440928404251945,62.118000000016764
312305.1027,4.848365958172271,7.227051702458445,-2.0642150843189038,4.066651027296373,62.119000000006054
312305.1037,5.7996304361559945,8.735017915472934,-1.3480618593739557,4.681166052725068,62.11999999999534
312305.1047,6.571939466992763,10.087779037076952,-0.678110316582333,5.0875141965479065,62.12100000004284
312305.1057,7.169381784013027,11.281383083105062,-0.0398578154895146,5.302182283326259,62.12200000003213
312305.1067,7.607520302082231,12.321734358341098,0.5897465991897782,5.353714186378814,62.12300000002142
312305.1077,7.908229970659209,13.219819217523058,1.2368148936556154,5.2770580944484395,62.12400000001071
312305.1087,8.09409311203027,13.986564340428501,1.9246430093767186,5.10746169164522,62.125
312305.1097,8.183017523771438,14.627953435762093,2.6681141986779493,4.874604172118998,62.12599999998929
312305.1107,8.183713736516292,15.140997327486742,3.469025165207316,4.597625387014647,62.12700000003679
312305.1117,8.092573104663506,15.511059691662252,4.312884339474166,4.281616256067688,62.12800000002608
312305.1127,7.892337372046902,15.710895584357797,5.1675822919472765,3.9159804311108677,62.12900000001537
312305.1137,7.552758129403471,15.701576846012594,5.984143513360359,3.4748804189773828,62.13000000000466
312305.1147,7.033230449509746,15.435275813757633,6.699555472779981,2.919761589147017,62.130999999993946
312305.1157,6.287170491251762,14.859676867931523,7.2414561610380455,2.203726701024217,62.132000000041444
312305.1167,5.267713682378936,13.923604545598156,7.534266584687654,1.2773339756672184,62.133000000030734
312305.1177,3.9341578870721046,12.58331563942856,7.506199317771409,0.09523349455628949,62.13400000002002
312305.1187,2.2584804340563513,10.808815411712555,7.096473833232642,-1.3770439880311736,62.13500000000931
312305.1197,0.23122917535752777,8.58953406176378,6.262034133933335,-3.156864333113063,62.1359999999986
312305.1207,-2.133870560937876,5.93874194488051,4.983098006809334,-5.239512575232756,62.1370000000461
312305.1217,-4.797142560001494,2.896187257677844,3.266967080482905,-7.595031893072279,62.13800000003539
312305.1227,-7.692403638849433,-0.47140175282761093,1.149683331878765,-10.167283508672845,62.13900000002468
312305.1237,-10.728801852002881,-4.072111568229816,-1.3046842561928087,-12.87542274896768,62.14000000001397
312305.1247,-13.794997882296563,-7.792881046781322,-4.007118658407227,-15.61775481701062,62.14100000000326
312305.1257,-16.765411411241818,-11.505513887069885,-6.848873521319598,-18.277702315071704,62.14199999999255
312305.1267,-19.50805036375984,-15.074206475222649,-9.708404496472284,-20.731407939183555,62.14300000004005
312305.1277,-21.893280346830576,-18.36398163269753,-12.459424708392856,-22.85633060805484,62.14400000002934
312305.1287,-23.802790355215276,-21.24932489415728,-14.979390088333034,-24.540088030000042,62.14500000001863
312305.1297,-25.1379791991315,-23.622291651911823,-17.157680332902313,-25.688763998174434,62.146000000007916
312305.1307,-25.82702867917639,-25.399393892887463,-18.902770926961676,-26.233938335870857,62.146999999997206
312305.1317,-25.830040741503783,-26.52668075308175,-20.14778805863717,-26.13780794416956,62.1480000000447
312305.1327,-25.141786353149858,-26.982587825309462,-20.85399191766633,-25.3959384608135,62.14900000003399
312305.1337,-23.791827512235074,-26.778330813468187,-21.01192981126681,-24.03740132212966,62.15000000002328
312305.1347,-21.842010291480342,-25.95584058162367,-20.64021966968576,-22.122289889356207,62.15100000001257
312305.1357,-19.381563502607726,-24.58345773092344,-19.782145544391696,-19.736847793767133,62.15200000000186
312305.1367,-16.520251822125832,-22.749804426354647,-18.500448192902322,-16.98665973305613,62.15299999999115
312305.1377,-13.380203567166665,-20.556410262561567,-16.870856329488777,-13.988528757470428,62.15400000003865
312305.1387,-10.0871454558663,-18.109772426537187,-14.975012002134124,-10.86177798446865,62.15500000002794
312305.1397,-6.761819091352222,-15.513568620745508,-12.893486621594871,-7.719757890214831,62.15600000001723
312305.1407,-3.5123228131306656,-12.861710835705301,-10.699558582659503,-4.66230895733805,62.15700000000652
312305.1417,-0.42802134274189413,-10.232832450854303,-8.45433208530124,-1.769826890407393,62.15799999999581
312305.1427,2.4244955151265843,-7.686649969143734,-6.203629034410434,0.90058585407875,62.15900000004331
312305.1437,5.003129006908822,-5.262449004217331,-3.9768966433603046,3.316606633945016,62.160000000032596
312305.1447,7.289615245809188,-2.9797308916665477,-1.7881615219906377,5.469774037696896,62.161000000021886
312305.1457,9.286679887267244,-0.8408424863660798,0.36115226930906535,7.372354638773823,62.162000000011176
312305.1467,11.013396078570242,1.1647816766135377,2.4779172035547163,9.05239785500803,62.163000000000466
312305.1477,12.499305911829124,3.055289722688789,4.572038677625308,10.547551848722845,62.163999999989755
312305.1487,13.777975814168125,4.850619857581362,6.6508639729824255,11.898325012418837,62.16500000003725
312305.1497,14.880698429700251,6.566905240196864,8.713929118539118,13.141520004867957,62.16600000002654
312305.1507,15.831023846228977,8.21170532396126,10.748675863625504,14.30453675138438,62.16700000001583
312305.1517,16.640704850442543,9.780597594746977,12.727672659329661,15.401140727594438,62.16800000000512
312305.1527,17.307484366912544,11.25551456796231,14.60771964065102,16.42913349359282,62.16899999999441
312305.1537,17.814954205119538,12.605022970222754,16.331023244168403,17.370159951911447,62.17000000004191
312305.1547,18.134492738374067,13.786534184986111,17.828410505843372,18.19166151651447,62.1710000000312
312305.1557,18.22906739589574,14.750228221549934,19.024337670456166,18.850758864852864,62.17200000002049
312305.1567,18.0584880868888,15.44428850011207,19.8432540013351,19.299644748338736,62.17300000000978
312305.1577,17.58553991527503,15.820900282869605,20.21672906584155,19.49190676244831,62.17399999999907
312305.1587,16.78232363118215,15.842376244695473,20.090655792648434,19.389098083948635,62.175000000046566
312305.1597,15.636100306869563,15.486747609753628,19.431812264832388,18.966841200182373,62.176000000035856
312305.1607,14.153976093448641,14.752201239316289,18.233106052662666,18.219788982780894,62.177000000025146
312305.1617,12.36586991932904,13.65984813786834,16.516932572733793,17.164875331980767,62.178000000014435
312305.1627,10.32537124137283,12.254466871068702,14.3362436089812,15.842453486466308,62.179000000003725
312305.1637,8.108300388995792,10.603060911228765,11.773128267534814,14.315127660068017,62.179999999993015
312305.1647,5.809010488290098,8.791282747333144,8.934936675232287,12.664312493513924,62.18100000004051
312305.1657,3.5346951424567132,6.917988665510258,5.948204874818177,10.984782331220712,62.1820000000298
312305.1667,1.398167775818816,5.088375588496182,2.950845727904764,9.377676075189466,62.18300000001909
312305.1677,-0.4902631250653604,3.406296694029245,0.08323535219835124,7.942583155448759,62.18400000000838
312305.1687,-2.031099453560165,1.9664412425135016,-2.5210682009982546,6.76943609518884,62.18499999999767
312305.1697,-3.143386124255723,0.8470871821265836,-4.744198062793211,5.930965185592448,62.18600000004517
312305.1707,-3.771159735917729,0.10409011163858453,-6.491700013703886,5.476427693917034,62.18700000003446
312305.1717,-3.8880129552817175,-0.23333683525531465,-7.698460139349994,5.427211725159503,62.18800000002375
312305.1727,-3.499343286745151,-0.16466031748473,-8.332356928706353,5.774744019275186,62.18900000001304
312305.1737,-2.642065809427729,0.28230975012638193,-8.395360347669868,6.480917985887358,62.19000000000233
312305.1747,-1.3818021061439782,1.0541020956247518,-7.922029125605569,7.481023666675257,62.19099999999162
312305.1757,0.19221036261289587,2.0763656222148383,-6.975588913614365,8.688927698615535,62.192000000039116
312305.1767,1.9740350597127672,3.260310886955923,-5.641986232813289,10.004041267971251,62.193000000028405
312305.1777,3.8491598123921387,4.51021980398906,-4.0224862970904525,11.319447754070623,62.194000000017695
312305.1787,5.703100082719008,5.731336324181444,-2.2255007975515233,12.530455273434143,62.195000000006985
312305.1797,7.4297170679885625,6.837420925001875,-0.35838389978542023,13.542802856782888,62.195999999996275
312305.1807,8.938520049886655,7.757290170556756,1.4800832477977786,14.279785942672678,62.19700000004377
312305.1817,10.16032593653657,8.439765485509428,3.205884767821059,14.687673554760698,62.19800000003306
312305.1827,11.050811396677089,8.856612503900259,4.75414853819828,14.738955497042362,62.19900000002235
312305.1837,11.591698508258771,9.003248533490817,6.081408607448722,14.433166975047449,62.20000000001164
312305.1847,11.78954343015854,8.89721169979393,7.165662778197924,13.795269900905,62.20100000000093
312305.1857,11.672327052113744,8.574600199078272,8.004354393968942,12.87180226471632,62.20199999999022
312305.1867,11.284254639327436,8.084882955739724,8.61060812704442,11.725216872193082,62.20300000003772
312305.1877,10.679338039781877,7.484635197105372,9.008213813754445,10.426998187165912,62.20400000002701
312305.1887,9.914443016995738,6.8308493856274675,9.225964346866979,9.050254890020744,62.2050000000163
312305.1897,9.042525301631438,6.174504374391933,9.292002774171142,7.662525733694773,62.20600000000559
312305.1907,8.10674826977342,5.555040693889151,9.228815774485485,6.319503769393717,62.20699999999488
312305.1917,7.136076023944439,4.996291256589358,9.049427941638612,5.06028254928155,62.208000000042375
312305.1927,6.142778049799267,4.504264434995066,8.755212558310374,3.904567770050463,62.209000000031665
312305.1937,5.1220812530345645,4.066985634748022,8.335554066170614,2.8520950161071443,62.210000000020955
312305.1947,4.0539819492113045,3.6563931090172765,7.769393627705328,1.884268973618314,62.211000000010245
312305.1957,2.9070064328840397,3.232074696345188,7.028482709074692,0.9678140730981057,62.211999999999534
312305.1967,1.6435063164541364,2.7464451041568707,6.081981415625744,0.060023311126349815,62.212999999988824
312305.1977,0.22591402256002158,2.1508168033532256,4.901887476652146,-0.8849688882965424,62.21400000003632
312305.1987,-1.3767193279166225,1.4017260338060729,3.468683676342669,-1.9095665764620786,62.21500000002561
312305.1997,-3.182616495027898,0.46684790046787744,1.7765562874247711,-3.0464560478777454,62.2160000000149
312305.2007,-5.19227341530738,-0.670126202557168,-0.16243145306848922,-4.313387131108025,62.21700000000419
312305.2017,-7.38513651203693,-2.006173424565684,-2.3157313701414117,-5.709560201721459,62.21799999999348
312305.2027,-9.718366155687727,-3.5175561011757313,-4.62963825607045,-7.214024103244399,62.21900000004098
312305.2037,-12.12788892394065,-5.160547167356712,-7.030733794329972,-8.786285760533481,62.22000000003027
312305.2047,-14.531713607689742,-6.874230154015815,-9.42941507871654,-10.369106762794663,62.22100000001956
312305.2057,-16.835258350752543,-8.585130749083264,-11.725264377779158,-11.89323798255981,62.22200000000885
312305.2067,-18.938231326223406,-10.213251057765298,-13.813825623187556,-13.283642697071292,62.22299999999814
312305.2077,-20.7424452416785,-11.678933284260905,-15.594201871258512,-14.466601717417321,62.224000000045635
312305.2087,-22.15984290601874,-12.909890987116036,-16.976792054750845,-15.376996472302702,62.225000000034925
312305.2097,-23.11997754319242,-13.847722281464426,-17.89045470181567,-15.965037778957722,62.226000000024214
312305.2107,-23.576231209156763,-14.453262977027265,-18.288424579354462,-16.20175229556498,62.227000000013504
312305.2117,-23.5101641332994,-14.710244643641886,-18.152412300265542,-16.08265139335723,62.228000000002794
312305.2127,-22.93355682681492,-14.626882750966116,-17.494477233095427,-15.629177674921255,62.228999999992084
312305.2137,-21.887919314402307,-14.235217865686845,-16.356465434648765,-14.887736164638529,62.23000000003958
312305.2147,-20.44147751814542,-13.588249209649515,-14.807027573613198,-13.926349783742548,62.23100000002887
312305.2157,-18.68388302371681,-12.755113631882788,-12.936455494210248,-12.829209488695614,62.23200000001816
312305.2167,-16.719106462143053,-11.814753372460107,-10.849778626969298,-11.689595915606441,62.23300000000745
312305.2177,-14.657145929190365,-10.848664279441827,-8.658723314158685,-10.601811373421489,62.23399999999674
312305.2187,-12.605293735259373,-9.93340782150461,-6.4732436016279795,-9.65286268773339,62.23500000004424
312305.2197,-10.659746540328621,-9.133596239880182,-4.39337090990357,-8.91466666720018,62.23600000003353
312305.2207,-8.898311545863365,-8.496017798905031,-2.502098425501478,-8.437507600504402,62.23700000002282
312305.2217,-7.37485799622944,-8.045462264593436,-0.8599170525062416,-8.24536406242133,62.23800000001211
312305.2227,-6.11599872933175,-7.7826456743592365,0.49853713689408485,-8.333551017027576,62.2390000000014
312305.2237,-5.120276720018807,-7.684433651041025,1.565463689394862,-8.668909063595434,62.23999999999069
312305.2247,-4.359896621193668,-7.706343235865117,2.3584697292727874,-9.192536111249503,62.241000000038184
312305.2257,-3.7848037453996137,-7.787085654273294,2.9169212432900604,-9.824820378089187,62.242000000027474
312305.2267,-3.328695460565659,-7.8547176232920535,3.296467435511249,-10.472319947684236,62.243000000016764
312305.2277,-2.916373316125832,-7.833815599725637,3.562298155469089,-11.035863538570364,62.244000000006054
312305.2287,-2.471725091009754,-7.652990560834183,3.7818055071777534,-11.419135849554175,62.24499999999534
312305.2297,-1.9255754776910732,-7.252029829014694,4.017366278044601,-11.53696931926092,62.24600000004284
312305.2307,-1.2226667315948894,-6.587990033353722,4.319937784973463,-11.32259614759342,62.24700000003213
312305.2317,-0.32712368414140397,-5.639667799752376,4.724068912428529,-10.733216661292746,62.24800000002142
312305.2327,0.7740884060002375,-4.410032123780405,5.244779810476124,-9.75340251316721,62.24900000001071
312305.2337,2.0700049213676537,-2.9263992300269863,5.876572802809904,-8.396059970541344,62.25
312305.2347,3.5268678492733936,-1.2383478684395182,6.594622500757241,-6.700909637487696,62.25099999998929
312305.2357,5.091532922120067,0.586410680061631,7.357976132086534,-4.7306720595456015,62.25200000003679
312305.2367,6.6967029767558115,2.4677991056785014,8.114397013945235,-2.565361366224157,62.25300000002608
312305.2377,8.267440232145722,4.320214397131771,8.80632430902748,-0.295261072430158,62.25400000001537
312305.2387,9.728293265205302,6.05978080782939,9.37731622759752,1.986728920069238,62.25500000000466
312305.2397,11.01032398071733,7.611320501188824,9.778301831209085,4.192637901925355,62.255999999993946
312305.2407,12.057340264962699,8.914380866455383,9.97299236648504,6.246150926404326,62.257000000041444
312305.2417,12.830728749779466,9.927755549718562,9.941893722210983,8.08789827966624,62.258000000030734
312305.2427,13.312429962013539,10.632088538717273,9.684507885020839,9.678842496442185,62.25900000002002
312305.2437,13.505790095734422,11.030342053857382,9.219498437530373,11.001494172172094,62.26000000000931
312305.2447,13.434240453039742,11.146120642747778,8.582804474840247,12.058908710086323,62.2609999999986
312305.2457,13.137975620561889,11.020054946774195,7.823897942697051,12.871639424514992,62.2620000000461
312305.2467,12.669002815780608,10.704638418765137,7.000570360379974,13.473026057506756,62.26300000003539
312305.2477,12.085097597104198,10.258060268379005,6.1727871798555105,13.903361710917457,62.26400000002468
312305.2487,11.44330920241904,9.737673484179611,5.396246464057633,14.203589363888488,62.26500000001397
312305.2497,10.793701526294715,9.193768675506293,4.716313257831251,14.409220978758453,62.26600000000326
312305.2507,10.173989016665193,8.66428969608127,4.162968361719467,14.545143701836075,62.26699999999255
312305.2517,9.605633309466336,8.171029100959679,3.7473132158621616,14.62188179868601,62.26800000004005
312305.2527,9.091815587040813,7.7176901886361655,3.4600206144271017,14.633729353396424,62.26900000002934
312305.2537,8.617506505618769,7.2900126709715325,3.2719287927856593,14.55897276045691,62.27000000001863
312305.2547,8.151639368989937,6.857949650512874,3.136762854511017,14.362203220260088,62.271000000007916
312305.2557,7.651174627971429,6.37967526313662,2.9957535015616825,13.998499686720113,62.271999999997206
312305.2567,7.066646543928425,5.80701567146954,2.783729696603482,13.419064023590414,62.2730000000447
312305.2577,6.34862578824729,5.091749568957046,2.4361083861248587,12.57773248922208,62.27400000003399
312305.2587,5.454430746111156,4.192132544372789,1.8961060984245153,11.437687060175506,62.27500000002328
312305.2597,4.3543857282102465,3.078971764607192,1.121464126387331,9.977656891651796,62.27600000001257
312305.2607,3.0369599919603836,1.7406163836787596,0.09001481057764903,8.19693812092065,62.27700000000186
312305.2617,1.5122243097894066,0.18633122591350154,-1.1964818562996704,6.118665937912181,62.27799999999115
312305.2627,-0.18677798879159818,-1.552323258859156,-2.7106439261958752,3.7909363342740923,62.27900000003865
312305.2637,-2.0049465321131525,-3.422288157381994,-4.400128498267414,1.285580398603844,62.28000000002794
312305.2647,-3.868302817694347,-5.351950919832962,-6.190639038255782,-1.3053785660756998,62.28100000001723
312305.2657,-5.689185000968253,-7.255997195573106,-7.991046995502942,-3.8753277391144794,62.28200000000652
312305.2667,-7.373008620096069,-9.041740211099937,-9.700193152263846,-6.3102655027104415,62.28299999999581
312305.2677,-8.82598288200953,-10.61635040890599,-11.214771690040736,-8.496976833636133,62.28400000004331
312305.2687,-9.963069715306146,-11.894315870649445,-12.43759339744395,-10.33145739221183,62.285000000032596
312305.2697,-10.71543880267151,-12.804436673021367,-13.285484207008048,-11.726827004638823,62.286000000021886
312305.2707,-11.036709999410078,-13.295696636113526,-13.696105384982404,-12.620012790957016,62.287000000011176
312305.2717,-10.907381643409261,-13.34146016023907,-13.63307947201032,-12.976591099566598,62.288000000000466
312305.2727,-10.337009239651259,-12.94159997448701,-13.088962215408321,-12.793345339199838,62.288999999989755
312305.2737,-9.363908048892391,-12.122358304967277,-12.085800334606123,-12.09830762132476,62.29000000003725
312305.2747,-8.052385157715968,-10.93396007172811,-10.67323890546247,-10.948285485657808,62.29100000002654
312305.2757,-6.487739277731173,-9.446211161970787,-8.924368966360126,-9.42410828974054,62.29200000001583
312305.2767,-4.769477303475805,-7.74250665022165,-6.929713892552698,-7.624038490654847,62.29300000000512
312305.2777,-3.0033651006144497,-5.912824270883035,-4.789922240459328,-5.65596062088773,62.29399999999441
312305.2787,-1.2930397059868561,-4.046372748170435,-2.607848980390543,-3.6290690511612524,62.29500000004191
312305.2797,0.2680496286743542,-2.2245934855537923,-0.4807554981051728,-1.6458142253970511,62.2960000000312
312305.2807,1.6036373328853963,-0.5151747428075486,1.5066629780333125,0.20516765008860216,62.29700000002049
312305.2817,2.659943697988388,1.0323663932459066,3.2878033898615024,1.854520904194404,62.29800000000978
312305.2827,3.4088166370869573,2.389137056008698,4.817763516380023,3.255575872528854,62.29899999999907
312305.2837,3.848454822053127,3.5471563922518157,6.074755000831229,4.385443600660108,62.300000000046566
312305.2847,4.001686864342363,4.51749421062581,7.059260118468981,5.24377942408988,62.301000000035856
312305.2857,3.9120158644454386,5.326491162307197,7.791093139845991,5.849424759323756,62.302000000025146
312305.2867,3.637852329601839,6.010482739342778,8.304730706032306,6.235343634396752,62.303000000014435
312305.2877,3.2455304027264575,6.609599091541214,8.643441368854614,6.442434825162141,62.304000000003725
312305.2887,2.801815859557441,7.161305619608738,8.852856203800387,6.512905823568357,62.304999999993015
312305.2897,2.366658402688173,7.6943761719524755,8.974669361515874,6.483930948084612,62.30600000004051
312305.2907,1.986911163454153,8.223948589985175,9.041135178257804,6.382279253858626,62.3070000000298
312305.2917,1.6916399564647118,8.748205206868692,9.070939448024395,6.220492229633947,62.30800000001909
312305.2927,1.4894835648014144,9.247058998805128,9.066875698785536,5.995027113904178,62.30900000000838
312305.2937,1.3683199648591096,9.683025114070803,9.01556754600749,5.6865753405990205,62.30999999999767
312305.2947,1.2972621376895894,10.00423704707326,8.889264399851974,5.262537632481867,62.31100000004517
312305.2957,1.2307736065464978,10.149348350131184,8.649521330586577,4.68141026543844,62.31200000003446
312305.2967,1.1144809631185773,10.053865934388893,8.252376363359625,3.8986336394701953,62.31300000002375
312305.2977,0.8920892644362423,9.657308942261801,7.654479617366682,2.8732948445795854,62.31400000001304
312305.2987,0.5126931174799058,8.910493022874205,6.819524439850108,1.5749764551764471,62.31500000000233
312305.2997,-0.06226735421348564,7.782213175075654,5.724291530606583,-0.009985483079160718,62.31599999999162
312305.3007,-0.8531263010884185,6.264642180619868,4.363647091806292,-1.8735270745747772,62.317000000039116
312305.3017,-1.857807235059452,4.37687223752233,2.753932517812274,-3.9827447516660675,62.318000000028405
312305.3027,-3.049790700852014,2.166194442777351,0.9343367409233396,-6.279052218758721,62.319000000017695
312305.3037,-4.378484155862997,-0.29308151074065975,-1.0339618972500213,-8.679797279800264,62.320000000006985
312305.3047,-5.772010781282646,-2.9032364196517295,-3.070878619864937,-11.08229295316342,62.320999999996275
312305.3057,-7.142198430947868,-5.548920697975992,-5.0825040870077105,-13.369981859950308,62.32200000004377
312305.3067,-8.391334668847579,-8.10463976477338,-6.967758983749506,-15.420241621682507,62.32300000003306
312305.3077,-9.420079750039102,-10.443319210813097,-8.626034711314697,-17.113172527257163,62.32400000002235
312305.3087,-10.135813356123101,-12.44521852751042,-9.965128811377195,-18.340603364923382,62.32500000001164
312305.3097,-10.460644157809613,-14.00642548211361,-10.908745135832012,-19.014517546063786,62.32600000000093
312305.3107,-10.338338371528568,-15.04619812266085,-11.402860335462695,-19.074143083188314,62.32699999999022
312305.3117,-9.739521779410973,-15.512524600892753,-11.420357195557159,-18.49106300636412,62.32800000003772
312305.3127,-8.66466968005188,-15.385432680419381,-10.963482352113097,-17.271876907748773,62.32900000002701
312305.3137,-7.144605465048328,-14.677785532520476,-10.063885983799983,-15.458163113366592,62.3300000000163
312305.3147,-5.238461061899253,-13.43352869517886,-8.780224999792425,-13.123733811126518,62.33100000000559
312305.3157,-3.0292889280337376,-11.72358314949265,-7.193537505516604,-10.369419313988429,62.33199999999488
312305.3167,-0.6177328741165597,-9.639789502125025,-5.400803158277804,-7.31583940096563,62.333000000042375
312305.3177,1.885657134397518,-7.287478396648957,-3.5072715273043027,-4.094798366384277,62.334000000031665
312305.3187,4.368759871237622,-4.777356563472387,-1.6182526612896286,-0.8400591654944731,62.335000000020955
312305.3197,6.726108056990571,-2.2174458558047805,0.16888997181747362,2.3217002236644326,62.336000000010245
312305.3207,8.86626434858867,0.2942098425344923,1.7718284706751386,5.278972666437391,62.336999999999534
312305.3217,10.717699021407471,2.6754450351439516,3.1288180636711123,7.94187430667451,62.337999999988824
312305.3227,12.232672121516284,4.8640039444284815,4.202231034414099,10.246450235936397,62.33900000003632
312305.3237,13.38882104289864,6.819418115960365,4.979799915067678,12.156528933879967,62.34000000002561
312305.3247,14.188379405838056,8.522661753972466,5.473512937597917,13.663056128632013,62.3410000000149
312305.3257,14.655182685191555,9.973735363034855,5.716328393804639,14.78107731912866,62.34200000000419
312305.3267,14.829827812624494,11.187528941729504,5.757080131351804,15.544757283206364,62.34299999999348
312305.3277,14.763527353559946,12.188478683481046,5.654114086738555,16.001003475393677,62.34400000004098
312305.3287,14.511317099414198,13.004640228810773,5.46830948135528,16.202381348152553,62.34500000003027
312305.3297,14.125327776227461,13.66184670119854,5.2561873655013756,16.200062043318788,62.34600000001956
312305.3307,13.648812393637241,14.17859712895392,5.063789227764185,16.037522093805034,62.34700000000885
312305.3317,13.111532906532199,14.562233212367763,4.921921797343411,15.745623425785244,62.34799999999814
312305.3327,12.526962465745578,14.806818957672519,4.843219864777544,15.339549624982958,62.349000000045635
312305.3337,11.891567569858143,14.892953163503302,4.82129145477738,14.817876618540637,62.350000000034925
312305.3347,11.186217224976005,14.78953781383245,4.831997698193914,14.163832498275662,62.351000000024214
312305.3357,10.37954553213087,14.45731695077968,4.83670428956573,13.348574455484783,62.352000000013504
312305.3367,9.432891988250997,13.853811497635997,4.787143760306838,12.336103207375094,62.353000000002794
312305.3377,8.306280341477878,12.939124715886434,4.631367390840993,11.089267365390286,62.353999999992084
312305.3387,6.964788334390507,11.68199559659916,4.320158135128029,9.576198411545084,62.35500000003958
312305.3397,5.38461786531777,10.0654432596364,3.813231872379592,7.776472178845636,62.35600000002887
312305.3407,3.5582022261862765,8.091377831523316,3.0845777805453123,5.686319177503579,62.35700000001816
312305.3417,1.4977814167075223,5.783649145164407,2.1263771096863753,3.322300913525456,62.35800000000745
312305.3427,-0.7629712989524323,3.1891545059564232,0.9510841665144746,0.7230229003556302,62.35899999999674
312305.3437,-3.169493559633265,0.37681589622062084,-0.40856057628484604,-2.051348028186927,62.36000000004424
312305.3447,-5.6490525597454795,-2.5655533514442603,-1.901606232128864,-4.921773881484449,62.36100000003353
312305.3457,-8.115422091281895,-5.536262931583278,-3.4628658280608615,-7.795032559432932,62.36200000002282
312305.3467,-10.475102243216297,-8.4262230138193,-5.01840650171067,-10.569989145758868,62.36300000001211
312305.3477,-12.634506507109192,-11.1263179291746,-6.492018441340277,-13.14487712722411,62.3640000000014
312305.3487,-14.507437595774277,-13.535014874545832,-7.8120244045691525,-15.424909919198452,62.36499999999069
312305.3497,-16.02213636440206,-15.565515966379207,-8.917754095881923,-17.32950459416811,62.366000000038184
312305.3507,-17.127221732147884,-17.151798668812127,-9.765037431230713,-18.79843186797754,62.367000000027474
312305.3517,-17.795940402549284,-18.252990074000635,-10.330164933420486,-19.796306053843228,62.368000000016764
312305.3527,-18.02830379413933,-18.855675079959095,-10.611912967104034,-20.31498605005063,62.369000000006054
312305.3537,-17.85089053792029,-18.973932235389167,-10.631421543717844,-20.373658009993918,62.36999999999534
312305.3547,-17.31431659779618,-18.647105090505388,-10.429924279218394,-20.016592531920864,62.37100000004284
312305.3557,-16.488599663832133,-17.93553048379447,-10.064542855211561,-19.308792167637606,62.37200000003213
312305.3567,-15.456847956382562,-16.914637506879156,-9.602550968921557,-18.329946889863347,62.37300000002142
312305.3577,-14.30786597916547,-15.66798318190558,-9.114666152073205,-17.167276073913722,62.37400000001071
312305.3587,-13.128375068628545,-14.279888310368092,-8.668026710828515,-15.907939775629341,62.375
312305.3597,-11.995584358113113,-12.828370010286681,-8.319545441488005,-14.631739444280235,62.37599999998929
312305.3607,-10.97081414991943,-11.379032934462918,-8.110298086061272,-13.404795100871587,62.37700000003679
312305.3617,-10.094771786724488,-9.980482444285446,-8.061505775545363,-12.274785778208473,62.37800000002608
312305.3627,-9.384919742008163,-8.661669768508087,-8.17251643699795,-11.268182603186123,62.37900000001537
312305.3637,-8.835172350879617,-7.431386411550638,-8.420995268984404,-10.389704873030457,62.38000000000466
312305.3647,-8.417931147527657,-6.279911674380454,-8.765317903823949,-9.624008497041972,62.380999999993946
312305.3657,-8.08824123088747,-5.182604027165537,-9.148942935728195,-8.939395062291686,62.382000000041444
312305.3667,-7.789644655145722,-4.105035125019902,-9.506344370356727,-8.293130362943357,62.383000000030734
312305.3677,-7.461141713690281,-3.009113320469004,-9.769928537306726,-7.637803194143996,62.38400000002002
312305.3687,-7.044563321647973,-1.8595465199382175,-9.877259528522002,-6.928054155968373,62.38500000000931
312305.3697,-6.491618073093172,-0.6299616973278294,-9.777882322970767,-6.126970120979459,62.3859999999986
312305.3707,-5.769909884426733,0.6919664657410062,-9.439067092396645,-5.211476259628644,62.3870000000461
312305.3717,-4.867323332464253,2.1009259220623067,-8.849898664310208,-4.176160510495602,62.38800000003539
312305.3727,-3.794334013675761,3.5723107478970855,-8.023292191583964,-3.0351249426896327,62.38900000002468
312305.3737,-2.5840048662742796,5.062698584546481,-6.99571464111205,-1.821658792914865,62.39000000001397
312305.3747,-1.2896565258315988,6.51244906416199,-5.824612579250002,-0.5857492185316261,62.39100000000326
312305.3757,0.019571773966573707,7.850197092655426,-4.5837684882948695,0.6103339672955205,62.39199999999255
312305.3767,1.2648468388213128,8.998823316918639,-3.357008945954032,1.697946022233642,62.39300000004005
312305.3777,2.364861707975468,9.882333074525784,-2.230848851712083,2.6088792322124705,62.39400000002934
312305.3787,3.2434529652309902,10.432979559272168,-1.2867607829734877,3.2823943193578105,62.39500000001863
312305.3797,3.836876504466602,10.597936351285181,-0.5937972244464583,3.6717578927332166,62.396000000007916
312305.3807,4.100035041543746,10.34486199618509,-0.20226198875960824,3.749614926775063,62.396999999997206
312305.3817,4.011051655692678,9.665801420259985,-0.1390286124105478,3.5116347394632923,62.3980000000447
312305.3827,3.5737437541518196,8.579025731890697,-0.4049473906274608,2.9780349435763025,62.39900000003399
312305.3837,2.817755361122486,7.12860809395933,-0.9745841488490525,2.192794152476472,62.40000000002328
312305.3847,1.7963325540098514,5.381749686105077,-1.7983121191345672,1.220590590470298,62.40100000001257
312305.3857,0.5819549335382891,3.42408514246614,-2.8065549309601803,0.14172789369059152,62.40200000000186
312305.3867,-0.7397571485769977,1.3533901729333082,-3.915775412045266,-0.954490849931282,62.40299999999115
312305.3877,-2.0772745281835086,-0.727733555548353,-5.03564131460049,-1.9773241824289296,62.40400000003865
312305.3887,-3.3408375404108144,-2.719524664495399,-6.07669100772204,-2.842375916595537,62.40500000002794
312305.3897,-4.449848284859035,-4.532376499660296,-6.957779919872481,-3.4788621686746217,62.40600000001723
312305.3907,-5.339276620938385,-6.093133673359031,-7.612615926080498,-3.8356681759084945,62.40700000000652
312305.3917,-5.964480341606332,-7.349805917604771,-7.994785975941386,-3.8856147639124092,62.40799999999581
312305.3927,-6.303999034101533,-8.274290107034835,-8.080827558689673,-3.6275247722488166,62.40900000004331
312305.3937,-6.360082768377239,-8.862885938896882,-7.871092046504233,-3.0858906042831107,62.410000000032596
312305.3947,-6.156940982292271,-9.13460516797818,-7.388363429668089,-2.308174791841529,62.411000000021886
312305.3957,-5.736921602140423,-9.127487397264536,-6.674414170751575,-1.3600035378076067,62.412000000011176
312305.3967,-5.155033401378291,-8.893326313642023,-5.7848785027861265,-0.31871634366443824,62.413000000000466
312305.3977,-4.472385902320846,-8.491360267649908,-4.782983146955409,0.7341068042329545,62.413999999989755
312305.3987,-3.749224955255088,-7.981575636958277,-3.732780708297281,1.7204211002996483,62.41500000003725
312305.3997,-3.0382783679908862,-7.4183013942926355,-2.6925719061130526,2.5730475700453193,62.41600000002654
312305.4007,-2.379091158240656,-6.844736010825875,-1.7091756503185087,3.241855163045815,62.41700000001583
312305.4017,-1.7939277068525648,-6.288947183969655,-0.8136138142940986,3.6982033553052425,62.41800000000512
312305.4027,-1.2856584782481078,-5.761731030327728,-0.018629770653974736,3.937224245224315,62.41899999999441
312305.4037,-0.8378478437443252,-5.256525693621113,0.681728837144679,3.9777338013525063,62.42000000004191
312305.4047,-0.4170367594470381,-4.751363845062915,1.3104432439057938,3.8597928400760053,62.4210000000312
312305.4057,0.02300840091327966,-4.212640182769382,1.9039645636727627,3.6401670091731018,62.42200000002049
312305.4067,0.535509720224627,-3.6002844208764713,2.507146527909228,3.386139289613681,62.42300000000978
312305.4077,1.1739412736183377,-2.8737857971295484,3.167206987502456,3.168288454086991,62.42399999999907
312305.4087,1.9850296294999576,-1.9984261609319862,3.927354371260916,3.0529470044632268,62.425000000046566
312305.4097,3.0022111988971347,-0.9510541082675423,4.820750639393243,3.0950826436901937,62.426000000035856
312305.4107,4.240227727946794,0.27522505738255404,5.865450241089717,3.332305378555397,62.427000000025146
312305.4117,5.691435052271182,1.667963595094025,7.060858276731653,3.7805920083484983,62.428000000014435
312305.4127,7.324236684216961,3.194252130300982,8.386099934161335,4.432151794011782,62.429000000003725
312305.4137,9.083848749513658,4.801734415835283,9.800502215446967,5.255647893517032,62.429999999993015
312305.4147,10.895376197801518,6.421710625753474,11.246176882858467,6.1987590774813555,62.43100000004051
312305.4157,12.668954203193291,7.974073909342281,12.652481447689205,7.192837719814542,62.4320000000298
312305.4167,14.306505353935318,9.373638803580267,13.941943977378354,8.159215352269385,62.43300000001909
312305.4177,15.709502528797858,10.537276122572758,15.037086551369457,9.016546114680965,62.43400000000838
312305.4187,16.787025056975537,11.391181436949866,15.867486483332064,9.688476890157531,62.43499999999767
312305.4197,17.463361952199364,11.877582031234196,16.376383653479714,10.110900654454435,62.43600000004517
312305.4207,17.684454111448705,11.96023270055134,16.526179773329645,10.238089699678769,62.43700000003446
312305.4217,17.422573766016942,11.628159707986832,16.302277717430748,10.047113962163818,62.43800000002375
312305.4227,16.678803893906196,10.897274239778628,15.714866376760972,9.540116068792589,62.43900000001304
312305.4237,15.483086815187267,9.80967613897067,14.798453543306174,8.744222659769015,62.44000000000233
312305.4247,13.891839766143455,8.430686272637336,13.60916690032843,7.709100751844303,62.44099999999162
312305.4257,11.983363717328244,6.843860515966611,12.220059978865889,6.502396019426068,62.442000000039116
312305.4267,9.851477930415305,5.144429219526681,10.714854684233833,5.20349466234464,62.443000000028405
312305.4277,7.597976798820767,3.431754673674206,9.180705546277796,3.8962120639731075,62.444000000017695
312305.4287,5.324611588411305,1.8014911174943788,7.700668048387837,2.6611140273842926,62.445000000006985
312305.4297,3.125337669132606,0.3381583920463816,6.346584573421111,1.5682100859611876,62.445999999996275
312305.4307,1.079534253061891,-0.8912010837596894,5.1730634415525305,0.6707200312789632,62.44700000004377
312305.4317,-0.7531979270071691,-1.8417176103956672,4.213122744755092,0.0005082446605837467,62.44800000003306
312305.4327,-2.336214964199923,-2.4933361711977615,3.4759111759633132,-0.43438381339862336,62.44900000002235
312305.4337,-3.6567395061881984,-2.851196251455781,2.946718245761373,-0.649882346712112,62.45000000001164
312305.4347,-4.7244806956485235,-2.94375629949813,2.589265579173543,-0.6837056336203379,62.45100000000093
312305.4357,-5.568166676532121,-2.818883024985887,2.350050867252805,-0.5910965958392743,62.45199999999022
312305.4367,-6.230393612627282,-2.5383162292385246,2.1643179657128164,-0.4388949278739249,62.45300000003772
312305.4377,-6.761355058226209,-2.1710690329757107,1.9630699146756747,-0.29854008695828127,62.45400000002701
312305.4387,-7.212118112337657,-1.7864168962369682,1.680441608838057,-0.2386977193311313,62.4550000000163
312305.4397,-7.6281481796313555,-1.4471579098171752,1.2607152605785872,-0.3182349332209125,62.45600000000559
312305.4407,-8.043749135000184,-1.2037890381476526,0.6642979642416171,-0.5802311610715667,62.45699999999488
312305.4417,-8.477984020467012,-1.0901424612619333,-0.1279169379284553,-1.0476051801578388,62.458000000042375
312305.4427,-8.93248348462065,-1.1208732132030315,-1.1122243770220361,-1.7207758391033947,62.459000000031665
312305.4437,-9.391350977204036,-1.2909993887199394,-2.2620383407280906,-2.57757042917913,62.460000000020955
312305.4447,-9.823155196930573,-1.57748831848116,-3.5300787820150767,-3.575370697648152,62.461000000010245
312305.4457,-10.184783426520367,-1.942677017745097,-4.852594393855354,-4.655264466147777,62.461999999999534
312305.4467,-10.426735964112382,-2.339133254425529,-6.155202806862591,-5.747772713671098,62.462999999988824
312305.4477,-10.49929131867108,-2.715422742841302,-7.359772921123307,-6.779567436394847,62.46400000003632
312305.4487,-10.358879344815337,-3.0221620815552184,-8.391673917847193,-7.680499888590585,62.46500000002561
312305.4497,-9.973974428659778,-3.21771444072157,-9.186681785404854,-8.39023136749917,62.4660000000149
312305.4507,-9.329865857073314,-3.2729276694074554,-9.69687018142576,-8.863802167923202,62.46700000000419
312305.4517,-8.431773271797624,-3.1744179350243034,-9.894914527837065,-9.075584285631288,62.46799999999348
312305.4527,-7.305940720052954,-2.9260556774952233,-9.776396287272561,-9.02122886418475,62.46900000004098
312305.4537,-5.998546859281472,-2.548499020109798,-9.359892776508214,-8.717423707005135,62.47000000003027
312305.4547,-4.572491069035343,-2.0768238405120565,-8.684857042732352,-8.199498982833676,62.47100000001956
312305.4557,-3.102333402493733,-1.556498919626385,-7.807510626572913,-7.5171382495550425,62.47200000000885
312305.4567,-1.6678586207010853,-1.038128878654189,-6.7951679175121225,-6.728645175626252,62.47299999999814
312305.4577,-0.34688161739833584,-0.571519373752947,-5.7195649439208465,-5.894364451111236,62.474000000045635
312305.4587,0.7920016160937633,-0.19969484459563477,-4.6498626255337925,-5.069943416204519,62.475000000034925
312305.4597,1.6959958022847854,0.04648885056766402,-3.646025167946836,-4.300139911489395,62.476000000024214
312305.4607,2.3333533299563385,0.152547862668165,-2.7532353818175017,-3.613829641999658,62.477000000013504
312305.4617,2.696739562411689,0.12291442797284009,-1.9979041132034596,-3.0207478941567953,62.478000000002794
312305.4627,2.8043459776182535,-0.018490811532348175,-1.3856710080906445,-2.510327298296396,62.478999999992084
312305.4637,2.698595386334452,-0.22977419148342815,-0.9015942987882484,-2.0527825070011008,62.48000000003958
312305.4647,2.4425159786039923,-0.4545774776257778,-0.5125078938469143,-1.602364976510116,62.48100000002887
312305.4657,2.114088564056358,-0.6272808640068367,-0.171306445054948,-1.102489061541446,62.48200000001816
312305.4667,1.7990718317466523,-0.6794250772107187,0.17727523913351828,-0.49223645777148034,62.48300000000745
312305.4677,1.5829640291225435,-0.546744949137395,0.5899738328097036,0.28640090454344946,62.48399999999674
312305.4687,1.5428508818079114,-0.17613280487358918,1.118079745385311,1.2812642248238506,62.48500000004424
312305.4697,1.7399095484834841,0.4681579763297813,1.8009966733428875,2.5234960316471318,62.48600000003353
312305.4707,2.213284521942017,1.399699394685946,2.660942360272125,4.022412825003997,62.48700000002282
312305.4717,2.9759283901604956,2.606973634426072,3.6993457887320456,5.7623352065442734,62.48800000001211
312305.4727,4.012819713187207,4.052691765185872,4.895331894956426,7.7017462822436435,62.4890000000014
312305.4737,5.281749028670068,5.6754742622076275,6.206481239060952,9.774928562988341,62.48999999999069
312305.4747,6.716623232354143,7.393798702284797,7.571828710174887,11.895991954932427,62.491000000038184
312305.4757,8.233001308442809,9.111903838613603,8.91684410675239,13.964973709700265,62.492000000027474
312305.4767,9.73536336027366,10.727150398229425,10.159939965589542,15.87548790796199,62.493000000016764
312305.4777,11.125450395666913,12.138195742506452,11.219897708925052,17.523247024359804,62.494000000006054
312305.4787,12.310910194944308,13.25325602991291,12.02350725969798,18.814686607071877,62.49499999999534
312305.4797,13.213454692073071,13.997714067175966,12.51268729977247,19.67490524268704,62.49600000004284
312305.4807,13.775779543854856,14.320385444030748,12.650396267488947,20.054187907876237,62.49700000003213
312305.4817,13.966612626571816,14.197874899700388,12.424754057607235,19.93250645380611,62.49800000002142
312305.4827,13.783433941686956,13.636627973049906,11.85096072009644,19.321574507446535,62.49900000001071
312305.4837,13.252627949062013,12.672493445969634,10.970805266002733,18.264258083071496,62.5
312305.4847,12.427069693765068,11.367839882587973,9.849785037700892,16.831386334968432,62.50099999998929
312305.4857,11.381385205616006,9.80649299544485,8.572082037670386,15.11624595258617,62.50200000003679
312305.4867,10.205341661991332,8.086958359302265,7.233845317185321,13.227254899385013,62.50300000002608
312305.4877,8.995993244421484,6.314547361705027,5.935388445501503,11.279476326081484,62.50400000001537
312305.4887,7.8493183974947005,4.593118759903144,4.773012815826561,9.385735904301203,62.50500000000466
312305.4897,6.8521231522817425,3.017175054055723,3.8312013595679866,7.648135950552757,62.505999999993946
312305.4907,6.074950038376719,1.665009887190148,3.1758899975391257,6.1507149482546435,62.507000000041444
312305.4917,5.566626795874191,0.5934943916622641,2.849419613628902,4.953886049991419,62.508000000030734
312305.4927,5.350924300497731,-0.16507234864889261,2.8676097684543076,4.091114224598214,62.50900000002002
312305.4937,5.42558522111029,-0.6038247244637029,3.219192558763005,3.5680758996752213,62.51000000000931
312305.4947,5.76375440474082,-0.7398998549281653,3.867620711727289,3.3643081917050153,62.5109999999986
312305.4957,6.31761135806309,-0.6109279501476284,4.755039947454472,3.4371199754619446,62.5120000000461
312305.4967,7.023796850873966,-0.2698508454505982,5.808013515265946,3.727326672114479,62.51300000003539
312305.4977,7.810059668422637,0.22137254669615725,6.944426066943315,4.1662047880894795,62.51400000002468
312305.4987,8.602441682575392,0.7985198610413775,8.080890029612652,4.682956549489519,62.51500000001397
312305.4997,9.332279713718933,1.401633874704492,9.13994015141933,5.211939173721197,62.51600000000326
312305.5007,9.942334408768302,1.9806793624011123,10.056334159691648,5.698950305033955,62.51699999999255
312305.5017,10.39145585010125,2.4997821264052797,10.781875917635038,6.105966753228634,62.51800000004005
312305.5027,10.657352511458956,2.9396575616275755,11.288332064177979,6.4138971287707465,62.51900000002934
312305.5037,10.737228597816545,3.298026869968278,11.568208393006591,6.623113928130022,62.52000000001863
312305.5047,10.646274865076666,3.5880280216637357,11.63336876950199,6.751756813999967,62.521000000007916
312305.5057,10.414217799972093,3.8348350061495124,11.511695783549786,6.832024018591795,62.521999999997206
312305.5067,10.080329757731642,4.070882395018163,11.242187265248262,6.904870937413776,62.5230000000447
312305.5077,9.687458761480444,4.330234664004087,10.869037097871306,7.01369437390196,62.52400000003399
312305.5087,9.275735774468059,4.642727093330345,10.435347341809289,7.19768207758983,62.52500000002328
312305.5097,8.876649626294979,5.028528841816077,9.977151944594672,7.485540451394405,62.52600000001257
312305.5107,8.508142263037879,5.493736701493849,9.518397110962113,7.890275504874126,62.52700000000186
312305.5117,8.171273346572315,6.027504305796448,9.067423342086194,8.405597159381779,62.52799999999115
312305.5127,7.848843717574116,6.601056473255919,8.615339205686592,9.004355280656508,62.52900000003865
312305.5137,7.5061676372686,7.168747264502946,8.13648244722624,9.639213267036116,62.53000000002794
312305.5147,7.093963777430841,7.671112110495782,7.590949362497305,10.245541569451067,62.53100000001723
312305.5157,6.553116411348362,8.039659634444238,6.928959687079364,10.746291100253396,62.53200000000652
312305.5167,5.820862846927331,8.202967825267597,6.096632797803033,11.058406924118744,62.53299999999581
312305.5177,4.837810292743541,8.093510013126298,5.0426007879519315,11.100185494915808,62.53400000004331
312305.5187,3.5550903869853374,7.654552571469554,3.724789975805752,10.798879435073056,62.535000000032596
312305.5197,1.9409322426130426,6.8464469191193285,2.11667415187152,10.097822221350318,62.536000000021886
312305.5207,-0.014021828068462073,5.6516854456856604,0.21234345708022181,8.962384309761822,62.537000000011176
312305.5217,-2.2932235577765847,4.078200163362196,-1.9701614287326374,7.384178456562311,62.538000000000466
312305.5227,-4.852947881949114,2.160543836766536,-4.387639153228621,5.3830949804111174,62.538999999989755
312305.5237,-7.623435658413167,-0.041209390680737784,-6.972830309985813,3.006951633230712,62.54000000003725
312305.5247,-10.51241365576731,-2.4447923110154983,-9.637800509648399,0.3287677831025846,62.54100000002654
312305.5257,-13.410728962103663,-4.951039299858603,-12.279351709883205,-2.5581031120678177,62.54200000001583
312305.5267,-16.199631774274312,-7.450697636842587,-14.786012207537532,-5.546547034463572,62.54300000000512
312305.5277,-18.759080477460788,-9.832160968653584,-17.04600004846013,-8.523373627113411,62.54399999999441
312305.5287,-20.976341658355583,-11.9894418279518,-18.95545596797475,-11.37741374629825,62.54500000004191
312305.5297,-22.754125185759474,-13.829676539958623,-20.426210079730446,-14.007298301563402,62.5460000000312
312305.5307,-24.017534057476,-15.27949959292579,-21.392384654477816,-16.328222221341914,62.54700000002049
312305.5317,-24.719216678090845,-16.28973141833079,-21.81523994638066,-18.2771001322715,62.54800000000978
312305.5327,-24.8422752806411,-16.837983175027638,-21.685831144313635,-19.815679724988687,62.54899999999907
312305.5337,-24.400692373540824,-16.92897907513017,-21.025246670411573,-20.931379041915516,62.550000000046566
312305.5347,-23.437267328468987,-16.592611920674834,-19.882421759197083,-21.63583533687652,62.551000000035856
312305.5357,-22.01928533616813,-15.879959977089925,-18.329744990231248,-21.96137396810345,62.552000000025146
312305.5367,-20.23234878739374,-14.857682516828367,-16.456877702696055,-21.955804352703076,62.553000000014435
312305.5377,-18.172966722390218,-13.601359047779471,-14.36336760316184,-21.6761069269014,62.554000000003725
312305.5387,-15.94060551335963,-12.188429204425237,-12.150743011534846,-21.181675058364874,62.554999999993015
312305.5397,-13.629943262387775,-10.691417802006336,-9.91481320115662,-20.52780931646771,62.55600000004051
312305.5407,-11.32403803940472,-9.172090228285358,-7.738869754909379,-19.76012537102006,62.5570000000298
312305.5417,-9.089019571923705,-7.677081311862221,-5.688387123840031,-18.91043487660483,62.55800000001909
312305.5427,-6.970755488346714,-6.235386331590714,-3.8076674009374325,-17.994501314238956,62.55900000000838
312305.5437,-4.9937424979132015,-4.8579113110529955,-2.118679918565814,-17.011875682719122,62.55999999999767
312305.5447,-3.1622498253363744,-3.5390701762959322,-0.622129795843503,-15.947799855233086,62.56100000004517
312305.5457,-1.4635187897555286,-2.2602094868425255,0.6994277838095014,-14.776950018259146,62.56200000003446
312305.5467,0.1273794296760374,-0.9944577253236313,1.8768077956242548,-13.468600408771438,62.56300000002375
312305.5477,1.6415863120322076,0.2875463117927365,2.9482878892529683,-11.992637802227506,62.56400000001304
312305.5487,3.1100608183095484,1.6116785964652167,3.9532139335939807,-10.325764935397437,62.56500000000233
312305.5497,4.55744515902749,2.9947642231545,4.9257979009014585,-8.45720565491728,62.56599999999162
312305.5507,5.9968564793186205,4.440033926646545,5.889758206613262,-6.393268827531416,62.567000000039116
312305.5517,7.426169085201892,5.934110926592834,6.854358930876733,-4.160237787819699,62.568000000028405
312305.5527,8.826194975835373,7.445880146245368,7.812255762028135,-1.8052166752604422,62.569000000017695
312305.5537,10.160972822420232,8.927399883103405,8.73936799463954,0.6052317126911887,62.570000000006985
312305.5547,11.380156898177319,10.316807279856638,9.596786347139735,2.9885999873859657,62.570999999996275
312305.5557,12.423279626584286,11.542964224735817,10.334516624494256,5.251826956831602,62.57200000004377
312305.5567,13.225466094238625,12.531409991933957,10.896670195576865,7.298096333775792,62.57300000003306
312305.5577,13.724025553323617,13.211049010454955,11.227562653305245,9.034425341646497,62.57400000002235
312305.5587,13.86524894594338,13.52092044366177,11.278086718871293,10.379335404668328,62.57500000001164
312305.5597,13.610712483706502,13.416379049565261,11.011693892731648,11.269876002234428,62.57600000000093
312305.5607,12.942428358216318,12.87406598860185,10.409354683612833,11.6673228769197,62.57699999999022
312305.5617,11.866290866995092,11.895159211033082,9.472965981559094,11.560988646467003,62.57800000003772
312305.5627,10.413429193485861,10.506555047295139,8.22682652481163,10.96975644135536,62.57900000002701
312305.5637,8.639280829010465,8.759829849271245,6.716992370276231,9.941158916846744,62.5800000000163
312305.5647,6.620422251893954,6.728043696374821,5.008534908209585,8.548055413150669,62.58100000000559
312305.5657,4.449414054336536,4.500656389607038,3.1809333863929057,6.883186793439458,62.58199999999488
312305.5667,2.228114443307488,2.1770087586864597,1.3220213349781273,5.05208849289606,62.583000000042375
312305.5677,0.06006843857382394,-0.14103829075507476,-0.47894694640880975,3.1649979290112076,62.584000000031665
312305.5687,-1.9573251353273737,-2.356632324032646,-2.1384522396115804,1.3284874037333176,62.585000000020955
312305.5697,-3.74014016885669,-4.384933951079711,-3.5854041322526826,-0.3624213874888661,62.586000000010245
312305.5707,-5.2240590496328965,-6.158956069973306,-4.766728740622821,-1.8309526730896852,62.586999999999534
312305.5717,-6.368744826212754,-7.633708934791679,-5.651310825934162,-3.0234887160707014,62.587999999988824
312305.5727,-7.160044451241039,-8.788286082511437,-6.231908574348754,-3.9122780067442045,62.58900000003632
312305.5737,-7.609825324228439,-9.625725414208322,-6.524855402122709,-4.495731181117437,62.59000000002561
312305.5747,-7.753474595154822,-10.170694887095165,-6.567578253831465,-4.796328021743826,62.5910000000149
312305.5757,-7.645315450302272,-10.465262275891345,-6.414174862459037,-4.856387402230114,62.59200000000419
312305.5767,-7.3523948910680845,-10.563192732760102,-6.1294823710159365,-4.732155085034369,62.59299999999348
312305.5777,-6.947253717044955,-10.523358353119058,-5.782217835486379,-4.486822129144206,62.59400000004098
312305.5787,-6.500386220202631,-10.402926865727077,-5.437862769144122,-4.183183999878716,62.59500000003027
312305.5797,-6.073124978809365,-10.251013778388888,-5.15198989941947,-3.8766779207945596,62.59600000001956
312305.5807,-5.711642340406401,-10.103432139143154,-4.9646879670605255,-3.609491038298943,62.59700000000885
312305.5817,-5.442648948085093,-9.979061444687455,-4.89663368015687,-3.406319143839926,62.59799999999814
312305.5827,-5.2712018352935255,-9.878193204949213,-4.947199137072265,-3.2721862155760135,62.599000000045635
312305.5837,-5.180826567668918,-9.783011369652577,-5.0947837624626855,-3.1925256383229925,62.600000000034925
312305.5847,-5.135929954431338,-9.660150829677756,-5.29934146261362,-3.1354952716611733,62.601000000024214
312305.5857,-5.08625424229959,-9.465067671058002,-5.506857603406321,-3.0562730724831644,62.602000000013504
