TimeStamp,ECR,FCR,ECU,FCU,time_index
312283.9837,7.172280759949005,2.3181284821268586,10.145437448920946,10.98928679050996,41.0
312283.9847,5.883676253677478,1.9428161485298248,9.853984945866792,10.898447393511336,41.00099999998929
312283.9857,4.566845813850646,1.483936587722271,9.397319595506078,10.694525240290734,41.00200000003679
312283.9867,3.194641045633728,0.9118830051036015,8.73898270301755,10.342282110458415,41.00300000002608
312283.9877,1.7463432236050718,0.20802711713880123,7.8562307531011815,9.819552613240603,41.00400000001537
312283.9887,0.21112565101080108,-0.6332374262693372,6.742800545681076,9.119597061492449,41.00500000000466
312283.9897,-1.4100000627717282,-1.6040847100939215,5.409872684061288,8.251590692261745,41.005999999993946
312283.9907,-3.1038926828896987,-2.6844907209932365,3.8851652753299373,7.239222027351516,41.007000000041444
312283.9917,-4.846590963323448,-3.8449398922134,2.210288703938693,6.117581487574884,41.008000000030734
312283.9927,-6.605988425840161,-5.050267576617165,0.4366757781749176,4.92870986475433,41.00900000002002
312283.9937,-8.345486125130817,-6.264174135642934,-1.379449382601332,3.7163252739720223,41.01000000000931
312283.9947,-10.028130941509028,-7.453868478124526,-3.182500898696162,2.5203411341408284,41.0109999999986
312283.9957,-11.620698593546084,-8.594279459209275,-4.9227565998918195,1.3718165484522122,41.0120000000461
312283.9967,-13.097193863469823,-9.671314978683258,-6.560800966845186,0.2889408106741132,41.01300000003539
312283.9977,-14.441313648643805,-10.68374704611163,-8.070692416875625,-0.7254507114609171,41.01400000002468
312283.9987,-15.647543225522261,-11.643446734643662,-9.441499576925668,-1.6844910615832138,41.01500000001397
312283.9997,-16.720718894424607,-12.573871093927082,-10.677027218110121,-2.615885853281299,41.01600000000326
312284.0007,-17.67407326974946,-13.506896511576874,-11.793748678688715,-3.55858249941408,41.01699999999255
312284.0017,-18.525962988784332,-14.478279817431261,-12.817157618905025,-4.557792445099194,41.01800000004005
312284.0027,-19.295642496052963,-15.522190079933797,-13.776927511916558,-5.658841378963445,41.01900000002934
312284.0037,-19.998573737044808,-16.665373349961815,-14.701404056680037,-6.900464376328183,41.02000000001863
312284.0047,-20.64183583103599,-17.921576463735573,-15.612039234513249,-8.308244628217773,41.021000000007916
312284.0057,-21.220212203710492,-19.286856781674206,-16.5183968839227,-9.888906524248558,41.021999999997206
312284.0067,-21.713482670279674,-20.736341051299256,-17.414315568594724,-11.62611396034263,41.0230000000447
312284.0077,-22.08533861403352,-22.22287354984073,-18.27570887012722,-13.478297581494967,41.02400000003399
312284.0087,-22.284181007483,-23.67782241860767,-19.06032599172771,-15.378851745792549,41.02500000002328
312284.0097,-22.245869132041225,-25.014109747837615,-19.709601919804232,-17.238820471190177,41.02600000001257
312284.0107,-21.8982817373116,-26.13131502541749,-20.15251534270429,-18.951952673523298,41.02700000000186
312284.0117,-21.167353094933173,-26.922494060602993,-20.311164969168697,-20.401773752220034,41.02799999999115
312284.0127,-19.984074659479937,-27.282176927531385,-20.107591581453814,-21.47011586367099,41.02900000003865
312284.0137,-18.291827127536745,-27.114876775857134,-19.47123267043265,-22.04639334930181,41.03000000002794
312284.0147,-16.053341555352393,-26.343370121771603,-18.346313377524663,-22.036818542998237,41.03100000001723
312284.0157,-13.256590062805,-24.916006353418794,-16.698460777201085,-21.37273627196375,41.03200000000652
312284.0167,-9.9189780692757,-22.812371032078392,-14.519880933781318,-20.017315419721527,41.03299999999581
312284.0177,-6.089345632472072,-20.046758809814122,-11.832555600081706,-17.96996820144045,41.03400000004331
312284.0187,-1.8474734951100242,-16.669095838294194,-8.689087458506553,-15.268060606402146,41.035000000032596
312284.0197,2.698987288586005,-12.763171664621819,-5.171033585845056,-11.985713201969606,41.036000000021886
312284.0207,7.420005705861426,-8.44227646029974,-1.3847965767632215,-8.229748349270992,41.037000000011176
312284.0217,12.17069548956285,-3.842569016978548,2.5446303231628935,-4.133093875425251,41.038000000000466
312284.0227,16.800289976067322,0.8852972719283142,6.4815653935066155,0.15381946536409705,41.038999999989755
312284.0237,21.16183458675032,5.585608255841216,10.288531071741566,4.472950254173839,41.04000000003725
312284.0247,25.12178136447962,10.107307011572805,13.835381666047248,8.668997821170311,41.04100000002654
312284.0257,28.568661240989975,14.313197127809286,17.007881766754803,12.5993440386293,41.04200000001583
312284.0267,31.42007722256237,18.087881871035997,19.71499475827629,16.142758039788443,41.04300000000512
312284.0277,33.62740018221715,21.343807176479118,21.894253718290035,19.206153343787282,41.04399999999441
312284.0287,35.17774633957471,24.02495064982133,23.514758661046596,21.728868338534603,41.04500000004191
312284.0297,36.09305398470696,26.107913461365484,24.577558560877712,23.684169893117627,41.0460000000312
312284.0307,36.42633470085389,27.600406946445,25.11341376748842,25.077934386334167,41.04700000002049
312284.0317,36.255427417282434,28.53735882252111,25.178171973480755,25.94471661133862,41.04800000000978
312284.0327,35.674808507722915,28.97507337987334,24.8462064269947,26.341650735074403,41.04899999999907
312284.0337,34.78618679123857,28.984046323175605,24.20253829280834,26.34081687698923,41.050000000046566
312284.0347,33.688722170286994,28.641142851060756,23.33437968270919,26.020834373418094,41.051000000035856
312284.0357,32.469740346541386,28.02188741340227,22.322879224651608,25.458496858759364,41.052000000025146
312284.0367,31.196770294824013,27.193582275455636,21.23582406010876,24.721240455852776,41.053000000014435
312284.0377,29.911610095546404,26.209873252139335,20.121953788158436,23.861137649515467,41.054000000003725
312284.0387,28.626941529461053,25.107224895060522,19.007382757216668,22.910946012051777,41.054999999993015
312284.0397,27.32578172866032,23.90356959313327,17.894422652991857,21.882529207439276,41.05600000004051
312284.0407,25.963802728760378,22.599174970908177,16.762867231376923,20.767728522297897,41.0570000000298
312284.0417,24.474290877314303,21.179553139672347,15.573567356618739,19.541519965093418,41.05800000001909
312284.0427,22.775281677201157,19.62003520669233,14.27390952930525,18.16706837576457,41.05900000000838
312284.0437,20.778213520807594,17.891474261849297,12.804635219015127,16.60210756185752,41.05999999999767
312284.0447,18.39731337080714,15.966435111287133,11.107318077451877,14.80595163167364,41.06100000004517
312284.0457,15.558870323626836,13.825189106838934,9.131762572242678,12.74638900171741,41.06200000003446
312284.0467,12.209573727173558,11.460860907585694,6.84260531923826,10.405731648820929,41.06300000002375
312284.0477,8.323188311555109,8.8831675689791,4.224487052233979,7.785385332280603,41.06400000001304
312284.0487,3.90499976399579,6.120339284820181,1.2853097412581083,4.908461946916249,41.06500000000233
312284.0497,-1.0063255975033358,3.219000317829652,-1.9427149143350348,1.8201570390826027,41.06599999999162
312284.0507,-6.339584350057816,0.24199916509824893,-5.404301591539379,-1.414156498932454,41.067000000039116
312284.0517,-11.994455038151044,-2.7356121791782377,-9.02446560141731,-4.712936225596209,41.068000000028405
312284.0527,-17.847137466954653,-5.632059819836058,-12.713683571542173,-7.984185442902017,41.069000000017695
312284.0537,-23.75766770977288,-8.365249653998086,-16.374320605412322,-11.132310893418603,41.070000000006985
312284.0547,-29.578230842518185,-10.859452018810321,-19.907688946660578,-14.065444038212688,41.070999999996275
312284.0557,-35.161727229658894,-13.051599574826644,-23.221052133362083,-16.70250176418123,41.07200000004377
312284.0567,-40.36985419914254,-14.896563080506365,-26.233905971018018,-18.979289658981948,41.07300000003306
312284.0577,-45.08004098898613,-16.370867568774877,-28.88295100466786,-20.853047901123887,41.07400000002235
312284.0587,-49.19071197211207,-17.474463045230028,-31.12531164367616,-22.304996455843263,41.07500000001164
312284.0597,-52.624536586313965,-18.230354172032115,-32.939740201102005,-23.340636871187836,41.07600000000093
312284.0607,-55.329535018689654,-18.6821036612904,-34.32575122876248,-23.987792450148923,41.07699999999022
312284.0617,-57.27812503860951,-18.889433509243755,-35.30084175890892,-24.292594535647495,41.07800000003772
312284.0627,-58.46439571971678,-18.9223360865227,-35.89614530814298,-24.313827589007097,41.07900000002701
312284.0637,-58.900058330540226,-18.85425491597334,-36.151022560106185,-24.11620929340955,41.0800000000163
312284.0647,-58.609637456355294,-18.754988119333913,-36.107194117580214,-23.763287822257684,41.08100000000559
312284.0657,-57.62551590891111,-18.68399677430227,-35.80306051341306,-23.310676151301152,41.08199999999488
312284.0667,-55.98343107853085,-18.684762848047587,-35.26882800957601,-22.80030908995412,41.083000000042375
312284.0677,-53.71894077133745,-18.78074057919867,-34.52296848171412,-22.256305910638417,41.084000000031665
312284.0687,-50.86524242200663,-18.97329099227076,-33.57039714585573,-21.682860205274416,41.085000000020955
312284.0697,-47.452555573174564,-19.24179671489422,-32.40256774766425,-21.064374828569463,41.086000000010245
312284.0707,-43.509082374890674,-19.545942265404157,-30.99947979949922,-20.36783365865475,41.086999999999534
312284.0717,-39.06336539357161,-19.829934245391456,-29.333387333875248,-19.547175821221234,41.087999999988824
312284.0727,-34.14768702533285,-20.028247056784604,-27.373814305428404,-18.54923442723401,41.08900000003632
312284.0737,-28.80201894556017,-20.072331379507094,-25.093337039768645,-17.32064103817753,41.09000000002561
312284.0747,-23.077947924638053,-19.897629257457137,-22.47350389537311,-15.81499509528455,41.0910000000149
312284.0757,-17.04198510479734,-19.45021043190953,-19.51023605116199,-13.999564762084168,41.09200000000419
312284.0767,-10.77771211444785,-18.69238243415552,-16.218094152051467,-11.860825567517775,41.09299999999348
312284.0777,-4.386325104399377,-17.606728233520286,-12.632899821378986,-9.408252272882152,41.09400000004098
312284.0787,2.014703509147566,-16.198180046056272,-8.812358794848114,-6.675947069584453,41.09500000003027
312284.0797,8.294931864940049,-14.493931102693356,-4.834528259561212,-3.721897281286534,41.09600000001956
312284.0807,14.316100619454865,-12.541199837394716,-0.7941856213504818,-0.6248876965753852,41.09700000000885
312284.0817,19.938802504034445,-10.403072243258721,3.20263188443978,2.520676230037474,41.09799999999814
312284.0827,25.030164361643244,-8.152837327375316,7.045458722564355,5.6115705304846575,41.099000000045635
312284.0837,29.471904126680197,-5.867379086202664,10.626999635739832,8.54355298173014,41.100000000034925
312284.0847,33.168052237263716,-3.6202816005691543,13.850802472731681,11.219431076269515,41.101000000024214
312284.0857,36.05162201083721,-1.4753324942271513,16.638290408973944,13.55663487531911,41.102000000013504
312284.0867,38.08957850720299,0.518928793653799,18.934486061755102,15.493573685752274,41.103000000002794
312284.0877,39.28558540512998,2.3330740028138646,20.7118727555359,16.99416770916894,41.103999999992084
312284.0887,39.68019303315878,3.9586727080634585,21.972005887607413,18.050117775043045,41.10500000003958
312284.0897,39.34835113386418,5.408009887106855,22.74469410297265,18.680691424079964,41.10600000002887
312284.0907,38.39436661884309,6.711655999724871,23.08479604432845,18.930041110193535,41.10700000001816
312284.0917,36.94465708401097,7.914124034489907,23.066902062783004,18.862307051739343,41.10800000000745
312284.0927,35.13885314232824,9.06803846456203,22.778369866824324,18.554970207690886,41.10899999999674
312284.0937,33.11995712712874,10.22739044793515,22.31133930989277,18.09108917743353,41.11000000004424
312284.0947,31.024357266973084,11.440547185300385,21.754449168090122,17.551162035259246,41.11100000003353
312284.0957,28.972515786063777,12.743711831845046,21.18500826381093,17.005389666057862,41.11200000002282
312284.0967,27.061094141604553,14.15549083241961,20.662331642802467,16.507077509026647,41.11300000001211
312284.0977,25.357153489094937,15.6731217536161,20.22284357798185,16.0878015335199,41.1140000000014
312284.0987,23.89488488788795,17.27075665750325,19.87738332429153,15.75479254732043,41.11499999999069
312284.0997,22.675098770827166,18.89999914982553,19.610942657399807,15.490777295582479,41.116000000038184
312284.1007,21.667457855587674,20.492676598875498,19.38483612902999,15.256276277645654,41.117000000027474
312284.1017,20.815195006803194,21.965613747526575,19.141077532774457,14.994120064349842,41.118000000016764
312284.1027,20.041840366848074,23.226980978574414,18.808531079642524,14.63573138066629,41.119000000006054
312284.1037,19.259310723208763,24.183638600182924,18.310242818234883,14.108550254405781,41.11999999999534
312284.1047,18.376604533466345,24.748802426998097,17.57125239492725,13.343870684736677,41.12100000004284
312284.1057,17.3083083031094,24.849324916136528,16.526147243829637,12.284320131558756,41.12200000003213
312284.1067,15.982157214257631,24.431923089071432,15.125654096853086,10.89025122372545,41.12300000002142
312284.1077,14.345000933302964,23.467785707955123,13.34166282860275,9.144424614317002,41.12400000001071
312284.1087,12.366693470829956,21.95514769158999,11.170235107181878,7.054532057078506,41.125
312284.1097,10.041637165754647,19.91961428379372,8.632349583901677,4.653322775815489,41.12599999998929
312284.1107,7.38794452355808,17.41223197208921,5.7723568725995,1.9963329750776329,41.12700000003679
312284.1117,4.4444148532991425,14.505516625061178,2.654339672370538,-0.8425454243517154,41.12800000002608
312284.1127,1.2657326404327351,11.287840933893772,-0.6432256043302621,-3.7772083293779275,41.12900000001537
312284.1137,-2.0835390700773146,7.856734343918611,-4.033948998941028,-6.716579168177495,41.13000000000466
312284.1147,-5.535490409982347,4.311744586454705,-7.430488162584039,-9.57222231182463,41.130999999993946
312284.1157,-9.025204981785969,0.7475414553406063,-10.751291834135912,-12.265573384824412,41.132000000041444
312284.1167,-12.496228600777396,-2.7520922447739573,-13.926458855496678,-14.734070530776895,41.133000000030734
312284.1177,-15.904591957839857,-6.118836840366879,-16.90214417867064,-16.935582934052977,41.13400000002002
312284.1187,-19.220976512803354,-9.302585887539498,-19.643097984486907,-18.850705400173823,41.13500000000931
312284.1197,-22.43081834014669,-12.272167762788003,-22.133119606825336,-20.482703508108294,41.1359999999986
312284.1207,-25.532370790727768,-15.014045880650446,-24.373424857282668,-21.85513138078615,41.1370000000461
312284.1217,-28.532970748639197,-17.529212168830973,-26.37914185021704,-23.00737986507106,41.13800000003539
312284.1227,-31.443952156740224,-19.82867298000932,-28.174344814917717,-23.988623365921853,41.13900000002468
312284.1237,-34.27480399341012,-21.92806963982813,-29.78618808053213,-24.850797676356308,41.14000000001397
312284.1247,-37.02726211135835,-23.842062865805314,-31.238797961742815,-25.6413423565665,41.14100000000326
312284.1257,-39.69004547735267,-25.579132468330076,-32.547608843762426,-26.396469206397985,41.14199999999255
312284.1267,-42.234894646402815,-27.137398679737785,-33.71478820126139,-27.135670049640883,41.14300000004005
312284.1277,-44.614448428868535,-28.501963522099345,-34.726287420106125,-27.858056881394585,41.14400000002934
312284.1287,-46.762315298422884,-29.644110531741646,-35.55089159965405,-28.540947046372207,41.14500000001863
312284.1297,-48.595476623700904,-30.522504912696267,-36.14143810103849,-29.140883158276328,41.146000000007916
312284.1307,-50.01892090125322,-31.08632350177509,-36.4381506237238,-29.59703386238983,41.146999999997206
312284.1317,-50.93217543720758,-31.280036246428168,-36.3738152434521,-29.836681328051387,41.1480000000447
312284.1327,-51.237197645327484,-31.049379272202565,-35.88032918543895,-29.782288318901177,41.14900000003399
312284.1337,-50.84693292232261,-30.347922586290736,-34.89600184932207,-29.35947299815013,41.15000000002328
312284.1347,-49.6937558415438,-29.143557188636205,-33.372896148483086,-28.505119745930354,41.15100000001257
312284.1357,-47.736995789081966,-27.42421520005184,-31.28347612609785,-27.17482931883785,41.15200000000186
312284.1367,-44.96880950140435,-25.202194272712262,-28.625876801530755,-25.348964448896464,41.15299999999115
312284.1377,-41.41779608707634,-22.516578889384338,-25.427229924484337,-23.036672622950203,41.15400000003865
312284.1387,-37.14994284458102,-19.433424710596054,-21.74465373422323,-20.27745432420576,41.15500000002794
312284.1397,-32.266724510030826,-16.043581208535063,-17.663729304078537,-17.14007451211415,41.15600000001723
312284.1407,-26.900432395612448,-12.45825218158347,-13.294520000427966,-13.718865421427651,41.15700000000652
312284.1417,-21.207059204320394,-8.802611553722661,-8.765421461221129,-10.127715703340685,41.15799999999581
312284.1427,-15.35728653333623,-5.207981887738772,-4.215335028326685,-6.492260673003043,41.15900000004331
312284.1437,-9.526294305131314,-1.8032267050554496,0.21518208203519681,-2.9409597879586173,41.160000000032596
312284.1447,-3.8832183898454073,1.2939090837388383,4.3930368792167,0.4041460071106365,41.161000000021886
312284.1457,1.4188854595344849,3.984761812475011,8.201208514053832,3.4361729428624153,41.162000000011176
312284.1467,6.251759348510192,6.196321691704292,11.546105164374298,6.0708514040622426,41.163000000000466
312284.1477,10.518650141083187,7.885843219698492,14.363043522957566,8.252043284466275,41.163999999989755
312284.1487,14.15849438339297,9.043095623851942,16.619395077968555,9.954843189088654,41.16500000003725
312284.1497,17.14729613194817,9.69006708754905,18.315155690686147,11.18601248384606,41.16600000002654
312284.1507,19.496661876623836,9.878164943203355,19.48092879466649,11.981743123558521,41.16700000001583
312284.1517,21.249705984567026,9.683177689235167,20.17354564295643,12.402994747637772,41.16800000000512
312284.1527,22.474766094896587,9.198462480021968,20.469756370575688,12.528870184971243,41.16899999999441
312284.1537,23.257549911798733,8.526975074438111,20.458593467748848,12.448670232363849,41.17000000004191
312284.1547,23.692456480179196,7.772853888629065,20.2331190081912,12.253381870668067,41.1710000000312
312284.1557,23.873865772170948,7.0332972596866234,19.88230874094071,12.027394570353017,41.17200000002049
312284.1567,23.88816659093113,6.391431262708337,19.483796617234404,11.841203709849804,41.17300000000978
312284.1577,23.807197868157594,5.910759069818596,19.098106044337918,11.74575245833374,41.17399999999907
312284.1587,23.68362259096595,5.631622712276613,18.764839189456886,11.768894783811042,41.175000000046566
312284.1597,23.54855274145291,5.569910123056636,18.50109853823026,11.914249412753009,41.176000000035856
312284.1607,23.41151778881648,5.718023943662386,18.302195131197436,12.162478648017423,41.177000000025146
312284.1617,23.262640611800208,6.047914841361311,18.1444769775846,12.474790118735985,41.178000000014435
312284.1627,23.076675408266986,6.515791627374847,17.989910524512066,12.798246800910253,41.179000000003725
312284.1637,22.818392166391373,7.067971471228246,17.79188702318302,13.072301612787625,41.179999999993015
312284.1647,22.448677538011744,7.647239943380811,17.501619429843558,13.235863740001424,41.18100000004051
312284.1657,21.930672775975076,8.199060913605486,17.074453854835625,13.234164782264115,41.1820000000298
312284.1667,21.23528951890793,8.67701257650138,16.475445850017547,13.024727075412384,41.18300000001909
312284.1677,20.345530500163182,9.046923655802129,15.683642611748828,12.581840118974183,41.18400000000838
312284.1687,19.259185083091843,9.289332712531225,14.694657739482313,11.899113093635782,41.18499999999767
312284.1697,17.989653730014197,9.400078034246107,13.521310444639171,10.989875417271856,41.18600000004517
312284.1707,16.56486196581864,9.389026970808715,12.192307130900495,9.885422518349548,41.18700000003446
312284.1717,15.024431904013882,9.277151407418344,10.749149194920266,8.631327831505253,41.18800000002375
312284.1727,13.415466813856824,9.092330391143468,9.241635974954157,7.282241989909082,41.18900000001304
312284.1737,11.787452513504265,8.864394244408249,7.7224774241268666,5.895756285000937,41.19000000000233
312284.1747,10.186873586344717,8.620003450824026,6.241622727932125,4.526004074809786,41.19099999999162
312284.1757,8.652173042114992,8.37797229209692,4.840939581739588,3.2177012771356046,41.192000000039116
312284.1767,7.2096480170455015,8.145599993834361,3.549841386769868,2.001282603633946,41.193000000028405
312284.1777,5.8707750929277465,7.916465745548566,2.3823600115632235,0.8896781575074099,41.194000000017695
312284.1787,4.6313068430827995,7.669989068746064,1.3360100281946197,-0.12289345673874387,41.195000000006985
312284.1797,3.4722916850898646,7.372869168187354,0.39260173339202004,-1.059947528802847,41.195999999996275
312284.1807,2.3629612843415626,6.982315013448001,-0.47904620137742865,-1.9596302781028814,41.19700000004377
312284.1817,1.2652247963521828,6.450782342623925,-1.3187470936952213,-2.86977304246676,41.19800000003306
312284.1827,0.13932817984529353,5.731764410319673,-2.16937214386085,-3.841583364992617,41.19900000002235
312284.1837,-1.0499015852618083,4.786057477047372,-3.0706322582769072,-4.922603894478062,41.20000000001164
312284.1847,-2.3268886658880223,3.5878528973094905,-4.0528678101254325,-6.149659670995169,41.20100000000093
312284.1857,-3.6998930783794077,2.1300028155568422,-5.131514910376284,-7.542533055024512,41.20199999999022
312284.1867,-5.156970217743894,0.4278672199715716,-6.302865930925774,-9.09905076914312,41.20300000003772
312284.1877,-6.663809319741052,-1.4787287377463683,-7.5416281122364355,-10.792143967792265,41.20400000002701
312284.1887,-8.163783272277023,-3.5257278375530454,-8.80061769541922,-12.569261427797048,41.2050000000163
312284.1897,-9.580333236760083,-5.627361413131377,-10.012723998821476,-14.354295034491056,41.20600000000559
312284.1907,-10.821585401270033,-7.680837359487877,-11.095057790322688,-16.051936917945888,41.20699999999488
312284.1917,-11.786875840350662,-9.572865414051742,-11.954982581771155,-17.554152022566935,41.208000000042375
312284.1927,-12.374664618502901,-11.187507331894258,-12.497537206830529,-18.748241427307843,41.209000000031665
312284.1937,-12.491171272468002,-12.414702892367442,-12.633612005095513,-19.525810703375036,41.210000000020955
312284.1947,-12.058975667552986,-13.158745163229954,-12.288153696533058,-19.791859819096956,41.211000000010245
312284.1957,-11.024810176895706,-13.345968064898397,-11.407654530406523,-19.47318633330953,41.211999999999534
312284.1967,-9.365823683667294,-12.9309675513037,-9.966231947263744,-18.52534459440628,41.212999999988824
312284.1977,-7.0937205557928,-11.900799589289042,-7.969721439940555,-16.937525823208265,41.21400000003632
312284.1987,-4.256357399160501,-10.276772388664138,-5.45737681189328,-14.734905889049125,41.21500000002561
312284.1997,-0.9366004313114695,-8.113660772659957,-2.5009825475222196,-11.978232125486,41.2160000000149
312284.2007,2.7515138284282243,-5.496397458991364,0.7985873092053718,-8.760666426831087,41.21700000000419
312284.2017,6.669034693083331,-2.5345180350449965,4.317102216793331,-5.202145849036818,41.21799999999348
312284.2027,10.660278211255122,0.6451672838373695,7.914535402148539,-1.4417409704064008,41.21900000004098
312284.2037,14.562273445230689,3.9070497911986393,11.443826492409249,2.3713342294804964,41.22000000003027
312284.2047,18.214707828889015,7.1156269650630275,14.760119601064494,6.087295377071076,41.22100000001956
312284.2057,21.46956862284254,10.144089026812487,17.729715246702224,9.565137980769936,41.22200000000885
312284.2067,24.19971405026003,12.881882307916989,20.23800998035637,12.680994353998875,41.22299999999814
312284.2077,26.305713550185747,15.240650373457346,22.195799405533556,15.334832554265999,41.224000000045635
312284.2087,27.72046116510462,17.158113757831085,23.54347816268774,17.45499886445531,41.225000000034925
312284.2097,28.411273281891997,18.59964730847602,24.252868875161145,19.00031512049567,41.226000000024214
312284.2107,28.379411708746954,19.55753130307032,24.32663169842965,19.959674960655445,41.227000000013504
312284.2117,27.657203340378445,20.048067810226176,23.795425780538896,20.34931615714781,41.228000000002794
312284.2127,26.303136539783115,20.106946643225623,22.71319261970785,20.208157082535916,41.228999999992084
312284.2137,24.395482225870577,19.78339746907759,21.15109021579887,19.591753920567072,41.23000000003958
312284.2147,22.02509904985152,19.133762009738938,19.190711318714197,18.565545634309736,41.23100000002887
312284.2157,19.28812716281889,18.215154059315804,16.917259692823734,17.19809597868866,41.23200000001816
312284.2167,16.279250678603514,17.079842733898673,14.413332176067469,15.555012800313818,41.23300000000745
312284.2177,13.086118611776794,15.770899917841293,11.75386501542984,13.694128371789363,41.23399999999674
312284.2187,9.785367851323265,14.319506259667769,9.002660276540603,11.662371059573637,41.23500000004424
312284.2197,6.440505060366891,12.74412632876474,6.210726995548833,9.494564281532819,41.23600000003353
312284.2207,3.101696578989296,11.05156124820551,3.4164707816180275,7.214173474285753,41.23700000002282
312284.2217,-0.19269230080872063,9.239686570760163,0.6475652289752581,4.835807613298199,41.23800000001211
312284.2227,-3.4131538373072154,7.301504399742262,-2.0758409946539564,2.369090436852011,41.2390000000014
312284.2237,-6.535181759190062,5.2299995846913365,-4.737068089662732,-0.17663272534825966,41.23999999999069
312284.2247,-9.535085976268187,3.023204092008507,-7.318574352997667,-2.7873786455541203,41.241000000038184
312284.2257,-12.386089250326688,0.688849896940593,-9.79795071249021,-5.440052017601043,41.242000000027474
312284.2267,-15.055278145801298,-1.7519686470828966,-12.144801993266828,-8.099021276699812,41.243000000016764
312284.2277,-17.501879109207085,-4.262601029304371,-14.31897727909368,-10.714243625987166,41.244000000006054
312284.2287,-19.67717681037241,-6.790442113308096,-16.270462159699342,-13.221275656328844,41.24499999999534
312284.2297,-21.52620163212702,-9.268469010759564,-17.94106064585852,-15.543305218155156,41.24600000004284
312284.2307,-22.991105931308294,-11.61864989491952,-19.267792798119686,-17.59512168794997,41.24700000003213
312284.2317,-24.015945802748917,-13.756961526588112,-20.187736172535104,-19.288727490987316,41.24800000002142
312284.2327,-24.552407707249362,-15.599576159207603,-20.643865350326543,-20.54010546114624,41.24900000001071
312284.2337,-24.5658862701358,-17.069643987688362,-20.59131218563735,-21.27651369753544,41.25
312284.2347,-24.041245367920617,-18.104018288769012,-20.00339405494504,-21.443597047054404,41.25099999998929
312284.2357,-22.98758810931324,-18.659255354576654,-18.876746960769445,-21.011591394540247,41.25200000003679
312284.2367,-21.441424625031047,-18.716272465275335,-17.23495712878775,-19.97995598593619,41.25300000002608
312284.2377,-19.467754898430574,-18.283160181206604,-15.130204416502547,-18.379895381876455,41.25400000001537
312284.2387,-17.15876583990659,-17.395809729275562,-12.642602840345022,-16.27441500996662,41.25500000000466
312284.2397,-14.630060587719635,-16.116216649410894,-9.87713196633146,-13.755775719683985,41.255999999993946
312284.2407,-12.014572880965318,-14.528538967786792,-6.958278163606097,-10.940452321925129,41.257000000041444
312284.2417,-9.454547691399554,-12.733201034209014,-4.022725266102877,-7.96193592159469,41.258000000030734
312284.2427,-7.09216883157189,-10.839522156072471,-1.2106286883429354,-4.961927279612011,41.25900000002002
312284.2437,-5.059565182659947,-8.957493950316426,1.3438435809602765,-2.0806282766237736,41.26000000000931
312284.2447,-3.469014146936705,-7.189417697545499,3.5219303867841054,0.5530649714089421,41.2609999999986
312284.2457,-2.404174517385338,-5.622134200443704,5.228864647273612,2.8306404644660232,41.2620000000461
312284.2467,-1.9131186518693157,-4.320531357806752,6.400888296950853,4.671545911375688,41.26300000003539
312284.2477,-2.0038002889330446,-3.3229030878812016,7.010075552827929,6.028611578255318,41.26400000002468
312284.2487,-2.642400945279273,-2.6385677674581776,7.066523710676671,6.890854987304022,41.26500000001397
312284.2497,-3.754761677926004,-2.247950559072803,6.617691140901357,7.283429977106532,41.26600000000326
312284.2507,-5.230849246759689,-2.105111098424935,5.744904521861443,7.264732744749787,41.26699999999255
312284.2517,-6.93194963848759,-2.142477030495944,4.55729953717523,6.9209265394348,41.26800000004005
312284.2527,-8.700050684149002,-2.277345618097063,3.1836791503826998,6.358371528966425,41.26900000002934
312284.2537,-10.368690036659723,-2.4195586898992065,1.7629510781362439,5.694626197971352,41.27000000001863
312284.2547,-11.774421787795477,-2.479655150766065,0.43392506203857495,5.0488049410066855,41.271000000007916
312284.2557,-12.768005465666873,-2.376769383201582,-0.674699726429664,4.532122620819445,41.271999999997206
312284.2567,-13.224449289704626,-2.0455761340006693,-1.4533506155872602,4.2394269540548795,41.2730000000447
312284.2577,-13.05114248679736,-1.4416794228665009,-1.818888989651245,4.242417025766078,41.27400000003399
312284.2587,-12.193479496280553,-0.5449950170230315,-1.7196545469463542,4.58508120974944,41.27500000002328
312284.2597,-10.637596442465483,0.6391317102853662,-1.1378953419737852,5.281676299540686,41.27600000001257
312284.2607,-8.410087358149774,2.0811167230027277,-0.08946491040875115,6.317332023748032,41.27700000000186
312284.2617,-5.574821802270543,3.730466029714764,1.3790932814897285,7.651123937963976,41.27799999999115
312284.2627,-2.227223808260545,5.520875140756366,3.195730091076509,9.221235714904289,41.27900000003865
312284.2637,1.5134266845640296,7.376574010323784,5.2698114943577865,10.951649834037635,41.28000000002794
312284.2647,5.51296216498579,9.219286395535391,7.500107924786193,12.759680345839381,41.28100000001723
312284.2657,9.631778172598526,10.975128763819255,9.783112422469886,14.563603918253772,41.28200000000652
312284.2667,13.733971754686271,12.580795577185727,12.02094581039448,16.289660305194563,41.28299999999581
312284.2677,17.69543806546926,13.988462103554749,14.128173695744982,17.877778225205507,41.28400000004331
312284.2687,21.410324195172006,15.168973923305348,16.036987756826935,19.28552817276845,41.285000000032596
312284.2697,24.79541847198388,16.113069933404983,17.700379242385694,20.489994861573585,41.286000000021886
312284.2707,27.792264820536023,16.83058507190885,19.093138195284617,21.48747945695155,41.287000000011176
312284.2717,30.367014338635954,17.347780376389693,20.210727263319956,22.29116372773268,41.288000000000466
312284.2727,32.50823841815381,17.70313150070915,21.066283047231355,22.927072709522125,41.288999999989755
312284.2737,34.2231092390765,17.942054508772618,21.686171105026652,23.428839299194006,41.29000000003725
312284.2747,35.53248742487372,18.111145372056573,22.10464661084728,23.83188714899049,41.29100000002654
312284.2757,36.46553116221231,18.25254790573107,22.358239746352506,24.167696518079854,41.29200000001583
312284.2767,37.054450359481,18.3990406146831,22.480487630855343,24.458797101878364,41.29300000000512
312284.2777,37.32997425583295,18.570349056095907,22.497573880718875,24.715044940025088,41.29399999999441
312284.2787,37.317988560212065,18.77105575364661,22.42531995624124,24.931596576012392,41.29500000004191
312284.2797,37.03764162102915,18.99030833370279,22.26781208528584,25.088807663659054,41.2960000000312
312284.2807,36.501035523577805,19.203335929034566,22.017760761994094,25.154074323614683,41.29700000002049
312284.2817,35.714427122077595,19.37459340467937,21.658496121207396,25.085425137443593,41.29800000000978
312284.2827,34.68068606727744,19.462181919474688,21.16732192421479,24.836481228315897,41.29899999999907
312284.2837,33.40261055346054,19.42306005490698,20.519802004537347,24.362250874898788,41.300000000046566
312284.2847,31.886601992618836,19.21847579963097,19.69445100683346,23.625129011501947,41.301000000035856
312284.2857,30.146157363718853,18.819024573682075,18.677256435937405,22.600440726319565,41.302000000025146
312284.2867,28.204656827452997,18.208774791770008,17.465475861801853,21.28090490498922,41.303000000014435
312284.2877,26.09700219631581,17.38799660998582,16.070229736870495,19.67949604351229,41.304000000003725
312284.2887,23.869790712608324,16.374172074694364,14.517538710821144,17.830339018701174,41.304999999993015
312284.2897,21.579874730888026,15.201141621359321,12.847621322294145,15.787467767477647,41.30600000004051
312284.2907,19.29134384310648,13.91643502024508,11.112456308804791,13.621494896769471,41.3070000000298
312284.2917,17.071152114728733,12.577024997742805,9.371804087279207,11.414453653249826,41.30800000001909
312284.2927,14.98377966910352,11.243909660016111,7.688054533316552,9.253264909109353,41.30900000000838
312284.2937,13.085446977242375,9.97605841951085,6.120405051896813,7.222430530208054,41.30999999999767
312284.2947,11.41847767365001,8.824332110530744,4.718959630917503,5.396645450383566,41.31100000004517
312284.2957,10.006422457024918,7.826003268219391,3.5193666322760793,3.8340443659015544,41.31200000003446
312284.2967,8.850509668363438,7.0004550077944305,2.5385769928599955,2.5707521675432377,41.31300000002375
312284.2977,7.927880927814673,6.346530672358898,1.7722081125022613,1.6172939490422036,41.31400000001304
312284.2987,7.191912363104083,5.841851365727757,1.193850927884918,0.9572511474984322,41.31500000000233
312284.2997,6.574728327081674,5.44422950466714,0.7564726844059594,0.5483411380506182,41.31599999999162
312284.3007,5.991803740809229,5.095101936409275,0.39586375983575955,0.3258685024521276,41.317000000039116
312284.3017,5.3483439610937475,4.72470598233871,0.035873694004352065,0.20826937677405874,41.318000000028405
312284.3027,4.546947963736523,4.258545724618295,-0.40500042952698145,0.10426782991841721,41.319000000017695
312284.3037,3.4959201767835455,3.6245614713527963,-1.00625259565392,-0.07899504077895238,41.320000000006985
312284.3047,2.11751307663701,2.760336190322237,-1.837901199048633,-0.42759705353641475,41.320999999996275
312284.3057,0.3553658480651105,1.619657059816375,-2.9536097609817062,-1.0130024043481771,41.32200000004377
312284.3067,-1.819543182234022,0.17780027155630282,-4.38504589682796,-1.8854829502064634,41.32300000003306
312284.3077,-4.404994885833237,-1.5649814271142726,-6.138024280354815,-3.0694024189580285,41.32400000002235
312284.3087,-7.366070178866768,-3.582126511815661,-8.19082043002458,-4.560801007265415,41.32500000001164
312284.3097,-10.636312912662115,-5.821747582960446,-10.494844334364627,-6.327503999705606,41.32600000000093
312284.3107,-14.121462415711358,-8.209873989009523,-12.977645048013462,-8.311742416069865,41.32699999999022
312284.3117,-17.70547334203282,-10.655687216932046,-15.548000320240446,-10.435038813158558,41.32800000003772
312284.3127,-21.25833421323581,-13.058294535668274,-18.102650004792352,-12.604899750121602,41.32900000002701
312284.3137,-24.645033055717583,-15.31444091340189,-20.534077386161265,-14.72268838540847,41.3300000000163
312284.3147,-27.734914419355448,-17.32646995608333,-22.738643727000582,-16.691942345436605,41.33100000000559
312284.3157,-30.41063687837396,-19.00982024141842,-24.624348032092385,-18.426363782818242,41.33199999999488
312284.3167,-32.575977394161136,-20.299386409634327,-26.117519656339343,-19.856744060627378,41.333000000042375
312284.3177,-34.16183531051588,-21.15418067915335,-27.16785270438414,-20.93619127734104,41.334000000031665
312284.3187,-35.129954312389074,-21.55988992211137,-27.751348545533514,-21.643194617810146,41.335000000020955
312284.3197,-35.47408981817998,-21.529120762670818,-27.870931108304667,-21.982269217118137,41.336000000010245
312284.3207,-35.218582240970406,-21.0993413963553,-27.554719829774676,-21.98215855529159,41.336999999999534
312284.3217,-34.414531329497365,-20.32874320524863,-26.852165971081657,-21.691805790944827,41.337999999988824
312284.3227,-33.13398122551508,-19.290437205991505,-25.82845814489665,-21.17451824428834,41.33900000003632
312284.3237,-31.462699785968343,-18.06555157146386,-24.5577630069967,-20.500919934101297,41.34000000002561
312284.3247,-29.49225289413422,-16.73589256646468,-23.11597170876613,-19.741399261576575,41.3410000000149
312284.3257,-27.312124209003784,-15.37686327485343,-21.573661865667216,-18.958801935572318,41.34200000000419
312284.3267,-25.002608897259194,-14.051299761947517,-19.98995484020335,-18.20208911983824,41.34299999999348
312284.3277,-22.629119101940994,-12.80478659727424,-18.40785219602514,-17.501580750145724,41.34400000004098
312284.3287,-20.23838860648187,-11.662862846065794,-16.851482835748843,-16.866244016623952,41.34500000003027
312284.3297,-17.856869430449226,-10.630340720831956,-15.325498685034512,-16.283282944602377,41.34600000001956
312284.3307,-15.491393227352493,-9.692750687449404,-13.816640953214902,-15.7200569008268,41.34700000000885
312284.3317,-13.131946933159043,-8.81971935061554,-12.297282253209762,-15.128126048997249,41.34799999999814
312284.3327,-10.756206909817928,-7.9699000927057755,-10.730553514681835,-14.449012719547792,41.349000000045635
312284.3337,-8.335308669822906,-7.096929212615775,-9.076507935700143,-13.62109968204578,41.350000000034925
312284.3347,-5.840216109657694,-6.155786277314165,-7.298672502860554,-12.586975668807902,41.351000000024214
312284.3357,-3.2480055590385977,-5.108905340602471,-5.3703007305344626,-11.300495788351517,41.352000000013504
312284.3367,-0.5473999859828483,-3.931416264753217,-3.279671677343346,-9.732853601162734,41.353000000002794
312284.3377,2.257025286809484,-2.6149889192454174,-1.0338767049063515,-7.877059482552543,41.353999999992084
312284.3387,5.142401159664247,-1.1698978931153248,1.339312834484858,-5.750376633248678,41.35500000003958
312284.3397,8.067138477335462,0.37489306746717044,3.791711870712922,-3.394466159238071,41.35600000002887
312284.3407,10.972559445661302,1.9736275292204033,6.257123650645528,-0.8732162880912415,41.35700000001816
312284.3417,13.786418622356837,3.567435507066502,8.655666165476806,1.7315439565097632,41.35800000000745
312284.3427,16.42795339273229,5.089419064447335,10.89961939471814,4.326041491718333,41.35899999999674
312284.3437,18.81394968514654,6.470628628162782,12.900237495291616,6.8116968062300725,41.36000000004424
312284.3447,20.86520759204832,7.646326765089811,14.574872669340085,9.092724948295503,41.36100000003353
312284.3457,22.512753447169832,8.561909180828248,15.853724520007756,11.083481053725043,41.36200000002282
312284.3467,23.703173360381122,9.177888706176839,16.68556346795112,12.714860842071126,41.36300000001211
312284.3477,24.402535164049553,9.473443296094572,17.041875807429538,13.939163130690973,41.3640000000014
312284.3487,24.5985117679583,9.448173994798905,16.91903146214886,14.732975645659,41.36499999999069
312284.3497,24.300504233982032,9.121898940936823,16.33826832685163,15.097841828166482,41.366000000038184
312284.3507,23.537768707477756,8.532506848002742,15.343500241079358,15.058685401751466,41.367000000027474
312284.3517,22.35575684220837,7.7320883421604005,13.997168113661282,14.660189439231397,41.368000000016764
312284.3527,20.8110636848701,6.7817366492393525,12.374544530851646,13.96152575843882,41.369000000006054
312284.3537,18.96552137005203,5.745543122463117,10.557052486486878,13.029988996789669,41.36999999999534
312284.3547,16.880066593788595,4.6843945822785535,8.625253796507426,11.934192033226658,41.37100000004284
312284.3557,14.609035307315661,3.650200186812728,6.652192880698959,10.73751551222806,41.37200000003213
312284.3567,12.195496433004834,2.6811333758316507,4.697743877546802,9.492470648766929,41.37300000002142
312284.3577,9.66813141782097,1.7983733960866735,2.8045071666340036,8.236534769830776,41.37400000001071
312284.3587,7.040008266929577,1.0046809505319128,0.9956453157367745,6.989863290342917,41.375
312284.3597,4.309402918506429,0.28495844122603525,-0.7251463768979003,5.755085738348724,41.37599999998929
312284.3607,1.462606901486235,-0.3912546466698781,-2.3715539756831245,4.519176781094648,41.37700000003679
312284.3617,-1.5215503920299522,-1.0655965575480058,-3.9706756209976244,3.257177775698552,41.37800000002608
312284.3627,-4.665922490916785,-1.7854259156237864,-5.557590876399248,1.9373518869423823,41.37900000001537
312284.3637,-7.988609726957325,-2.597641315455556,-7.169039152679372,0.5272057194792208,41.38000000000466
312284.3647,-11.496550149050316,-3.5424043217415497,-8.836869677360923,-1.0002820761845286,41.380999999993946
312284.3657,-15.179837665419438,-4.647407697490549,-10.581951836238002,-2.660910169912116,41.382000000041444
312284.3667,-19.007413724503873,-5.9232822251919375,-12.40919260423423,-4.454622387728198,41.383000000030734
312284.3677,-22.924659240836835,-7.360627763912726,-14.304201159625622,-6.362524435223365,41.38400000002002
312284.3687,-26.853239131791874,-8.928997624116393,-16.231979967438846,-8.345915027952975,41.38500000000931
312284.3697,-30.693339258035703,-10.577975239075752,-18.137822321465684,-10.347493565445346,41.3859999999986
312284.3707,-34.32820518982353,-12.240277128845083,-19.950378075720916,-12.294684861001574,41.3870000000461
312284.3717,-37.63066643201209,-13.836616474019621,-21.586633511341688,-14.104803714373702,41.38800000003539
312284.3727,-40.471130664170005,-15.281886953050934,-22.958359210530784,-15.691590127324872,41.38900000002468
312284.3737,-42.72637989096895,-16.49209413571233,-23.97943039066069,-16.972499075080947,41.39000000001397
312284.3747,-44.28840947146215,-17.39138481616974,-24.573332175951048,-17.876041913800123,41.39100000000326
312284.3757,-45.07253120661748,-17.91851091917416,-24.68013692079993,-18.34845877467768,41.39199999999255
312284.3767,-45.02401554025939,-18.032115518714416,-24.262284594246672,-18.35905490039177,41.39300000004005
312284.3777,-44.12267083643842,-17.714339201622558,-23.308606248453504,-17.903653993406596,41.39400000002934
312284.3787,-42.38493826165872,-16.97240473050078,-21.836194202072623,-17.00579684437709,41.39500000001863
312284.3797,-39.863301993051884,-15.838031119444373,-19.88992489844542,-15.715526883117802,41.396000000007916
312284.3807,-36.64305525553564,-14.36473594316759,-17.53966178432994,-14.105835104900708,41.396999999997206
312284.3817,-32.83670006591725,-12.623286629330433,-14.875384473160453,-12.267062537157377,41.3980000000447
312284.3827,-28.576469823391836,-10.695737874591472,-12.0006856363767,-10.299756911029354,41.39900000003399
312284.3837,-24.005628841802405,-8.668625927269018,-9.025229573406499,-8.306631966472413,41.40000000002328
312284.3847,-19.26930587059542,-6.625968250143306,-6.05686150101832,-6.384367838796232,41.40100000001257
312284.3857,-14.505649930083306,-4.642731458981797,-3.194085157601972,-4.616010227554668,41.40200000000186
312284.3867,-9.838053695988282,-2.779380094097308,-0.5195857270550694,-3.0646723933571454,41.40299999999115
312284.3877,-5.369076737881545,-1.0780087434621868,1.9046305097091214,-1.7691224180365785,41.40400000003865
312284.3887,-1.176529443537073,0.4395988288939251,4.040068518241081,-0.7416601722957331,41.40500000002794
312284.3897,2.6880346112710907,1.7718319269554634,5.872336468659448,0.03152886478494557,41.40600000001723
312284.3907,6.198403848104066,2.935091208211418,7.409503078745895,0.5875914819567383,41.40700000000652
312284.3917,9.350589051858377,3.9598579295497105,8.678442171334067,0.982076208587873,41.40799999999581
312284.3927,12.157923539108362,4.8854235759158025,9.719579151251182,1.2823389583572993,41.40900000004331
312284.3937,14.64497015198596,5.7538408717646154,10.58060502164839,1.5599276270029263,41.410000000032596
312284.3947,16.840924412092647,6.603732859503085,11.309817877170708,1.8826848617372751,41.411000000021886
312284.3957,18.77323586159979,7.464609037502544,11.949780463389141,2.307333531425411,41.412000000011176
312284.3967,20.46213003865932,8.352285225081198,12.531942756703359,2.8732611367617023,41.413000000000466
312284.3977,21.916606133325278,9.265891960693406,13.072774673240707,3.5981021449491073,41.413999999989755
312284.3987,23.132321242248448,10.186795804206772,13.57179633182825,4.475542320879214,41.41500000003725
312284.3997,24.091567910385876,11.079564664410666,14.011697426995624,5.475553443796955,41.41600000002654
312284.4007,24.765327824446555,11.894901228643588,14.36052261254357,6.547031180513772,41.41700000001583
312284.4017,25.117163476538643,12.574268152617282,14.575687602440565,7.622576101668997,41.41800000000512
312284.4027,25.10851338300207,13.055754695003444,14.609401979788109,8.624950372690925,41.41899999999441
312284.4037,24.704804564013116,13.280604228227052,14.414928191077166,9.474580570675247,41.42000000004191
312284.4047,23.8817036009344,13.199748556073255,13.95301648776954,10.097376022135824,41.4210000000312
312284.4057,22.630803946043525,12.779685723175152,13.197831691249025,10.432101761531225,41.42200000002049
312284.4067,20.964094737347864,12.007094238479464,12.141732172654889,10.436588556587623,41.42300000000978
312284.4077,18.916670625240908,10.89169317118902,10.798370206522877,10.092175177927793,41.42399999999907
312284.4087,16.547311932474493,9.467023310766788,9.203745399313902,9.405949230441662,41.425000000046566
312284.4097,13.936773246492846,7.789023559557731,7.415043419712043,8.410565782128623,41.426000000035856
312284.4107,11.183845825837682,5.9324896888510565,5.507311197310548,7.1616570573566545,41.427000000025146
312284.4117,8.399482670997124,3.9857088420045903,3.568235668942715,5.733078914869424,41.428000000014435
312284.4127,5.699472764263969,2.043742594203311,1.6914848183770927,4.210448196891059,41.429000000003725
312284.4137,3.196303290031168,0.20096639932685295,-0.030781746789893306,2.6835891736873205,41.429999999993015
312284.4147,0.9909404499624282,-1.4564494498174705,-1.5155348787306486,1.2386114015168581,41.43100000004051
312284.4157,-0.834718511049109,-2.857420404880576,-2.6959093808882058,-0.04962459910995242,41.4320000000298
312284.4167,-2.224019779372991,-3.951547927352028,-3.5269739711660906,-1.1239364981629867,41.43300000001909
312284.4177,-3.1497698190250762,-4.712914485371007,-3.9896747381985733,-1.9495350424207878,41.43400000000838
312284.4187,-3.616085368519789,-5.141715995323306,-4.092556189510077,-2.5165823304173154,41.43499999999767
312284.4197,-3.6576824181276018,-5.263576819060688,-3.8710702824726697,-2.8403600792029193,41.43600000004517
312284.4207,-3.3366446842972706,-5.126610146055116,-3.384509585717339,-2.9590452449223688,41.43700000003446
312284.4217,-2.7369439949930183,-4.796498705254191,-2.71082426036617,-2.9293205001338314,41.43800000002375
312284.4227,-1.9571919390341144,-4.350056859241963,-1.9397823725025967,-2.8202542968967497,41.43900000001304
312284.4237,-1.1022643502987632,-3.8678773300668774,-1.1650899094842988,-2.7060495616862505,41.44000000000233
312284.4247,-0.2745422439064643,-3.4267504285370043,-0.47618566316472427,-2.6583657221662516,41.44099999999162
312284.4257,0.43445495134745954,-3.09256261066119,0.049542650541505855,-2.738955761239376,41.442000000039116
312284.4267,0.9513085339804601,-2.9143327220201862,0.35341404103096796,-2.9933250461027865,41.443000000028405
312284.4277,1.2261858959630192,-2.9199331877421635,0.4003808173291446,-3.446015512399071,41.444000000017695
312284.4287,1.2361131569851507,-3.1138804879735447,0.18178793824151213,-4.09795774073003,41.445000000006985
312284.4297,0.9857851122602292,-3.4773803461117057,-0.2842694316300243,-4.926130482289927,41.445999999996275
312284.4307,0.5058931977301472,-3.970597421227364,-0.9549998303142262,-5.88554223198288,41.44700000004377
312284.4317,-0.15081765877124154,-4.536907782774942,-1.767165888326879,-6.913324534875886,41.44800000003306
312284.4327,-0.9153447535158648,-5.108705445285018,-2.643113287910065,-7.9345237774588835,41.44900000002235
312284.4337,-1.7094918555930847,-5.614189705689632,-3.4979984845523315,-8.86901695718481,41.45000000001164
312284.4347,-2.4535101707902935,-5.984471728633332,-4.24752979984388,-9.638872885866085,41.45100000000093
312284.4357,-3.0735839590660046,-6.160315026613752,-4.8154969992859495,-10.175443343057974,41.45199999999022
312284.4367,-3.5084592647365063,-6.097867140956884,-5.140394410166256,-10.425502114252323,41.45300000003772
312284.4377,-3.714611838960844,-5.772844429303,-5.180538632487606,-10.35584996414392,41.45400000002701
312284.4387,-3.669504890817009,-5.182787871152176,-4.91723419602247,-9.95596020269861,41.4550000000163
312284.4397,-3.372683159351879,-4.347199709157431,-4.355733965658591,-9.238436873419385,41.45600000000559
312284.4407,-2.8446674000427428,-3.3055796014212,-3.523956639797059,-8.237276039730757,41.45699999999488
312284.4417,-2.12383118534774,-2.1135842389351036,-2.469140236140991,-7.004138464528235,41.458000000042375
312284.4427,-1.2616385235207888,-0.8377159832362816,-1.2528069604981886,-5.603037597794639,41.459000000031665
312284.4437,-0.3167770250487983,0.4509137001493586,0.055427665051853536,-4.104000893056801,41.460000000020955
312284.4447,0.6511778863352026,1.683114974678297,1.3845651260276512,-2.576359908850481,41.461000000010245
312284.4457,1.5878964286176729,2.7977913223135435,2.668777730634617,-1.0823559066878805,41.461999999999534
312284.4467,2.44958652095776,3.7471417979046935,3.853157396152779,0.3282901998365687,41.462999999988824
312284.4477,3.2069019337604296,4.500386759265837,4.8981022118387125,1.622297732037421,41.46400000003632
312284.4487,3.8470748244670427,5.045663313161194,5.781929305311936,2.7848479905809906,41.46500000002561
312284.4497,4.374070619978205,5.389924701698189,6.501487866181827,3.8195166764436896,41.4660000000149
312284.4507,4.80677251246274,5.556881724645127,7.070752488304609,4.746141868186144,41.46700000000419
312284.4517,5.175410657117737,5.583223735961739,7.517583666431429,5.596866131196301,41.46799999999348
312284.4527,5.516636556420105,5.513531905180327,7.8790287528214575,6.410781244837407,41.46900000004098
312284.4537,5.867787395320252,5.39443084094775,8.195684439744122,7.227751060492897,41.47000000003027
312284.4547,6.260973664123395,5.268603004679747,8.505736262870597,8.082077262969529,41.47100000001956
312284.4557,6.717647222164548,5.169305705757816,8.839322412409851,8.996695108308282,41.47200000000885
312284.4567,7.24426341143315,5.115981196412999,9.213835212862193,9.978538978380378,41.47299999999814
312284.4577,7.829544032758591,5.11144119972598,9.630677430921281,11.015605145293815,41.474000000045635
312284.4587,8.443688375929222,5.140948774944552,10.07384171704696,12.076072287146669,41.475000000034925
312284.4597,9.039682781998321,5.173328322041017,10.510494832273654,13.109635302184868,41.476000000024214
312284.4607,9.55664490786533,5.1640277075617185,10.893542475686553,14.050984960583392,41.477000000013504
312284.4617,9.924928304050141,5.059855439449456,11.165946055730103,14.825146940360291,41.478000000002794
312284.4627,10.072527192236773,4.804940529254904,11.266380085492289,15.354200578844624,41.478999999992084
312284.4637,9.93217918001803,4.347330703094925,11.135676351077858,15.564749582550066,41.48000000003958
312284.4647,9.44847960796874,3.6455693189195126,10.723412987297044,15.395428993014031,41.48100000002887
312284.4657,8.584304156955952,2.6745805650023016,9.993982111322431,14.803714089348658,41.48200000001816
312284.4667,7.325888555110236,1.4302477985108353,8.931511456175587,13.771350042660462,41.48300000000745
312284.4677,5.686031196155361,-0.06781369614949669,7.543119699009957,12.307841414738272,41.48399999999674
312284.4687,3.7050552886176393,-1.775621634591675,5.8601418876630085,10.451616796009016,41.48500000004424
312284.4697,1.4493755132262123,-3.626460545240296,3.9371553080987938,8.26869925229117,41.48600000003353
312284.4707,-0.9922599945454549,-5.534699795870876,1.8488483544511873,5.848947127192973,41.48700000002282
312284.4717,-3.514560094091972,-7.401501191236377,-0.31501535184785184,3.300159551539491,41.48800000001211
312284.4727,-6.003025849469463,-9.121937807319938,-2.456098825850009,0.740544462811217,41.4890000000014
312284.4737,-8.342192547275438,-10.592906216567679,-4.47487584980777,-1.7097957697962052,41.48999999999069
312284.4747,-10.42405027713606,-11.721132603334095,-6.27822465479187,-3.9376102753831606,41.491000000038184
312284.4757,-12.155893577158919,-12.430557578814167,-7.786534301302754,-5.844701591749909,41.492000000027474
312284.4767,-13.46690080107191,-12.668436522845335,-8.939670206634082,-7.354856845375357,41.493000000016764
312284.4777,-14.312860846778433,-12.40960720201905,-9.70125196413281,-8.418899407037523,41.494000000006054
312284.4787,-14.67863760115696,-11.658543344917682,-10.060856432130546,-9.01742794380508,41.49499999999534
312284.4797,-14.578174350985957,-10.4490158609173,-10.033956546712107,-9.161026420257988,41.49600000004284
312284.4807,-14.052071076546259,-8.841403035305438,-9.659622221698983,-8.887965280981808,41.49700000003213
312284.4817,-13.16299469901433,-6.917906272610713,-8.996222987003126,-8.259647939336086,41.49800000002142
312284.4827,-11.989384006094724,-4.776118173353044,-8.115561845198906,-7.354265230402644,41.49900000001071
312284.4837,-10.618067585980153,-2.521536731340981,-7.096017617758249,-6.259283545639622,41.5
312284.4847,-9.136509470164206,-0.25970924586438476,-6.015364315436942,-5.063494265579323,41.50099999998929
312284.4857,-7.6254239886983735,1.9112862640873682,-4.943961828814938,-3.84938311978793,41.50200000003679
312284.4867,-6.1524560284375625,3.907357814810368,-3.9389699361118815,-2.6865354242548114,41.50300000002608
312284.4877,-4.767509956304882,5.6633566204330235,-3.0401313906478227,-1.6266811696465289,41.50400000001537
312284.4887,-3.500141050099041,7.13607590413509,-2.267510101085996,-0.7008138294719523,41.50500000000466
312284.4897,-2.359214038781258,8.305088283563357,-1.6213728645121785,0.08139461973685885,41.505999999993946
312284.4907,-1.3348048806186763,9.171431736366614,-1.084187223098372,0.7298917348410663,41.507000000041444
312284.4917,-0.4020966905908086,9.754363706309295,-0.6244951065983957,1.2704942401090626,41.508000000030734
312284.4927,0.47317904809513517,10.086588435615475,-0.20223306628039994,1.7395319757545953,41.50900000002002
312284.4937,1.328359490886329,10.208506030183084,0.2250761501304598,2.1774878356545586,41.51000000000931
312284.4947,2.1972233799461622,10.162119202553326,0.6959246139491544,2.6223334513404315,41.5109999999986
312284.4957,3.1038421042654605,9.985256762525717,1.238899103837463,3.1032879333854653,41.5120000000461
312284.4967,4.0575832068901505,9.706729758948997,1.867879729722644,3.6356813072101946,41.51300000003539
312284.4977,5.049825136566914,9.342931272812773,2.578886297011155,4.217489898715094,41.51400000002468
312284.4987,6.052770033474075,8.896234848580354,3.348936817351569,4.827939135914982,41.51500000001397
312284.4997,7.020529650820341,8.355355075924304,4.137080267229555,5.428357009796511,41.51600000000326
312284.5007,7.892428858693333,7.697626026456002,4.887545497514421,5.965229767766425,41.51699999999255
312284.5017,8.598244172903911,6.892949841457199,5.534731768332824,6.375183241423244,41.51800000004005
312284.5027,9.064893723023856,5.908989059643144,6.00957511901974,6.5914111925993435,41.51900000002934
312284.5037,9.223939873196283,4.7170401526591705,6.246677711478697,6.550916341922479,41.52000000001863
312284.5047,9.019171783489497,3.2979459119579713,6.19149919758636,6.201835976022542,41.521000000007916
312284.5057,8.413512080912634,1.6473889949626628,5.806889145184994,5.510101832239186,41.521999999997206
312284.5067,7.394542180392594,-0.22004004983898923,5.078290087709548,4.464735962048613,41.5230000000447
312284.5077,5.9780602191996595,-2.2684942675960675,4.017057436184402,3.0812058399071733,41.52400000003399
312284.5087,4.209262904954264,-4.440571661687801,2.6615144343362855,1.4024416456500564,41.52500000002328
312284.5097,2.161361057734404,-6.659198064758691,1.0755712423618058,-0.502660789044007,41.52600000001257
312284.5107,-0.06832253457721507,-8.831608594561887,-0.6550330603727186,-2.5431876751020654,41.52700000000186
312284.5117,-2.364487928684943,-10.855135380773765,-2.4285803265432486,-4.612305318657001,41.52799999999115
312284.5127,-4.601729135363139,-12.624325571182853,-4.134828482200266,-6.594998274830182,41.52900000003865
312284.5137,-6.653479093571116,-14.038773810130936,-5.663428635547702,-8.376774479350036,41.53000000002794
312284.5147,-8.401261227158557,-15.010971387116617,-6.912563880179319,-9.852564467814192,41.53100000001723
312284.5157,-9.743446734638257,-15.473458472676016,-7.797041881967754,-10.935015049380073,41.53200000000652
312284.5167,-10.602757726681597,-15.384618284209951,-8.255117865554837,-11.561426962451481,41.53299999999581
312284.5177,-10.931867941966322,-14.732568031745599,-8.253437227409504,-11.698706646837657,41.53400000004331
312284.5187,-10.716624409403398,-13.53677027006596,-7.78965707563407,-11.345882944033754,41.535000000032596
312284.5197,-9.976628732669026,-11.847193861348078,-6.892517391741438,-10.533963083151933,41.536000000021886
312284.5207,-8.763155161221327,-9.741076546501429,-5.6193651248877226,-9.323147357759947,41.537000000011176
312284.5217,-7.154621631114768,-7.317559827119892,-4.051366241770629,-7.797664984205274,41.538000000000466
312284.5227,-5.250046887324338,-4.6906605138239605,-2.286849557313689,-6.058711468429199,41.538999999989755
312284.5237,-3.1611012261076064,-1.9811933295377546,-0.4333922931623611,-4.216139548503886,41.54000000003725
312284.5247,-1.003474088106989,0.691649001334665,1.4006348694562496,-2.379665043348058,41.54100000002654
312284.5257,1.111671804989044,3.2183264544935968,3.1143059290197206,-0.6503854048057037,41.54200000001583
312284.5267,3.08541660282403,5.505905220997693,4.621435669352311,0.8866308122418325,41.54300000000512
312284.5277,4.837322790602029,7.483354432869727,5.856308669475945,2.168036848728277,41.54399999999441
312284.5287,6.30970679032829,9.104768815604027,6.777374277879953,3.1557086100556413,41.54500000004191
312284.5297,7.469651165619979,10.35030034534423,7.368641018897525,3.837795237328714,41.5460000000312
312284.5307,8.30868945356116,11.22480082562245,7.638726905532885,4.227299850721969,41.54700000002049
312284.5317,8.84032102124992,11.754393309524344,7.617745974466231,4.358408926111844,41.54800000000978
312284.5327,9.095718448648864,11.98138253403543,7.352414325041251,4.281002817789425,41.54899999999907
312284.5337,9.118154874487336,11.958064475375195,6.8999215008336305,4.05394928776674,41.550000000046566
312284.5347,8.956787752371895,11.740088478638908,6.321219743464804,3.7378902462196506,41.551000000035856
312284.5357,8.660478472372468,11.380053486194154,5.674424589575684,3.3882690040943446,41.552000000025146
312284.5367,8.272300875670055,10.921980467533608,5.00899210403161,3.0493079921003465,41.553000000014435
312284.5377,7.825299338783412,10.397200668938723,4.361244190442715,2.7495392588082628,41.554000000003725
312284.5387,7.339908898423015,9.822044370938114,3.75166378254271,2.499323189414676,41.554999999993015
312284.5397,6.823261415037909,9.197523196294611,3.184191627472222,2.290581659198287,41.55600000004051
312284.5407,6.27039255546113,8.510989925324832,2.6475450651380865,2.0987412553115705,41.5570000000298
312284.5417,5.667155905594098,7.739554151885714,2.118367926725908,1.8866533199546967,41.55800000001909
312284.5427,4.9944641121989575,6.854850417686361,1.565830559389974,1.610053210106174,41.55900000000838
312284.5437,4.233331597264686,5.828615706658993,0.9571489870143199,1.223961675341049,41.55999999999767
312284.5447,3.3701038862939767,4.63844915682184,0.2633972426732254,0.6893324826151049,41.56100000004517
312284.5457,2.4012340709106987,3.2731067806371152,-0.5350436514927216,-0.020777820933458375,41.56200000003446
312284.5467,1.3370099430711575,1.7367297429163628,-1.444019765443406,-0.9161970086584934,41.56300000002375
312284.5477,0.20374163127269374,0.051511668259664384,-2.452640672239897,-1.9863461493199914,41.56400000001304
312284.5487,-0.9559215113676909,-1.741532172727865,-3.5321834805175056,-3.199063879752261,41.56500000000233
312284.5497,-2.0846804461787385,-3.5838388105508012,-4.637037682957755,-4.501727207252269,41.56599999999162
312284.5507,-3.1142055805119533,-5.402551888990932,-5.707653018237888,-5.824618295946287,41.567000000039116
312284.5517,-3.970400684775238,-7.115490809290258,-6.675243766395289,-7.086258298045213,41.568000000028405
312284.5527,-4.579844480047901,-8.637391582846712,-7.467817268777689,-8.200226941872664,41.569000000017695
312284.5537,-4.876804801445592,-9.886841528828526,-8.016950652837174,-9.082830403547334,41.570000000006985
312284.5547,-4.8101409356871505,-10.793251519883928,-8.264652311274606,-9.660885569925211,41.570999999996275
312284.5557,-4.349397692085391,-11.303195269273557,-8.16962264836499,-9.878865698201286,41.57200000004377
312284.5567,-3.489451969559336,-11.385496767728714,-7.712274533994934,-9.70470325576766,41.57300000003306
312284.5577,-2.253194166712487,-11.03455954974126,-6.897983663541142,-9.133665705726184,41.57400000002235
312284.5587,-0.6919015037957013,-10.271594138377585,-5.75820216820345,-8.189897728947262,41.57500000001164
312284.5597,1.1168283593731083,-9.143597003082489,-4.349269626615067,-6.925441720146734,41.57600000000093
312284.5607,3.0734873565953533,-7.72014650873257,-2.7489746156182706,-5.416786251172152,41.57699999999022
312284.5617,5.06309259068073,-6.088287980658936,-1.0511357849497835,-3.759226520298538,41.57800000003772
312284.5627,6.9631344498369,-4.345961028346626,0.6413369266124369,-2.0595288841645814,41.57900000002701
312284.5637,8.652375564055946,-2.594560023914031,2.2242916575640197,-0.4275532189828504,41.5800000000163
312284.5647,10.019751035814814,-0.93129970481852,3.600394218145996,1.0324135955484546,41.58100000000559
312284.5657,10.972602166354305,0.5579256187452776,4.686673078286365,2.2298319768671586,41.58199999999488
312284.5667,11.443529453448196,1.8045504003209591,5.420869573721021,3.0948572558019234,41.583000000042375
312284.5677,11.395271152194676,2.7616857736798184,5.76602276749785,3.5834426366355974,41.584000000031665
312284.5687,10.823189889784919,3.4064403682326656,5.7128824602739305,3.680154571355077,41.585000000020955
312284.5697,9.755165044752891,3.740043238387836,5.279946535588227,3.3984742082181847,41.586000000010245
312284.5707,8.248922401244211,3.785809476732419,4.511140594118747,2.778595706209464,41.586999999999534
312284.5717,6.387062734188741,3.585195244348001,3.4713772684295088,1.8829669175196684,41.587999999988824
312284.5727,4.270255598447639,3.1923698028874012,2.240428557973367,0.790027552176321,41.58900000003632
312284.5737,2.0092242956328157,2.6678700552610084,0.905698136150877,-0.41323572783709134,41.59000000002561
312284.5747,-0.283752244969804,2.0719847112928877,-0.44542283978592484,-1.639194498581067,41.5910000000149
312284.5757,-2.5030643079127426,1.458532655997302,-1.7329024548006173,-2.80718863788738,41.59200000000419
312284.5767,-4.557007586839378,0.8696518938675114,-2.8904417056018006,-3.8501267279049416,41.59299999999348
312284.5777,-6.37342352313583,0.3321065225211529,-3.8703026243783385,-4.719472222759661,41.59400000004098
312284.5787,-7.903300943499207,-0.14453951770607576,-4.646175834384884,-5.388178687331245,41.59500000003027
312284.5797,-9.12210035358552,-0.5677258338969012,-5.213868695144991,-5.851346398745541,41.59600000001956
312284.5807,-10.028786107480025,-0.9597274717600672,-5.589810702901718,-6.124601898546086,41.59700000000885
312284.5817,-10.642773202920582,-1.353768276778604,-5.807586436973584,-6.240428967265133,41.59799999999814
312284.5827,-10.99919300000673,-1.7888444279743387,-5.912897136445263,-6.242881555655948,41.599000000045635
312284.5837,-11.143036545859724,-2.3038192354391764,-5.957501326495392,-6.1812665644732325,41.600000000034925
312284.5847,-11.122830578419247,-2.9314261534740638,-5.992778309704869,-6.103481617103302,41.601000000024214
312284.5857,-10.984530647367198,-3.692828702613363,-6.063586877933542,-6.049720712685874,41.602000000013504
312284.5867,-10.766275771469349,-4.59333236566791,-6.20305279550374,-6.047216392308477,41.603000000002794
312284.5877,-10.494544181503024,-5.619729741021291,-6.428816622922284,-6.106575455761354,41.603999999992084
312284.5887,-10.182090933115196,-6.739597471058662,-6.741118692682149,-6.220097663721062,41.60500000003958
312284.5897,-9.827851797218305,-7.902667742337724,-7.1229061093857045,-6.362260124775985,41.60600000002887
312284.5907,-9.418783832869645,-9.044187787413966,-7.541936767510931,-6.4923249381583705,41.60700000001816
312284.5917,-8.933403121761211,-10.089978503066979,-7.954648548527399,-6.55880669039088,41.60800000000745
312284.5927,-8.346595560293364,-10.962728086901492,-8.311378735641314,-6.5053417142340875,41.60899999999674
312284.5937,-7.635136085053768,-11.588925919075356,-8.56237756777909,-6.277352129305173,41.61000000004424
312284.5947,-6.783269569619316,-11.905768883757096,-8.663974878604536,-5.828809576908224,41.61100000003353
312284.5957,-5.787691373016104,-11.867364420977013,-8.584238509120533,-5.12838520254583,41.61200000002282
312284.5967,-4.6613189746143515,-11.449612947044523,-8.307509819200789,-4.164325891965368,41.61300000001211
312284.5977,-3.435363274204172,-10.653271521924571,-7.837310709919209,-2.9475169856425127,41.6140000000014
312284.5987,-2.159377579945765,-9.504869447036857,-7.19727747233658,-1.5123670214324523,41.61499999999069
312284.5997,-0.8991674076779338,-8.05534864542922,-6.429973717187266,0.08463664887739418,41.616000000038184
312284.6007,0.2673352940579148,-6.376517704664137,-5.593648225062337,1.7686221846799501,41.617000000027474
312284.6017,1.2559159017480623,-4.555617440117569,-4.757212691291787,3.451973627428437,41.618000000016764
312284.6027,1.9831351940715152,-2.688477478311645,-3.993898286148339,5.041416524532015,41.619000000006054
312284.6037,2.3739586961736,-0.8718799841964746,-3.374190366407423,6.4458984580025085,41.61999999999534
312284.6047,2.3692358449937427,0.8041750916999479,-2.958723415533803,7.584526862198839,41.62100000004284
312284.6057,1.9322985599037632,2.263596711248317,-2.791834810898388,8.393810429715646,41.62200000003213
312284.6067,1.054010953818578,3.450070117721145,-2.8964242218767273,8.833507460146716,41.62300000002142
312284.6077,-0.24427003872757055,4.331131078792895,-3.270649911373524,8.890509521993888,41.62400000001071
312284.6087,-1.9101810853747692,4.900081664261553,-3.8868247707441057,8.58036994516546,41.625
312284.6097,-3.8624244473512905,5.175585478341064,-4.692669596803341,7.946306608188165,41.62599999998929
312284.6107,-5.995328123622758,5.198998774250717,-5.614858608844338,7.055746076597835,41.62700000003679
312284.6117,-8.18556675449807,5.029706609462847,-6.5645739387920985,5.994708468533741,41.62800000002608
312284.6127,-10.30051383568968,4.738919697744025,-7.444592906512295,4.860537018559906,41.62900000001537
312284.6137,-12.207541043344902,4.402529981686152,-8.157283021006279,3.7536333835201527,41.63000000000466
312284.6147,-13.7834879390542,4.093707585530416,-8.612789318368005,2.7689540711871348,41.630999999993946
312284.6157,-14.92350400659842,3.875940725594572,-8.736675722340179,1.9880458276594044,41.632000000041444
312284.6167,-15.548517069878047,3.7971717508280323,-8.476328961822272,1.4723462068360673,41.633000000030734
312284.6177,-15.610702843236776,3.8855716842730175,-7.80554584130234,1.2583548519584948,41.63400000002002
312284.6187,-15.096508312830125,4.147333399651232,-6.7268916653833,1.3551029187827075,41.63500000000931
312284.6197,-14.027000034101277,4.56666581352383,-5.27162342232801,1.7441297836024126,41.6359999999986
312284.6207,-12.455546627720839,5.107957511707044,-3.4971962592303427,2.381938796088673,41.6370000000461
312284.6217,-10.46308030985235,5.71986886770401,-1.4825943358287565,3.2046702580297746,41.63800000003539
312284.6227,-8.1513930881994,6.340927225743309,0.6780739128809214,4.13452251845251,41.63900000002468
312284.6237,-5.635089646861043,6.906057877758873,2.8831196685238205,5.087290954757619,41.64000000001397
312284.6247,-3.0329256331025922,7.3533978974383984,5.031261256192981,5.980295010740334,41.64100000000326
312284.6257,-0.4592975509147487,7.6307184076112105,7.0293272557989015,6.739934728183432,41.64199999999255
312284.6267,1.983384051920588,7.700825263401333,8.798983957810709,7.308162780182787,41.64300000004005
312284.6277,4.2108088365887255,7.545413718974949,10.28189817075868,7.647271213556284,41.64400000002934
312284.6287,6.160898828528214,7.167008757610976,11.442903867624066,7.742562612761698,41.64500000001863
312284.6297,7.795689958866205,6.588813876123272,12.270938366246611,7.602686362206344,41.646000000007916
312284.6307,9.100916923755355,5.852498358223623,12.777731384458857,7.2576513890878855,41.646999999997206
312284.6317,10.083477401500673,5.014156092682169,12.994447193591578,6.75475464841951,41.6480000000447
312284.6327,10.767151885392355,4.138847938933898,12.966675164725254,6.152867449752265,41.64900000003399
312284.6337,11.187114476091478,3.2942770987543644,12.748318405718646,5.5156798157942495,41.65000000002328
312284.6347,11.383872857351985,2.544229627220752,12.395029093295348,4.904601123386203,41.65100000001257
312284.6357,11.39731289614043,1.9424322279082558,11.95787314544574,4.372043925283711,41.65200000000186
312284.6367,11.261491921650851,1.527435106996967,11.477873055549711,3.9557745100154262,41.65299999999115
312284.6377,11.000728582179434,1.3190235030350044,10.981979674651834,3.6749028954642546,41.65400000003865
312284.6387,10.627386463250096,1.31650800683691,10.48087142470353,3.5279176389204636,41.65500000002794
312284.6397,10.141558932733542,1.4990561974377805,9.968788105457833,3.4929636641314525,41.65600000001723
312284.6407,9.532653318329766,1.8280250152720572,9.425395184181399,3.5303347247543067,41.65700000000652
312284.6417,8.782664761686808,2.2510547305452024,8.819464232569626,3.586928499585399,41.65799999999581
312284.6427,7.87074495451691,2.7075109203375636,8.113966878223636,3.6022137029117487,41.65900000004331
312284.6437,6.778527170697499,3.1347277191208156,7.272031974383926,3.5151045898575646,41.660000000032596
312284.6447,5.495581141340999,3.474426846300172,6.2631233560966955,3.2710440622529666,41.661000000021886
312284.6457,4.024348364057665,3.6786702650439813,5.068767783055517,2.8285715891125105,41.662000000011176
312284.6467,2.3839528998552,3.714751387154867,3.6872023430149174,2.164698915994594,41.663000000000466
312284.6477,0.6123903664196769,3.568535824650648,2.1364139269026,1.278530577111749,41.663999999989755
312284.6487,-1.2332418598827628,3.2459172929347093,0.4552003226412435,0.1927364618639592,41.66500000003725
312284.6497,-3.078613099261112,2.7722420951367917,-1.297922361216821,-1.0473064887261214,41.66600000002654
312284.6507,-4.8360519670398086,2.1897580776215064,-3.047927012303222,-2.3766574940544354,41.66700000001583
312284.6517,-6.410178327788541,1.553340999689357,-4.708346468489474,-3.715968575812348,41.66800000000512
312284.6527,-7.704804713080749,0.9249233794149361,-6.1877678340445454,-4.978183149378385,41.66899999999441
312284.6537,-8.63049605712379,0.3671809792374234,-7.397162465498342,-6.076150290140716,41.67000000004191
312284.6547,-9.112093647929814,-0.06289277014624861,-8.257372973396059,-6.930434118160578,41.6710000000312
312284.6557,-9.095493304043192,-0.319881470810329,-8.70605327405985,-7.47657338460576,41.67200000002049
312284.6567,-8.553021178036103,-0.3747178622226121,-8.703400830806201,-7.671094486336428,41.67300000000978
312284.6577,-7.486868662648285,-0.21785171620492247,-8.236127802161713,-7.495697266564917,41.67399999999907
312284.6587,-5.93021965859781,0.13950988971558684,-7.319279582483687,-6.959205899186277,41.675000000046566
312284.6597,-3.945912655041259,0.6662226173928711,-5.995709557789538,-6.097090140033406,41.676000000035856
312284.6607,-1.622706631562418,1.3140135258176069,-4.33323837923852,-4.968594550523683,41.677000000025146
312284.6617,0.9305581183718469,2.0220087624131953,-2.419743352357762,-3.6517423258434216,41.678000000014435
312284.6627,3.5924170080060973,2.7225389755069,-0.3566175233092549,-2.2366837523413663,41.679000000003725
312284.6637,6.237217652674888,3.347652609179624,1.7488101392540873,-0.8180172219894589,41.679999999993015
312284.6647,8.743806065395365,3.8356947555433676,3.791207143636995,0.5131922775068102,41.68100000004051
312284.6657,11.003710070708964,4.137300120813474,5.674807257038605,1.6769456753750707,41.6820000000298
312284.6667,12.928115765989025,4.220203999422809,7.319942335602028,2.61068818986293,41.68300000001909
312284.6677,14.453047624113875,4.072389677217282,8.667965441337957,3.2739432274547724,41.68400000000838
312284.6687,15.542333033315622,3.7032532824980837,9.684153414805875,3.6507834706047415,41.68499999999767
312284.6697,16.188141307268875,3.14266188622773,10.358374709866935,3.7499331370169346,41.68600000004517
312284.6707,16.409115277022238,2.4379885183332166,10.703525234874903,3.6025272321815978,41.68700000003446
312284.6717,16.246338476181172,1.6494082694944328,10.751949927613172,3.2577822431403742,41.68800000002375
312284.6727,15.757580952839138,0.8439130033475569,10.550259801837699,2.777035715507715,41.68900000001304
312284.6737,15.010422625744026,0.08863123747028814,10.153104524677692,2.22676960782445,41.69000000000233
312284.6747,14.074949906720049,-0.5558884096376508,9.61655463428255,1.671328784312935,41.69099999999162
312284.6757,13.016749872589127,-1.0417644585329509,8.991776264818613,1.1660720335102506,41.692000000039116
312284.6767,11.890884094450243,-1.3386328738248523,8.319642129435156,0.7516460527863259,41.693000000028405
312284.6777,10.737415737036477,-1.436770977016292,7.626819623489891,0.44995756204049553,41.694000000017695
312284.6787,9.578899615447346,-1.3481723751575458,6.923720624200588,0.2622464766058692,41.695000000006985
312284.6797,8.420041831224355,-1.105449732579054,6.204503496408841,0.1694508678384398,41.695999999996275
312284.6807,7.249513495357955,-0.7586548031545667,5.449105285894923,0.13482320720206012,41.69700000004377
312284.6817,6.043683802050096,-0.37031017014908857,4.6270722076553366,0.10852995469900119,41.69800000003306
312284.6827,4.771842943302245,-0.009124552923986753,3.702770152499367,0.033765390379774385,41.69900000002235
312284.6837,3.402334214259805,0.25700408859772605,2.6414125494670997,-0.1462443920611306,41.70000000001164
312284.6847,1.9089220057856977,0.3680191755577359,1.4152548982393063,-0.48106482427152997,41.70100000000093
312284.6857,0.2766973055741301,0.27808272846755033,0.009282437083348569,-1.0064435346868474,41.70199999999022
312284.6867,-1.493132723501534,-0.03932990037984907,-1.574237865262707,-1.7389575692111705,41.70300000003772
312284.6877,-3.3801139875281723,-0.5881274856616748,-3.3128617646318745,-2.67248712616305,41.70400000002701
312284.6887,-5.343451195383253,-1.3484329154167143,-5.163088544260316,-3.7769095990812542,41.7050000000163
312284.6897,-7.323124076908544,-2.277682901209331,-7.061660065941227,-4.999191777649616,41.70600000000559
312284.6907,-9.243166013515332,-3.313917233648365,-8.928984214822876,-6.266823409319109,41.70699999999488
312284.6917,-11.016838417609867,-4.380966762726339,-10.674416531728141,-7.493304897251308,41.708000000042375
312284.6927,-12.553240631578324,-5.395065738426971,-12.20294575269967,-8.585198243704248,41.709000000031665
312284.6937,-13.764745701046916,-6.27227549001288,-13.42268372533804,-9.450093392674699,41.710000000020955
312284.6947,-14.574561933463512,-6.936026135034425,-14.252472149729414,-10.00474729432414,41.711000000010245
312284.6957,-14.923697750088024,-7.324068953393806,-14.628896647757735,-10.182629677099369,41.711999999999534
312284.6967,-14.77665539948455,-7.394185708108999,-14.512045221557395,-9.940160086514718,41.712999999988824
312284.6977,-14.125293157003597,-7.128117469993488,-13.889458971866148,-9.261040457052546,41.71400000003632
312284.6987,-12.990464762213191,-6.53334327626918,-12.777887496606976,-8.15826482619228,41.71500000002561
312284.6997,-11.421252721855787,-5.64254210498481,-11.222663916847502,-6.6736056742399,41.7160000000149
312284.7007,-9.491838598084618,-4.510790632694954,-9.294735499407906,-4.874613739243714,41.71700000000419
312284.7017,-7.296276532432843,-3.2107629836690754,-7.085604054449684,-2.8494020815420003,41.71799999999348
312284.7027,-4.941634345196544,-1.8263866084017573,-4.700624620907112,-0.699693067500072,41.71900000004098
312284.7037,-2.540120333427222,-0.4455524899792694,-2.251262649687369,1.4672312437045567,41.72000000003027
312284.7047,-0.2009084040485579,0.8474357251446013,0.15299568042192158,3.5469346534786723,41.72100000001956
312284.7057,1.9775997773455996,1.9789685316511996,2.412357303624859,5.44581868771463,41.72200000000885
312284.7067,3.9143818972742648,2.892135271504189,4.44337846085419,7.087975998924662,41.72299999999814
312284.7077,5.550689206494465,3.551078698372035,6.183987260925544,8.420294674590947,41.724000000045635
312284.7087,6.85281296932356,3.943313374573827,7.59645697734535,9.415374969282112,41.725000000034925
312284.7097,7.812514992332493,4.079820042515813,8.668113668178353,10.072033245676797,41.726000000024214
312284.7107,8.445140038777158,3.9929430897075546,9.409780358877356,10.413401442096452,41.727000000013504
312284.7117,8.78565113248078,3.732329101990551,9.852176817168292,10.482861407275825,41.728000000002794
312284.7127,8.883027441105357,3.3593308348009288,10.040687793156978,10.338259487214716,41.728999999992084
312284.7137,8.793619262501094,2.940444751918416,10.02906468702528,10.045007841501741,41.73000000003958
312284.7147,8.574150567492294,2.5404378190879733,9.87272123761762,9.668779577522162,41.73100000002887
312284.7157,8.275087283559728,2.2158422686141197,9.622313833422592,9.268535341855806,41.73200000001816
312284.7167,7.935046404355057,2.0094536663870377,9.318258698805712,8.890576796941035,41.73300000000745
312284.7177,7.576811365706806,1.946362398872809,8.986735462617613,8.564211864320976,41.73399999999674
312284.7187,7.205353724813512,2.0318922571479097,8.637569737331756,8.299448843450886,41.73500000004424
312284.7197,6.808056248161184,2.2516276934352013,8.264191887520402,8.086928212236678,41.73600000003353
312284.7207,6.35710815340637,2.5735025531251132,7.845654486457981,7.900072719497136,41.73700000002282
312284.7217,5.8138214671937645,2.9517181899850224,7.350478274718523,7.699210843736254,41.73800000001211
312284.7227,5.134420026700347,3.332077946749907,6.741906781696674,7.437228075889674,41.7390000000014
312284.7237,4.27669898706982,3.658185702684484,5.984001941103066,7.066144572292113,41.73999999999069
312284.7247,3.206857977323464,3.877872092146915,5.047921731293084,6.5439218982032905,41.741000000038184
312284.7257,1.905784732021991,3.9491911742710184,3.9176952815755706,5.840775315733378,41.742000000027474
312284.7267,0.3741109311281844,3.845374651227913,2.5948537575535413,4.944314008608456,41.743000000016764
312284.7277,-1.3645259986944247,3.5582356689563674,1.1013827155433924,3.8629453424281106,41.744000000006054
312284.7287,-3.262412866211975,3.0996693341349295,-0.5193767905848983,2.627149647960372,41.74499999999534
312284.7297,-5.249071382680246,2.5010869890658602,-2.204050885145952,1.28844243734066,41.74600000004284
312284.7307,-7.234909316493392,1.8108272563192749,-3.8727325459673128,-0.08392917009048162,41.74700000003213
312284.7317,-9.116944673327499,1.0897885995852457,-5.434394427760389,-1.4082822445294911,41.74800000002142
312284.7327,-10.786131963278224,0.4057057840964474,-6.793757400113016,-2.59731103744523,41.74900000001071
312284.7337,-12.135659619628035,-0.17337132295749508,-7.85900628868955,-3.5657858313156536,41.75
312284.7347,-13.069486634712291,-0.5857570855050749,-8.549650672277162,-4.238410599164392,41.75099999998929
312284.7357,-13.510354315763163,-0.7823099123965729,-8.80380178888089,-4.557086878607031,41.75200000003679
312284.7367,-13.406548941858015,-0.7315015366145688,-8.584179565288473,-4.486878627647191,41.75300000002608
312284.7377,-12.736799281225494,-0.42287158689389737,-7.882272663363147,-4.020088752078214,41.75400000001537
312284.7387,-11.512859085284992,0.13148014962833152,-6.720238986016397,-3.178031449330616,41.75500000000466
312284.7397,-9.779532917444426,0.8975204402652225,-5.15033864569569,-2.010298863518069,41.755999999993946
312284.7407,-7.612134082372596,1.821978413170615,-3.251916414394142,-0.5915551606178996,41.757000000041444
312284.7417,-5.111593994047999,2.8368587059068107,-1.1261746029168858,0.9838766055204506,41.758000000030734
312284.7427,-2.397651117356881,3.8653428570437787,1.110821275410538,2.609161957105747,41.75900000002002
312284.7437,0.39928510866877337,4.828514456921096,3.3363020494354507,4.1732011551447314,41.76000000000931
312284.7447,3.146889845533708,5.6522634759389545,5.429414900227953,5.569236093096119,41.7609999999986
312284.7457,5.719549475957569,6.273708271011356,7.279562887111588,6.703047822327603,41.7620000000461
312284.7467,8.006138515570333,6.646521714772057,8.793756501985337,7.500015657273785,41.76300000003539
312284.7477,9.916320954161836,6.744655997397724,9.902369266466762,7.9104189050069245,41.76400000002468
312284.7487,11.384902313239182,6.564118292004541,10.562844910140688,7.912530591706543,41.76500000001397
312284.7497,12.373952666277791,6.122641141322458,10.761099805384044,7.513262672468135,41.76600000000326
312284.7507,12.872637241819561,5.457298243602226,10.51058181842839,6.746353654363794,41.76699999999255
312284.7517,12.894908598935817,4.620317911244569,9.84916434981819,5.6683198724923605,41.76800000004005
312284.7527,12.475411415999922,3.6735229691907865,8.834251004979137,4.352598565097846,41.76900000002934
312284.7537,11.664108567324341,2.681959835902021,7.536623196687656,2.8824744982284756,41.77000000001863
312284.7547,10.52024037325598,1.7073577539714329,6.033665235054957,1.3434866076837175,41.771000000007916
312284.7557,9.106268255502503,0.8020738682506194,4.402639801536982,-0.18395280106351034,41.771999999997206
312284.7567,7.482426538642954,0.004129606413288943,2.7146582055645063,-1.631029316410457,41.7730000000447
312284.7577,5.702415567644843,-0.6661664670268482,1.029898188142939,-2.9454943198646526,41.77400000003399
312284.7587,3.8106257307136704,-1.2076736124092662,-0.6055228120765667,-4.0946957718345764,41.77500000002328
312284.7597,1.8411007275928588,-1.6378088891999802,-2.1607939603375517,-5.066438938963826,41.77600000001257
312284.7607,-0.18175145245561625,-1.989936650967667,-3.6197541859356743,-5.867665519635839,41.77700000000186
312284.7617,-2.2408890716515897,-2.3090233018695647,-4.978510511086805,-6.521159567599707,41.77799999999115
312284.7627,-4.323172969536423,-2.645998309081816,-6.241689357041977,-7.060685297091056,41.77900000003865
312284.7637,-6.415207249619881,-3.0513943841143165,-7.417818629479664,-7.525115879369695,41.78000000002794
312284.7647,-8.499062633090006,-3.5689152293857047,-8.514424962418916,-7.952208624693016,41.78100000001723
312284.7657,-10.548477691058682,-4.229590742321492,-9.53345518797018,-8.372711186985663,41.78200000000652
312284.7667,-12.526085431325294,-5.047125816069606,-10.467591682872897,-8.805443020012103,41.78299999999581
312284.7677,-14.382105127961122,-6.014935025840937,-11.297931958425009,-9.253890568358235,41.78400000004331
312284.7687,-16.05478274626945,-7.105192599390723,-11.993353949838543,-9.70469438818738,41.785000000032596
312284.7697,-17.472673751185834,-8.27003101068273,-12.511705132089613,-10.128207751754243,41.786000000021886
312284.7707,-18.558658828605704,-9.444811433192262,-12.802754490265613,-10.481089269916625,41.787000000011176
312284.7717,-19.23538690870481,-10.553185647803637,-12.812651733272808,-10.710678445274274,41.788000000000466
312284.7727,-19.43167106629644,-11.513491696190407,-12.489467764966012,-10.760714271752027,41.788999999989755
312284.7737,-19.089238971186546,-12.245891913323037,-11.789261736359638,-10.577811986731097,41.79000000003725
312284.7747,-18.16917377721857,-12.679585021838221,-10.682046312867111,-10.118026489041904,41.79100000002654
312284.7757,-16.657381174966275,-12.759411271996237,-9.157011999928942,-9.352811617555313,41.79200000001583
312284.7767,-14.5684848276497,-12.451222471076095,-7.226425176545486,-8.273734653166448,41.79300000000512
312284.7777,-11.947680008539592,-11.74550211715891,-4.927728208090493,-6.895420408535417,41.79399999999441
312284.7787,-8.870252332785864,-10.658883829817912,-2.3235330305852075,-5.256368037707511,41.79500000004191
312284.7797,-5.43867843738366,-9.233413157930457,0.500603614202813,-3.4174898285231934,41.7960000000312
312284.7807,-1.7774483551944336,-7.533609680006642,3.4405235100814093,-1.4584445953041671,41.79700000002049
312284.7817,1.9740362401567486,-5.64159270446254,6.379623197262607,0.527943042395929,41.79800000000978
312284.7827,5.669948532562538,-3.6507149810630644,9.196337400900415,2.442693768177453,41.79899999999907
312284.7837,9.167230545521388,-1.658287269299401,11.77232753667306,4.188484188850592,41.800000000046566
312284.7847,12.334740513746798,0.2419408633870592,14.000674036565448,5.677538953791879,41.801000000035856
312284.7857,15.061591700448423,1.966859838794447,15.793357603383319,6.838868159096533,41.802000000025146
312284.7867,17.26398324785445,3.4500008545456846,17.087368313330554,7.62416679080028,41.803000000014435
312284.7877,18.889951237593717,4.645928311216771,17.848898186674592,8.011812408106028,41.804000000003725
312284.7887,19.921649219630986,5.532650925987871,18.075241785414843,8.008572001061655,41.804999999993015
312284.7897,20.374985317357936,6.111870720010678,17.794234821534385,7.648842353489821,41.80600000004051
312284.7907,20.296677324679322,6.407097221085752,17.061283311606143,6.9914798419528,41.8070000000298
312284.7917,19.759016020919628,6.459858139826799,15.954254381873351,6.114503088047081,41.80800000001909
312284.7927,18.85282873170232,6.324417660118883,14.566693581166927,5.1081532455676335,41.80900000000838
312284.7937,17.679290961611375,6.061551921444317,12.999983963496957,4.066952390464272,41.80999999999767
312284.7947,16.341329063942577,5.732014931630505,11.355154827183647,3.081495301855004,41.81100000004517
312284.7957,14.935382504147542,5.390349085693485,9.725073931098203,2.2307345511707206,41.81200000003446
312284.7967,13.544248059158837,5.079650887562368,8.18771374328065,1.5754707188286103,41.81300000002375
312284.7977,12.231614880798672,4.827798912024294,6.801073974459775,1.1536432561722738,41.81400000001304
312284.7987,11.038729775374867,4.645497919037328,5.600179755012613,0.9778441619508587,41.81500000000233
312284.7997,9.98342272566689,4.526305611219415,4.596373059803767,1.0352629660131691,41.81599999999162
312284.8007,9.061493812970637,4.448605431734707,3.7788938681922475,1.2900381685206221,41.817000000039116
312284.8017,8.250236336492389,4.379290182985801,3.118528438316457,1.6877598642997482,41.818000000028405
312284.8027,7.513668836187246,4.278746802136628,2.572906144318932,2.161663114563715,41.819000000017695
312284.8037,6.808890266307266,4.106599665787109,2.0928724758045827,2.6398915918659105,41.820000000006985
312284.8047,6.092872828522956,3.827591533495825,1.6292688246915317,3.0531116108468916,41.820999999996275
312284.8057,5.328975305483804,3.416965510084961,1.139418826194391,3.3417274560645627,41.82200000004377
312284.8067,4.492498844753123,2.8647598788549393,0.5926590617027332,3.4619926746472114,41.82300000003306
312284.8077,3.5747128342561982,2.178535666666385,-0.025645073837931492,3.3904243457626255,41.82400000002235
312284.8087,2.5849401018462905,1.3842137953361333,-0.7119998784631928,3.12609720847277,41.82500000001164
312284.8097,1.5504920422692645,0.5248892374737901,-1.4448050666649905,2.690605247374923,41.82600000000093
312284.8107,0.5144654435238543,-0.34230504662430666,-2.186485257708325,2.1257092382354035,41.82699999999022
312284.8117,-0.4683681333296624,-1.1510117638559576,-2.8875052247317985,1.4889172143555294,41.82800000003772
312284.8127,-1.337154216309068,-1.8316934077026625,-3.4918512498569183,0.8474484484377038,41.82900000002701
312284.8137,-2.0314499869792364,-2.3183279991304064,-3.9434110797821225,0.2711904160354623,41.8300000000163
312284.8147,-2.497948720304582,-2.555101980986853,-4.192591710069014,-0.17464322501808566,41.83100000000559
312284.8157,-2.6967343379653252,-2.502434121392179,-4.20248676211269,-0.43641695569543754,41.83199999999488
312284.8167,-2.6064093930088186,-2.1417181705813997,-3.953946298053772,-0.47784735046163057,41.833000000042375
312284.8177,-2.2275486552420043,-1.4782866619181836,-3.4490075432443166,-0.28406628692765773,41.834000000031665
312284.8187,-1.5840943568952568,-0.5422628626445442,-2.7123047963920928,0.13643751121902767,41.835000000020955
312284.8197,-0.7225119174155832,0.6128332738078269,-1.7902751089236941,0.7521996137674981,41.836000000010245
312284.8207,0.2912534211910735,1.9136453891480512,-0.7481936152400838,1.511455057267414,41.836999999999534
312284.8217,1.376760044258776,3.2724192205677216,0.3347126797373706,2.3468521036955425,41.837999999988824
312284.8227,2.4455405765401137,4.593848991339535,1.3716324558739492,3.181747529789188,41.83900000003632
312284.8237,3.4084566739009987,5.7827228154359,2.275429772727409,3.9374698134253134,41.84000000002561
312284.8247,4.18324371469246,6.751677097207492,2.966114796339322,4.540840420005821,41.8410000000149
312284.8257,4.701527704897228,7.428354269507607,3.3778187589777646,4.931217073328484,41.84200000000419
312284.8267,4.914643649878654,7.761309838212826,3.464609500098322,5.0663689694296,41.84299999999348
312284.8277,4.797697461159419,7.724128816698346,3.2045918016623878,4.926607780411558,41.84400000004098
312284.8287,4.351481206579252,7.317377395352231,2.6018988523497764,4.516768753971231,41.84500000003027
312284.8297,3.602057813690966,6.568217229589197,1.6863817789005207,3.8658464477443335,41.84600000001956
312284.8307,2.598056032913997,5.527727694791735,0.5110237289586319,3.0243189589676303,41.84700000000885
312284.8317,1.4059375685719127,4.266194900608142,-0.8526779120298009,2.059420381095754,41.84799999999814
312284.8327,0.1036941369950394,2.8668146751116823,-2.320924083483715,1.0488214678893117,41.849000000045635
312284.8337,-1.2264163845456975,1.4184020547528202,-3.804833229809646,0.07333348367566526,41.850000000034925
312284.8347,-2.505393449652115,0.007788176231594727,-5.217984968986694,-0.7906551957668765,41.851000000024214
312284.8357,-3.664551956702907,-1.2873914725159996,-6.483578357948811,-1.4782752080947135,41.852000000013504
312284.8367,-4.651436938096667,-2.404857716005158,-7.540535929758311,-1.9421175709337288,41.853000000002794
312284.8377,-5.434029920480889,-3.302244535915108,-8.347990476964306,-2.156447152049295,41.853999999992084
312284.8387,-6.002850338416658,-3.959658517758212,-8.887751675237395,-2.1192854724815438,41.85500000003958
312284.8397,-6.370762392991994,-4.3800430138006625,-9.164548375927673,-1.852169697427463,41.85600000002887
312284.8407,-6.570523265913302,-4.587362255093348,-9.204060286446046,-1.397622962138207,41.85700000001816
312284.8417,-6.650330601981537,-4.622830455547008,-9.048968495164853,-0.8145957419449384,41.85800000000745
312284.8427,-6.667823970035658,-4.539597122456109,-8.753446809342904,-0.17233679682472527,41.85899999999674
312284.8437,-6.6831473720195085,-4.396444373125965,-8.376666380138744,0.45669416785497075,41.86000000004424
312284.8447,-6.751772892454827,-4.251141232143367,-7.975979933560053,1.004166610004306,41.86100000003353
312284.8457,-6.917810152494259,-4.1541252813044345,-7.600480008940297,1.4127425033745111,41.86200000002282
312284.8467,-7.208479912411479,-4.143141541612206,-7.285585262898048,1.6417810915008348,41.86300000001211
312284.8477,-7.630317419984555,-4.239366410630679,-7.0492041536481755,1.6713178972129143,41.8640000000014
312284.8487,-8.167502865337516,-4.445391180890292,-6.889866497309332,1.5039213207530309,41.86499999999069
312284.8497,-8.782508912714722,-4.745250416552716,-6.787016083907215,1.164239737305365,41.866000000038184
312284.8507,-9.419028882816805,-5.106474016739325,-6.703441109417193,0.6962801760399084,41.867000000027474
312284.8517,-10.00692574956852,-5.483938513553056,-6.589604837731687,0.15868410101895214,41.868000000016764
312284.8527,-10.46874339384045,-5.825113032627384,-6.389447661073868,-0.38153545048097437,41.869000000006054
312284.8537,-10.727166822473313,-6.076156044722951,-6.047082329585006,-0.8561775546233852,41.86999999999534
312284.8547,-10.712722335031629,-6.188234165316692,-5.513711234659782,-1.2032467759612062,41.87100000004284
312284.8557,-10.370981188475874,-6.123412044308595,-4.754067403888657,-1.3738212149798716,41.87200000003213
312284.8567,-9.66857382229096,-5.859504884774019,-3.7517220378315557,-1.337708197211,41.87300000002142
312284.8577,-8.597431927746937,-5.393388027767865,-2.5127070549141894,-1.087315831280144,41.87400000001071
312284.8587,-7.176841871646228,-4.742411096774938,-1.067060984583282,-0.6393400363848268,41.875
312284.8597,-5.453099096183779,-3.9437522495373853,0.5318948572791197,-0.03407748667497753,41.87599999998929
312284.8607,-3.4967791512981883,-3.0517525536284342,2.2105249566273675,0.6675952582312863,41.87700000003679
312284.8617,-1.397865123506834,-2.133471211088294,3.8798517379811432,1.3893097261040108,41.87800000002608
312284.8627,0.7408282020309597,-1.262879526920614,5.442096538979451,2.0458928646604155,41.87900000001537
312284.8637,2.811335331639636,-0.514247705548137,6.798202760029665,2.551029913336762,41.88000000000466
312284.8647,4.708628149612107,0.04463962105534351,7.855658834007768,2.8251830342992013,41.880999999993946
312284.8657,6.338380310472141,0.35878380693351475,8.535908451271085,2.8030193771087304,41.882000000041444
312284.8667,7.623714421803052,0.39117807742206984,8.780673584126063,2.4396476500580406,41.883000000030734
312284.8677,8.510341775767655,0.12641311470997288,8.556618464519417,1.7150751394135118,41.88400000002002
312284.8687,8.969663248499458,-0.4276691998001929,7.857939692100398,0.6364664225360742,41.88500000000931
312284.8697,8.999598668327884,-1.24043683829857,6.706663728119241,-0.7620057429168472,41.8859999999986
312284.8707,8.623130893116558,-2.2610019937769854,5.150649044450819,-2.42169806178048,41.8870000000461
312284.8717,7.8847685995179715,-3.4225870625158596,3.2595051424790906,-4.264177419781308,41.88800000003539
312284.8727,6.845327167521938,-4.648304156583481,1.118833702145137,-6.1975976113387805,41.88900000002468
312284.8737,5.575581136515517,-5.857794762103548,-1.1766503560376245,-8.12416741908663,41.89000000001397
312284.8747,4.149439746502642,-6.974095148146354,-3.530462712791852,-9.948006938321832,41.89100000000326
312284.8757,2.6373298597291557,-7.930074263289437,-5.851470090724051,-11.582659049583588,41.89199999999255
312284.8767,1.1004353322363127,-8.673835874765981,-8.06013297728364,-12.957564022592264,41.89300000004005
312284.8777,-0.41365738106620664,-9.172581072539895,-10.093313658175754,-14.022913047673264,41.89400000002934
312284.8787,-1.8735107102672233,-9.414580612983253,-11.907243336584582,-14.752460188488879,41.89500000001863
312284.8797,-3.264379279452627,-9.409093743746988,-13.478431103972815,-15.144075547195332,41.896000000007916
312284.8807,-4.586750249324575,-9.184272652062461,-14.80250590029455,-15.218045212911269,41.896999999997206
312284.8817,-5.853094347517874,-8.78328954255054,-15.891189655847107,-15.01334385713215,41.8980000000447
312284.8827,-7.083226817589753,-8.25909708473338,-16.7677850477567,-14.582301983443955,41.89900000003399
312284.8837,-8.298821681945554,-7.6683654795324765,-17.461706455823368,-13.984242607376375,41.90000000002328
312284.8847,-9.517711048367797,-7.0652176636740975,-18.002673505226465,-13.278756632939785,41.90100000001257
312284.8857,-10.748624826676984,-6.495400548148544,-18.41521419034212,-12.519313288362405,41.90200000000186
312284.8867,-11.986982720731302,-5.99148313188087,-18.714086414024404,-11.747859245835862,41.90299999999115
312284.8877,-13.212243953301416,-5.569566566980525,-18.901126802201468,-10.990951952874664,41.90400000003865
312284.8887,-14.38716136062897,-5.227837294208559,-18.963883944760276,-10.25781018821453,41.90500000002794
312284.8897,-15.45909098686516,-4.947107490016247,-18.876204982648098,-9.540464250798783,41.90600000001723
312284.8907,-16.363295533327964,-4.693285794130898,-18.60073855179579,-8.81596959725664,41.90700000000652
312284.8917,-17.027971171852553,-4.421525570138497,-18.093114124739706,-8.050433050578194,41.90799999999581
312284.8927,-17.38054320721393,-4.081627203851133,-17.307378119151668,-7.204411425747105,41.90900000004331
312284.8937,-17.354635394600184,-3.6241421289937596,-16.20212885793946,-6.239097571081504,41.910000000032596
312284.8947,-16.897034707317136,-3.0065522295532157,-14.746709598244644,-5.122623036646381,41.911000000021886
312284.8957,-15.973956704300267,-2.1988864570565516,-12.926799974293335,-3.8357886440901323,41.912000000011176
312284.8967,-14.575968561491628,-1.188188244719113,-10.748793587181748,-2.3765862151029937,41.913000000000466
312284.8977,-12.721042758253793,0.0186423430667272,-8.242458835656658,-0.7629917439235551,41.913999999989755
312284.8987,-10.455383481068196,1.3939495513864824,-5.461540978155395,0.9663189850176247,41.91500000003725
312284.8997,-7.851873875476992,2.89049315446593,-2.482160269936247,2.7534736708942065,41.91600000002654
312284.9007,-5.006215485651084,4.444612816075092,0.600925368899128,4.525042877614556,41.91700000001583
312284.9017,-2.0310499363779737,5.981110540361905,3.6799152675083047,6.1975143837184765,41.91800000000512
312284.9027,0.9514541544993194,7.419404189984155,6.640955984230988,7.684110544209038,41.91899999999441
312284.9037,3.8179177481135422,8.680376033728653,9.371922278485142,8.902312586085044,41.92000000004191
312284.9047,6.452251056137127,9.693267062510156,11.770300627456324,9.781372980974938,41.9210000000312
312284.9057,8.753594852778363,10.401957757831351,13.750468206150344,10.269084268922747,41.92200000002049
312284.9067,10.64301113824671,10.770030297148129,15.24970949724243,10.337131753464353,41.92300000000978
312284.9077,12.068345660381777,10.784120707323584,16.232425334963306,9.984483092433589,41.92399999999907
312284.9087,13.00685421168811,10.455231282742012,16.692154517402777,9.238448143420472,41.925000000046566
312284.9097,13.465392316529302,9.817867971001037,16.65123028106394,8.15326023069711,41.926000000035856
312284.9107,13.478193859649634,8.92707548447477,16.15811343902155,6.806264275351809,41.927000000025146
312284.9117,13.102486576199022,7.853644345447742,15.282659641821544,5.29202526733256,41.928000000014435
312284.9127,12.412389693703787,6.677939262769112,14.109769183351672,3.7148701746421127,41.929000000003725
312284.9137,11.49169242651565,5.482930061926526,12.73201558503721,2.1805280942692096,41.929999999993015
312284.9147,10.426206832895492,4.347081962637148,11.241939583184564,0.7876223722765411,41.93100000004051
312284.9157,9.296415861341195,3.3377739183263313,9.724719431704534,-0.38021425221065763,41.9320000000298
312284.9167,8.1710949531693,2.5058608136108864,8.251884364481109,-1.2608865610369897,41.93300000001909
312284.9177,7.102477873588466,1.8818827079403198,6.876630043013204,-1.8184552475725395,41.93400000000838
312284.9187,6.12337542316905,1.4742630032563877,5.6311334800478985,-2.045416847501048,41.93499999999767
312284.9197,5.246455534868786,1.2696431591209583,4.526066107897001,-1.962454862363845,41.93600000004517
312284.9207,4.46567487987989,1.2352933739405205,3.5522868312096025,-1.6157091109408317,41.93700000003446
312284.9217,3.7596371129140134,1.323336870751746,2.6844832968711105,-1.071842644226537,41.93800000002375
312284.9227,3.096462513352912,1.476349834123,1.8863401295154039,-0.41139040499637014,41.93900000001304
312284.9237,2.4396067682405143,1.6337668557578555,1.1166660468098624,0.27896849005818886,41.94000000000233
312284.9247,1.7539774136585462,1.7384459335397429,0.3358219207196633,0.9144775144490798,41.94099999999162
312284.9257,1.0116736737754117,1.7427350823827856,-0.488232271880905,1.4199470327495516,41.942000000039116
312284.9267,0.1967211841273192,1.6134356398655143,-1.3749097823996699,1.7362638171392706,41.943000000028405
312284.9277,-0.6917173722263951,1.3351701741258293,-2.32751939441191,1.8251709696875942,41.944000000017695
312284.9287,-1.6380124152990878,0.9118244176559633,-3.331707956304311,1.6718975934798892,41.945000000006985
312284.9297,-2.6107764133429185,0.36592693299015855,-4.355995904437008,1.2854311805867362,41.945999999996275
312284.9307,-3.565554463699803,-0.2639619208945411,-5.354363511166912,0.6964578044099234,41.94700000004377
312284.9317,-4.449229320646947,-0.9275792730790936,-6.270634317723058,-0.046776913034044174,41.94800000003306
312284.9327,-5.205689931117608,-1.5685608501170731,-7.044215636434683,-0.88423170354096,41.94900000002235
312284.9337,-5.782173648306771,-2.1307377174823925,-7.616612682700063,-1.7508487989520876,41.95000000001164
312284.9347,-6.135612435912877,-2.5644798898622887,-7.938047160919567,-2.583644592824841,41.95100000000093
312284.9357,-6.238300907449765,-2.8324300450501414,-7.973491688999585,-3.328384177555593,41.95199999999022
312284.9367,-6.082260660903868,-2.914028158492648,-7.707480520603379,-3.94516051040847,41.95300000003772
312284.9377,-5.6817959177661645,-2.8083455857995028,-7.147170110645435,-4.412314666153851,41.95400000002701
312284.9387,-5.07390844733662,-2.5349135500724893,-6.32328937275139,-4.728305043600943,41.9550000000163
312284.9397,-4.316448398598825,-2.132429886189779,-5.288822953370395,-4.911343436859433,41.95600000000559
312284.9407,-3.484101607937362,-1.6554397430195895,-4.115491759434733,-4.99684370321093,41.95699999999488
312284.9417,-2.6625312151023435,-1.1692898859909757,-2.888311815268025,-5.032951767328379,41.958000000042375
312284.9427,-1.9411805465980718,-0.7438321128740094,-1.6987041014442408,-5.074621790963259,41.959000000031665
312284.9437,-1.4053863945822413,-0.44648161031263733,-0.6367755419413802,-5.176853058833904,41.960000000020955
312284.9447,-1.1285326950808356,-0.3353077546937733,0.21651982281701437,-5.38779060103544,41.961000000010245
312284.9457,-1.1649857572308586,-0.45284051219798027,0.7966091401896476,-5.742410931516492,41.961999999999534
312284.9467,-1.5444919241689634,-0.8212142699329892,1.0612368639125944,-6.257460568914362,41.962999999988824
312284.9477,-2.2685920959144985,-1.439148231961643,0.99454129892718,-6.928194349627846,41.96400000003632
312284.9487,-3.309426599837014,-2.2810900603251527,0.6088733270237479,-7.727284665842332,41.96500000002561
312284.9497,-4.611085471552887,-3.298643754768212,-0.05583298331652913,-8.606058836015398,41.9660000000149
312284.9507,-6.093424024371647,-4.42418367434464,-0.9351012653967481,-9.497990789624646,41.96700000000419
312284.9517,-7.658034060505211,-5.576345320226143,-1.9451044456390876,-10.324147799348037,41.96799999999348
312284.9527,-9.195859177319562,-6.666900552976789,-2.9895462623799056,-11.00009531482913,41.96900000004098
312284.9537,-10.595787733243617,-7.608388160813856,-3.9676152989693754,-11.443612580401654,41.97000000003027
312284.9547,-11.75346409102003,-8.321793556745222,-4.782295794481031,-11.582483623738666,41.97100000001956
312284.9557,-12.579536775329666,-8.743561551814432,-5.348288835608532,-11.361611313065216,41.97200000000885
312284.9567,-13.00661340370301,-8.831284819638425,-5.59883735955001,-10.748758503022913,41.97299999999814
312284.9577,-12.994311893951414,-8.567532396297246,-5.490854733355276,-9.738344693820553,41.974000000045635
312284.9587,-12.531974171623608,-7.961455799427368,-5.007919134965168,-8.352907333496205,41.975000000034925
312284.9597,-11.638825570601234,-7.04801855091138,-4.160898764318158,-6.6420565984638165,41.976000000024214
312284.9607,-10.361599651033483,-5.884918099222779,-2.986196422644671,-4.678990046300271,41.977000000013504
312284.9617,-8.769881697840582,-4.547485944680114,-1.5418246365079455,-2.554866004969413,41.978000000002794
312284.9627,-6.94963246962667,-3.122041369458945,0.0982771451341771,-0.3715394371155429,41.978999999992084
312284.9637,-4.995517064920099,-1.6983183897113212,1.8511128544930042,1.7666785841128037,41.98000000003958
312284.9647,-3.002766657740042,-0.36167059615614755,3.6320147932505713,3.7614820449843807,41.98100000002887
312284.9657,-1.059333785555393,0.8142236276292827,5.361834093860804,5.528473501553085,41.98200000001816
312284.9667,0.7609379169746366,1.77348398508776,6.97326004646495,7.003783388114082,41.98300000000745
312284.9677,2.4035168923076995,2.482422396702272,8.41568954529993,8.14879975294342,41.98399999999674
312284.9687,3.836312937737369,2.9318187080513183,9.658220925493636,8.95258198857439,41.98500000004424
312284.9697,5.0504928261549145,3.136891733556018,10.69053918986284,9.431751590649869,41.98600000003353
312284.9707,6.0589704444967944,3.134999382135998,11.521672815454897,9.627891816769738,41.98700000002282
312284.9717,6.892786204475936,2.981316930918687,12.176814830453596,9.602723303694749,41.98800000001211
312284.9727,7.595793696331084,2.7429324652091314,12.692591699686155,9.431531592477157,41.9890000000014
312284.9737,8.21823177989942,2.4919449201130686,13.111314036408672,9.195485038107147,41.98999999999069
312284.9747,8.80986219539657,2.298239159695607,13.474838638565723,8.973582199964094,41.991000000038184
312284.9757,9.413386754452832,2.2226358489520033,13.818702710104656,8.834997009442159,41.992000000027474
312284.9767,10.058821349541091,2.3110696482087425,14.167155644271427,8.832545225689561,41.993000000016764
312284.9777,10.759400449431878,2.5903421843791943,14.52961532614868,8.997881536702176,41.994000000006054
312284.9787,11.5094260050321,3.065837104868511,14.898924694732973,9.33886447707253,41.99499999999534
312284.9797,12.284274814777119,3.721389085850136,15.251595635143078,9.839313051481682,41.99600000004284
312284.9807,13.042558308960436,4.5212861938241495,15.550020165826705,10.461145447659689,41.99700000003213
312284.9817,13.730210237452008,5.414176307649568,15.74642414108934,11.148659261074288,41.99800000002142
312284.9827,14.286082480169771,6.338463756660605,15.788156821374704,11.834506673519726,41.99900000001071
312284.9837,14.648476386281942,7.228639833171358,15.62376887704333,12.44675695061535,42.0
312284.9847,14.761941691499127,8.021904122680937,15.209245783051966,12.916337918619346,42.00099999998929
312284.9857,14.583646466651043,8.664410875372292,14.51374173393209,13.184117269579456,42.00200000003679
312284.9867,14.088662414766713,9.116517828304747,13.524203424401351,13.206926284690336,42.00300000002608
312284.9877,13.273616001333888,9.356519416577964,12.248379008971684,12.961938416097363,42.00400000001537
312284.9887,12.158316781844809,9.382501612169216,10.71586485600042,12.448982037797613,42.00500000000466
312284.9897,10.785173910111999,9.212146171842937,8.977035835535416,11.690573934821265,42.005999999993946
312284.9907,9.216430399760101,8.88051890898041,7.099914751694984,10.729687216682652,42.007000000041444
312284.9917,7.529460654857841,8.436079223260519,5.165242393385567,9.625491910990133,42.008000000030734
312284.9927,5.81056875689671,7.935326486150264,3.260191138539084,8.447506437269633,42.00900000002002
312284.9937,4.147874055845829,7.4366353818626525,1.471304082436066,7.268753891476147,42.01000000000931
312284.9947,2.623962074723033,6.993913495504965,-0.12267561234949007,6.158613406129762,42.0109999999986
312284.9957,1.309003602310683,6.650732350153698,-1.4574024027457464,5.176084491308847,42.0120000000461
312284.9967,0.2550006875707866,6.435536000005331,-2.4883190260336985,4.364138691108966,42.01300000003539
312284.9977,-0.5082905697168325,6.358423875092013,-3.1943169736568886,3.745722603458663,42.01400000002468
312284.9987,-0.9753732868107118,6.4098474730933,-3.5793061334799496,3.3218103567052806,42.01500000001397
312284.9997,-1.1647726341366016,6.56136922512556,-3.6715314032854174,3.0716985163533077,42.01600000000326
312285.0007,-1.1165805707539922,6.76842530766376,-3.520689222560901,2.9555124340029186,42.01699999999255
312285.0017,-0.8880302869402021,6.9748327227730815,-3.1931079024849325,2.9186723912397463,42.01800000004005
312285.0027,-0.5475391271563266,7.11860452266413,-2.765441812269794,2.8978723192147418,42.01900000002934
312285.0037,-0.1678064775077056,7.138503069704443,-2.317472731571544,2.827972678924091,42.02000000001863
312285.0047,0.18135692286373348,6.98068300549298,-1.9246979791165488,2.6491171702653147,42.021000000007916
312285.0057,0.4397683459851928,6.604761003463911,-1.6514057742160864,2.313359357705161,42.021999999997206
312285.0067,0.562526562884244,5.988700023670825,-1.5448915363580702,1.790132385881624,42.0230000000447
312285.0077,0.5240345334078536,5.13200691097345,-1.631358911405278,1.0700080851689,42.02400000003399
312285.0087,0.3200094615886802,4.056903083259965,-1.9138868181793947,0.1663598134400809,42.02500000002328
312285.0097,-0.03270116307533019,2.807323156226053,-2.3726444545848944,-0.8852501804921636,42.02600000001257
312285.0107,-0.4984608509315227,1.4458066801447198,-2.9673193125539377,-2.029913563384668,42.02700000000186
312285.0117,-1.027091859305118,0.04855322616377053,-3.6415098786044524,-3.1981830787383894,42.02799999999115
312285.0127,-1.5595893778893002,-1.3009091727937743,-4.328645572839455,-4.312383477425506,42.02900000003865
312285.0137,-2.0347166700919823,-2.518855352164707,-4.958849992456673,-5.293815809105819,42.03000000002794
312285.0147,-2.39580832648031,-3.528626728135271,-5.46607392723191,-6.0701545987454235,42.03100000001723
312285.0157,-2.597088215301398,-4.267343831787876,-5.794800623098547,-6.5823160743536775,42.03200000000652
312285.0167,-2.6088570615048585,-4.691434003887988,-5.905669716755854,-6.790125172918111,42.03299999999581
312285.0177,-2.4210171912186054,-4.7804518474554305,-5.779473857414126,-6.676224775584521,42.03400000004331
312285.0187,-2.044567843929827,-4.5388319472131995,-5.419142767996599,-6.247841247845536,42.035000000032596
312285.0197,-1.510907306761281,-3.9954102669688436,-4.849527679979613,-5.536229214922229,42.036000000021886
312285.0207,-0.8689980036594557,-3.200763427745077,-4.115015337716225,-4.593845137460217,42.037000000011176
312285.0217,-0.1806658797747202,-2.2226230762003807,-3.2752139612219335,-3.4895214433355646,42.038000000000466
312285.0227,0.48550535009968027,-1.1398055456009621,-2.3991428135339112,-2.302108896635808,42.038999999989755
312285.0237,1.0610800951043742,-0.03523718854308583,-1.558503793294503,-1.1132052695840031,42.04000000003725
312285.0247,1.4847867927631704,1.0112605054847867,-0.8207033570463586,0.0003216065541101052,42.04100000002654
312285.0257,1.7089365499483335,1.9297427158189338,-0.24231721627026453,0.973287630232034,42.04200000001583
312285.0267,1.7045901485264057,2.6658339000516134,0.1363537689512905,1.7579450189878636,42.04300000000512
312285.0277,1.4649371625973928,3.184813910358134,0.2950960040281531,2.32797298557435,42.04399999999441
312285.0287,1.0065230057938253,3.4737300543210234,0.2355846793875051,2.680318291701567,42.04500000004191
312285.0297,0.36816913409453955,3.541362460610834,-0.019005936339324365,2.834708323203875,42.0460000000312
312285.0307,-0.3923419905373087,3.416081057942546,-0.42654681717711723,2.8308879181680138,42.04700000002049
312285.0317,-1.2035243440605556,3.1418387302579056,-0.9304027951401536,2.7238551244537663,42.04800000000978
312285.0327,-1.9869010168098544,2.772726534523732,-1.4653457080767671,2.577568416324537,42.04899999999907
312285.0337,-2.6645366905047236,2.3666554929433645,-1.9643458216634853,2.4577492935718586,42.050000000046566
312285.0347,-3.166667101877844,1.9788118482208714,-2.365566212925508,2.4244947328263877,42.051000000035856
312285.0357,-3.4386850831295925,1.6555507952683453,-2.618862071919778,2.5254347127546732,42.052000000025146
312285.0367,-3.4467971002140576,1.4293459036762899,-2.691132857130953,2.7901188647814705,42.053000000014435
312285.0377,-3.1817856037030032,1.31530254450861,-2.569985575740694,3.2261981107378297,42.054000000003725
312285.0387,-2.660489545529108,1.3095844720789662,-2.2653314776677,3.817793392396827,42.054999999993015
312285.0397,-1.9248312171019237,1.3899090751598124,-1.808740194362403,4.5262311630157495,42.05600000004051
312285.0407,-1.0384514137008383,1.5180578858974416,-1.250595136621464,5.293094870220093,42.0570000000298
312285.0417,-0.08124428143273241,1.6441454075636432,-0.6553103063302144,6.045315651489639,42.05800000001909
312285.0427,0.8577141278829404,1.712211351631206,-0.0950603934921772,6.701825902463434,42.05900000000838
312285.0437,1.688193245531047,1.66656660098152,0.3573756820618857,7.181145705619122,42.05999999999767
312285.0447,2.3270462181720037,1.4582450242966738,0.6359673485789596,7.40917929388145,42.06100000004517
312285.0457,2.7058900001588873,1.0508994657633524,0.6882673108424925,7.326475811176785,42.06200000003446
312285.0467,2.777507765118484,0.4255322844432801,0.48106107091794037,6.894257849100177,42.06300000002375
312285.0477,2.5203722338920675,-0.41643631746319343,0.004274270615883989,6.098637787722757,42.06400000001304
312285.0487,1.940864074768043,-1.4520963010212542,-0.7272536610793541,4.952614495079387,42.06500000000233
312285.0497,1.0729756856731578,-2.6381098112556636,-1.6743175602008242,3.495654645939063,42.06599999999162
312285.0507,-0.024473327585669155,-3.9138339620877485,-2.7761822530097944,1.790893208368796,42.067000000039116
312285.0517,-1.272849454693125,-5.20622649692429,-3.955452917903828,-0.07978586492208425,42.068000000028405
312285.0527,-2.580479780917049,-6.436078277145907,-5.124532295433641,-2.0223269890906193,42.069000000017695
312285.0537,-3.850557065102258,-7.524982482415997,-6.193065320567367,-3.9381210704310905,42.070000000006985
312285.0547,-4.989442261778543,-8.402373727868468,-7.075677869433334,-5.731951763115896,42.070999999996275
312285.0557,-5.914598960545516,-9.011958687183522,-7.699289186209985,-7.3195310677081915,42.07200000004377
312285.0567,-6.56143474273879,-9.316914546298454,-8.00931967552488,-8.633930798384306,42.07300000003306
312285.0577,-6.888433643382596,-9.30334747412222,-7.974222863642701,-9.630328504125265,42.07400000002235
312285.0587,-6.8801308776981855,-8.981669054534407,-7.587931891004596,-10.288653978601067,42.07500000001164
312285.0597,-6.5476893311410755,-8.385748147225948,-6.870011079900668,-10.613928892478594,42.07600000000093
312285.0607,-5.9270666873247695,-7.569909485724025,-5.863522400285634,-10.634316946602722,42.07699999999022
312285.0617,-5.074990223795975,-6.6040576240056925,-4.6308337211102355,-10.397123163919977,42.07800000003772
312285.0627,-4.063161237747944,-5.567385391636216,-3.2477895663992635,-9.963176852917355,42.07900000002701
312285.0637,-2.9712731602946687,-4.541262213060718,-1.7968170204302298,-9.400184305344267,42.0800000000163
312285.0647,-1.8795313543740544,-3.6019762292828896,-0.3596349258690563,-8.775729799941058,42.08100000000559
312285.0657,-0.8613987988019777,-2.8140174983344286,0.9897353714146002,-8.15062820123614,42.08199999999488
312285.0667,0.022742574820994264,-2.224536379258863,2.190997313922879,-7.5732873028387955,42.083000000042375
312285.0677,0.730426218891678,-1.8594967365987198,3.2020857531524705,-7.07562788663288,42.084000000031665
312285.0687,1.2399995997472857,-1.7218790126514039,4.001749492934481,-6.670945459189695,42.085000000020955
312285.0697,1.5513533598570846,-1.7920895394623222,4.589999779268802,-6.353896259436949,42.086000000010245
312285.0707,1.6844654882341863,-2.030519032633297,4.986427203363114,-6.102571520501398,42.086999999999534
312285.0717,1.675962228260951,-2.3819857663333344,5.22660004695515,-5.882409885371468,42.087999999988824
312285.0727,1.5740923493358778,-2.781617609774521,5.356945153040951,-5.651509613916102,42.08900000003632
312285.0737,1.4326648945903235,-3.1615894873172357,5.428659598472228,-5.366758507033997,42.09000000002561
312285.0747,1.3045977068247316,-3.458052223453594,5.4912934825701525,-4.99011464413731,42.0910000000149
312285.0757,1.235755655020129,-3.6175729173040465,5.586672172998873,-4.494353613199653,42.09200000000419
312285.0767,1.2597207591599944,-3.602457427340439,5.743787802434471,-3.8676497972411474,42.09299999999348
312285.0777,1.3940353163966832,-3.3944372654913346,5.975188651634393,-3.116475520151809,42.09400000004098
312285.0787,1.638303983578556,-2.9963652744321267,6.275241383585212,-2.2664711341930057,42.09500000003027
312285.0797,1.9743472026861597,-2.4317610700140913,6.62045014822073,-1.3611448604103558,42.09600000001956
312285.0807,2.3683857722562633,-1.7422591871769435,6.971807248046209,-0.4584831100861221,42.09700000000885
312285.0817,2.775026036380912,-0.9832194857714094,7.2789430388117875,0.37423184195555115,42.09799999999814
312285.0827,3.1426281187563943,-0.21794047415443954,7.48565851792045,1.0669111119928665,42.099000000045635
312285.0837,3.419494604499076,0.48894591313762464,7.536280889852351,1.5538270787611095,42.100000000034925
312285.0847,3.5602286469033975,1.0782383984693586,7.382194546924748,1.7807497659172145,42.101000000024214
312285.0857,3.5315876333382428,1.5024131839726638,6.987876207519198,1.7113292933338884,42.102000000013504
312285.0867,3.3172037734524453,1.7307273421520588,6.335805964838043,1.3320609751208479,42.103000000002794
312285.0877,2.920652008749155,1.7526641205324514,5.429731714349307,0.6552949282801478,42.103999999992084
312285.0887,2.3665078704415383,1.5793677503974342,4.295922664598493,-0.28006801921634195,42.10500000003958
312285.0897,1.699237399736825,1.2429124953988258,2.98224301350499,-1.4103348344876616,42.10600000002887
312285.0907,0.9799783017966275,0.7934634609358264,1.5550903071560924,-2.651139712380887,42.10700000001816
312285.0917,0.2814846221485023,0.29459428951702743,0.09445356710771584,-3.90360269694847,42.10800000000745
312285.0927,-0.3183047939541476,-0.18279104787139958,-1.3124667380039448,-5.062005689783848,42.10899999999674
312285.0937,-0.7434697761869749,-0.5673464503768063,-2.5784898573220048,-6.022311804788863,42.11000000004424
312285.0947,-0.9273944140203803,-0.7943142671875595,-3.6238615421598888,-6.6907647282026534,42.11100000003353
312285.0957,-0.819426680504532,-0.8120140195630392,-4.383137785232942,-6.991787464787649,42.11200000002282
312285.0967,-0.3902552720896236,-0.5871551476306678,-4.810891571006875,-6.874456738901238,42.11300000001211
312285.0977,0.36453705657393204,-0.10845169351224786,-4.885697152047144,-6.316955334180093,42.1140000000014
312285.0987,1.4231144763831114,0.6118201341024523,-4.61200817145085,-5.32858804028861,42.11499999999069
312285.0997,2.738386866177279,1.5384824191851836,-4.019745459516803,-3.9491702752105518,42.116000000038184
312285.1007,4.241305225442421,2.616280975900769,-3.161628174283716,-2.2458405883301134,42.117000000027474
312285.1017,5.8461724565458315,3.7746138145980077,-2.108496932084383,-0.3075859813653877,42.118000000016764
312285.1027,7.457494203842236,4.933717167451481,-0.9430687387657022,1.7620204461048667,42.119000000006054
312285.1037,8.977745413364422,6.011723313889243,0.24728775293669594,3.8532067711260485,42.11999999999534
312285.1047,10.31533890596412,6.931920988883683,1.3780763649687535,5.85875135694036,42.12100000004284
312285.1057,11.392061361574225,7.629530581211305,2.374790704018282,7.682302821408696,42.12200000003213
312285.1067,12.149291844422414,8.057354345026356,3.178960931489936,9.245526950184829,42.12300000002142
312285.1077,12.55243362342201,8.189771674778596,3.7525728796112623,10.493453926688614,42.12400000001071
312285.1087,12.593160395430036,8.024710332894468,4.080462689339495,11.397575253219731,42.125
312285.1097,12.289286598096616,7.58342062093501,4.170488388234504,11.956457296906915,42.12599999998929
312285.1107,11.682298069781142,6.9080916886806785,4.051496601271507,12.19387637731402,42.12700000003679
312285.1117,10.832801887093241,6.057556788475957,3.769316680780881,12.154715674331204,42.12800000002608
312285.1127,9.814351187950816,5.10151709937897,3.3812050265503752,11.899074264322923,42.12900000001537
312285.1137,8.706253072095077,4.11385402338517,2.949310654601212,11.495203121678571,42.13000000000466
312285.1147,7.586060530257956,3.1656840415770042,2.5338247320204657,11.011986285036535,42.130999999993946
