TimeStamp,ECR,FCR,ECU,FCU,time_index
312313.9837,-9.411209927719794,21.01834167393865,-1.8785851847190282,-32.52684410724827,71.0
312313.9847,-15.424157862958236,14.62260372519407,-6.327392994998694,-38.85591982146841,71.00099999998929
312313.9857,-21.34111682334849,7.831007342503923,-10.865281673941267,-45.02905783657221,71.00200000003679
312313.9867,-26.940944567402095,0.8396593561952057,-15.321125169287331,-50.79600585774813,71.00300000002608
312313.9877,-32.016585219437935,-6.155628818598989,-19.530289739262233,-55.917891828303055,71.00400000001537
312313.9887,-36.38593181529359,-12.968971837527715,-23.343667912927312,-60.179302445327764,71.00500000000466
312313.9897,-39.900742957624686,-19.432629459403262,-26.635142122839163,-63.39857600179622,71.00599999999395
312313.9907,-42.453025456365346,-25.4032895110054,-29.30695686582854,-65.43565250295588,71.00700000004144
312313.9917,-43.97852047267428,-30.76608779991771,-31.292681915816104,-66.19704370473825,71.00800000003073
312313.9927,-44.457182449478836,-35.436257893384195,-32.55767679503724,-65.63773633329274,71.00900000002002
312313.9937,-43.91079445592865,-39.358524478212885,-33.09719633395283,-63.760099759835406,71.01000000000931
312313.9947,-42.398097006955936,-42.504554418978465,-32.93248670691586,-60.610110996170064,71.0109999999986
312313.9957,-40.0079987522861,-44.868940683986246,-32.10539101479965,-56.27141316910627,71.0120000000461
312313.9967,-36.85156978538493,-46.464301226038806,-30.672097610155244,-50.85787077982728,71.01300000003539
312313.9977,-33.053580727914984,-47.316118490962225,-28.696712861896167,-44.50536391344837,71.01400000002468
312313.9987,-28.744339134531486,-47.457922730765794,-26.245319444477317,-37.36356880822442,71.01500000001397
312313.9997,-24.0524923088747,-46.92733763400346,-23.381094891971916,-29.588405757903693,71.01600000000326
312314.0007,-19.0993223517134,-45.76337008635249,-20.160922952212957,-21.335706130003285,71.01699999999255
312314.0017,-13.994871003039602,-44.00515242936258,-16.633747550465102,-12.756473294600537,71.01800000004005
312314.0027,-8.836018594452677,-41.69215426734465,-12.84071517112507,-3.9939069092892954,71.01900000002934
312314.0037,-3.7064253465899037,-38.865692208656014,-8.816947391437918,4.8178517794231865,71.02000000001863
312314.0047,1.3219536058827352,-35.5714000102322,-4.59460217287623,13.553491999420883,71.02100000000792
312314.0057,6.186225932501918,-31.86219603819024,-0.2067390575336393,22.095221370035382,71.0219999999972
312314.0067,10.829342388141171,-27.801213112163083,4.308585819705698,30.33087617277196,71.0230000000447
312314.0077,15.196888608030314,-23.46414539538101,8.904595077973765,38.15200586935099,71.024000000034
312314.0087,19.234449295664966,-18.940519349393664,13.522996476616143,45.452462696297616,71.02500000002328
312314.0097,22.886014399514462,-14.333505674070288,18.092580238282906,52.12794283021797,71.02600000001257
312314.0107,26.09375289343695,-9.758045370282675,22.529515687122682,58.076787856987444,71.02700000000186
312314.0117,28.799299016992197,-5.337249490483783,26.739469049400334,63.202179542234674,71.02799999999115
312314.0127,30.94649796744094,-1.1972294348674644,30.62146201427321,67.41566662494645,71.02900000003865
312314.0137,32.48536446311639,2.539297821174781,34.07319358907515,70.64177093643517,71.03000000002794
312314.0147,33.37683925152709,5.76012724151574,36.99737631392997,72.82325272191224,71.03100000001723
312314.0157,33.59780384983172,8.370792311895542,39.308509884803485,73.92649030849233,71.03200000000652
312314.0167,33.14574645160325,10.301234727894153,40.939444196433385,73.94636154702538,71.03299999999581
312314.0177,32.04247000872205,11.51126463948737,41.84707759516113,72.9100122280813,71.0340000000433
312314.0187,30.336298302555925,11.994238147668044,42.01659609645712,70.87896166820134,71.0350000000326
312314.0197,28.10236181057729,11.778517378562313,41.463780233699694,67.94912267207404,71.03600000002189
312314.0207,25.440720495544333,10.926464054090909,40.23507672632748,64.24849044402139,71.03700000001118
312314.0217,22.472288282269265,9.53093282047771,38.40533596181146,59.93246579041863,71.03800000000047
312314.0227,19.33274344820552,7.709455337118758,36.07333366315414,55.177001540683165,71.03899999998976
312314.0237,16.164818485067652,5.596518755051147,33.355404889770305,50.16997535262455,71.04000000003725
312314.0247,13.109540948214768,3.3345221409171364,30.377700137812475,45.10137541420123,71.04100000002654
312314.0257,10.297124979805684,1.064123980197801,27.2677088387781,40.15301923431511,71.04200000001583
312314.0267,7.838277815901284,-1.085239858251475,24.145771463188293,35.488595607705946,71.04300000000512
312314.0277,5.816678967957669,-3.003892424310383,21.11730990053984,31.244817900160246,71.04399999999441
312314.0287,4.2833110688274525,-4.608805815538782,18.26644548669453,27.524401901072345,71.04500000004191
312314.0297,3.253176757751879,-5.84828387678545,15.65155030891072,24.391439574958014,71.0460000000312
312314.0307,2.704738073627672,-6.704067223207345,13.303101707076085,21.869543596193754,71.04700000002049
312314.0317,2.582181545127127,-7.190715667020627,11.223998730707498,19.9429044232587,71.04800000000978
312314.0327,2.8003650214920204,-7.352361944809118,9.392272697756255,18.56015337758796,71.04899999999907
312314.0337,3.2520643402504805,-7.257160775970336,7.7659034745968745,17.640684858571852,71.05000000004657
312314.0347,3.8169315811773843,-6.989957334831924,6.289259673618427,17.082880948767098,71.05100000003586
312314.0357,4.371421500350838,-6.6438506072696,4.900533111948141,16.773521946170757,71.05200000002515
312314.0367,4.798853658518478,-6.311415840014251,3.5394497245082674,16.59757180571933,71.05300000001444
312314.0377,4.998763483327765,-6.0763683227076655,2.154519106808472,16.44750692357055,71.05400000000373
312314.0387,4.894757747212919,-6.006396716315927,0.7091348839731153,16.231411976592305,71.05499999999302
312314.0397,4.440223206627653,-6.147773530198697,-0.814046647980628,15.879192250197907,71.05600000004051
312314.0407,3.6214292338534246,-6.522174921328198,-2.410852757567389,15.346435970412506,71.0570000000298
312314.0417,2.4577984225756726,-7.125928666130899,-4.055661254393653,14.615684988132953,71.05800000001909
312314.0427,0.9993717311462794,-7.931678384197029,-5.703758823486817,13.695116296540132,71.05900000000838
312314.0437,-0.6782567071698076,-8.892225872587712,-7.295739762894686,12.614877080465341,71.05999999999767
312314.0447,-2.4810384670808756,-9.946113176036185,-8.76349755381075,11.421529553351835,71.06100000004517
312314.0457,-4.304932745034872,-11.024350589455416,-10.037208894425113,10.171228647945211,71.06200000003446
312314.0467,-6.044949996106181,-12.057600564748363,-11.052615475010898,8.922360196189164,71.06300000002375
312314.0477,-7.6039585579847655,-12.98309908870849,-11.757881837177584,7.728400140298577,71.06400000001304
312314.0487,-8.900474185428255,-13.750637537131507,-12.119350599643626,6.631714103469661,71.06500000000233
312314.0497,-9.874762814428811,-14.327034560135408,-12.12562484412957,5.658906036695638,71.06599999999162
312314.0507,-10.492757877673593,-14.698688215148692,-11.789570897061274,4.818156064560408,71.06700000003912
312314.0517,-10.747508286050934,-14.871997163519152,-11.148037169996423,4.098778056782298,71.0680000000284
312314.0527,-10.658110911999271,-14.871656530370487,-10.259306433825262,3.472997723177158,71.0690000000177
312314.0537,-10.266319172831304,-14.737047597898949,-9.19851836000596,2.899724880561477,71.07000000000698
312314.0547,-9.631234418531955,-14.517129910607245,-8.051495084034677,2.329891305428592,71.07099999999627
312314.0557,-8.822658958169244,-14.264391158449694,-6.9075559761809355,1.7127680423585516,71.07200000004377
312314.0567,-7.913802716817068,-14.028500196670937,-5.852003955590461,1.0025784786909033,71.07300000003306
312314.0577,-6.97407955322059,-13.850333241048933,-4.9589953739218915,0.16469525026767068,71.07400000002235
312314.0587,-6.062700835156261,-13.757000595826247,-4.285466033267129,-0.8192474184500996,71.07500000001164
312314.0597,-5.223676690389273,-13.758395828442,-3.8666813443419374,-1.9478836227282863,71.07600000000093
312314.0607,-4.482679822047514,-13.845631873993698,-3.713819367348932,-3.1986789426306834,71.07699999999022
312314.0617,-3.8460289067698152,-13.99153500223574,-3.8137972152440685,-4.528711938270645,71.07800000003772
312314.0627,-3.3018284031825975,-14.153157298475426,-4.131333512858927,-5.877634384672321,71.07900000002701
312314.0637,-2.8230811345795717,-14.276062283882462,-4.613023630247195,-7.172549596685055,71.0800000000163
312314.0647,-2.3723911710884,-14.299957043999683,-5.193011348575237,-8.33435267808281,71.08100000000559
312314.0657,-1.9077169191242056,-14.165105764281957,-5.799689279096249,-9.28492593971375,71.08199999999488
312314.0667,-1.388533305330703,-13.818877636420934,-6.362765411822454,-9.95449199818907,71.08300000004238
312314.0677,-0.7817271772199446,-13.221764826667975,-6.8200037237355495,-10.288405200392091,71.08400000003166
312314.0687,-0.06658454548376212,-12.352255298544973,-7.122985475655493,-10.252711234491398,71.08500000002095
312314.0697,0.7616718430811343,-11.210055888964753,-7.241340614076393,-9.837920291742432,71.08600000001024
312314.0707,1.6901813021153178,-9.817322186871577,-7.1650552100872815,-9.060609611216915,71.08699999999953
312314.0717,2.688773182713736,-8.21774748807401,-6.904655476699485,-7.962679935683882,71.08799999998882
312314.0727,3.712303607763835,-6.473574003925565,-6.489282241826598,-6.608316832662104,71.08900000003632
312314.0737,4.704769587144357,-4.660794683279058,-5.962880631231259,-5.0789297478274955,71.09000000002561
312314.0747,5.604781826806213,-2.8629931272790534,-5.3789172222917045,-3.4665372617227233,71.0910000000149
312314.0757,6.3518328455559985,-1.1644043715952495,-4.794182494639309,-1.866217108800722,71.09200000000419
312314.0767,6.892709609705549,0.35714264752826796,-4.262325634559907,-0.36832936387520965,71.09299999999348
312314.0777,7.187378722821079,1.6367271009125244,-3.827792856146402,0.9487579934611721,71.09400000004098
312314.0787,7.213719558832412,2.627662221977292,-3.520797066741959,2.02476216778146,71.09500000003027
312314.0797,6.970592020961945,3.30513910401357,-3.353840314020917,2.8218346312130693,71.09600000001956
312314.0807,6.47888984364191,3.667846467590629,-3.3201516630641295,3.3267744476502563,71.09700000000885
312314.0817,5.7804311968180935,3.7374223577927164,-3.39420783287966,3.550922752721015,71.09799999999814
312314.0827,4.934755760981432,3.5558056165731533,-3.534291581504001,3.5277812039845298,71.09900000004563
312314.0837,4.014109660515881,3.1807599826852946,-3.6868346809007466,3.3086181373709205,71.10000000003492
312314.0847,3.0970853645620577,2.680021547709823,-3.7921091829585496,2.9565204104419376,71.10100000002421
312314.0857,2.2615241503576935,2.1246534705385236,-3.790690899010078,2.539497426663585,71.1020000000135
312314.0867,1.577369673709521,1.5822671699914244,-3.6300366667516575,2.123332081614028,71.1030000000028
312314.0877,1.1001741730082613,1.110779236618815,-3.270500447598682,1.7648927613861494,71.10399999999208
312314.0887,0.8659021344214715,0.7533170392866863,-2.690164452275391,1.506569252047191,71.10500000003958
312314.0897,0.8875550605082748,0.5347690052457551,-1.8879754869022498,1.3723786447810014,71.10600000002887
312314.0907,1.1539669177966967,0.4603093787151374,-0.8848424541675448,1.3661166532421198,71.10700000001816
312314.0917,1.6309097786411355,0.5160283294323036,0.2774478192575004,1.4717221141767018,71.10800000000745
312314.0927,2.2644236376652036,0.6715862533579461,1.5394223484545888,1.6557983793222872,71.10899999999674
312314.0937,2.9860655112011094,0.884606960855135,2.828936127946695,1.8720170080950553,71.11000000004424
312314.0947,3.719582302136865,1.1063484127372287,4.0675390006338015,2.0669382614912446,71.11100000003353
312314.0957,4.388368436609005,1.2880592333548266,5.177586316155951,2.186638321031263,71.11200000002282
312314.0967,4.92298731391034,1.3873574345848338,6.089404278000887,2.183449311666233,71.11300000001211
312314.0977,5.268023551367929,1.3739619116874286,6.747808119357987,2.0221035318772325,71.1140000000014
312314.0987,5.387592437945377,1.2341681371689797,7.117327548061864,1.684629428186177,71.11499999999069
312314.0997,5.268958533598087,0.9735813337801795,7.185614138183633,1.1734684669026048,71.11600000003818
312314.1007,4.92389508338409,0.6177914890215425,6.964678093077726,0.5124573661619042,71.11700000002747
312314.1017,4.387632629943325,0.2108782398038063,6.489810429302258,-0.2544679480506214,71.11800000001676
312314.1027,3.715477999275923,-0.18814999472851712,5.816270906069731,-1.0667625650496275,71.11900000000605
312314.1037,2.9774111445661267,-0.5106704447792436,5.014040098942926,-1.8526517165468421,71.11999999999534
312314.1047,2.2511651454340735,-0.6850229989430944,4.161124546813237,-2.5359007368291198,71.12100000004284
312314.1057,1.614444650755448,-0.6437267243611087,3.336048145542533,-3.0433325009231926,71.12200000003213
312314.1067,1.1370254807345537,-0.3306406795293411,2.61024662087247,-3.3123657595938565,71.12300000002142
312314.1077,0.8734942611439599,0.2926310279412957,2.041096544542596,-3.297835146411988,71.12400000001071
312314.1087,0.857330042973911,1.241726652961598,1.6662542187031981,-2.9774132164887837,71.125
312314.1097,1.0969051532425451,2.506417733232494,1.4998579933252807,-2.3550812695643444,71.12599999998929
312314.1107,1.5738019146656563,4.049738474087045,1.530971755409928,-1.462276933234562,71.12700000003679
312314.1117,2.2436227048941784,5.809478959300709,1.7244342885188504,-0.356565146994498,71.12800000002608
312314.1127,3.0392342157891545,7.701944663376163,2.024049459499691,0.8820858185574454,71.12900000001537
312314.1137,3.8761555559770797,9.62767013484307,2.357827926214801,2.1571131325041595,71.13000000000466
312314.1147,4.659596346712845,11.478589207153592,2.6447939614095035,3.362742926818937,71.13099999999395
312314.1157,5.292494838201881,13.14602568914679,2.802720130413443,4.392286839167791,71.13200000004144
312314.1167,5.683812364456315,14.528790640412895,2.7560625514962056,5.146601155055148,71.13300000003073
312314.1177,5.756318132315363,15.540662610693305,2.4433490219029914,5.54194117911321,71.13400000002002
312314.1187,5.453149433940938,16.116586548102738,1.8233233849038262,5.516500007656857,71.13500000000931
312314.1197,4.74255177586592,16.217049665854507,0.8792671914891483,5.035045508273212,71.1359999999986
312314.1207,3.620379396291278,15.83026645186457,-0.37890741610224643,4.091250000696952,71.1370000000461
312314.1217,2.110151985323213,14.972013274828528,-1.9149883170215292,2.707526374707864,71.13800000003539
312314.1227,0.2606971316677191,13.683175422133939,-3.6691828080573474,0.9324209133668186,71.13900000002468
312314.1237,-1.8583626384618144,12.025284294350131,-5.562965674104074,-1.1641560352483478,71.14000000001397
312314.1247,-4.162816635337974,10.074509043429934,-7.50559612482683,-3.497377575010165,71.14100000000326
312314.1257,-6.5611484738579025,7.914707148561626,-9.4016889077639,-5.97498690144947,71.14199999999255
312314.1267,-8.962180830315866,5.630218811175991,-11.159129567797539,-8.505091618131404,71.14300000004005
312314.1277,-11.282344045990047,3.2991030309248286,-12.696596937533917,-11.003513513286116,71.14400000002934
312314.1287,-13.451877475482206,0.9874578200231443,-13.949999766747117,-13.399994317284333,71.14500000001863
312314.1297,-15.41938723523945,-1.2546510548226262,-14.877244327863298,-15.642678925742088,71.14600000000792
312314.1307,-17.154354635811885,-3.3952972932599463,-15.460914876276918,-17.700474817269885,71.1469999999972
312314.1317,-18.64739908219793,-5.420684608990285,-15.708652708783914,-19.5631024657965,71.1480000000447
312314.1327,-19.908326820660847,-7.333084705509095,-15.651242265666822,-21.238885183942525,71.149000000034
312314.1337,-20.96222007464436,-9.14699591225128,-15.338632541505785,-22.75055503889686,71.15000000002328
312314.1347,-21.844017787804436,-10.88397653622266,-14.834317673085806,-24.12955176595769,71.15100000001257
312314.1357,-22.59218994537311,-12.566741592606794,-14.208653091461185,-25.409444182953873,71.15200000000186
312314.1367,-23.24219737358634,-14.213186619127134,-13.53177848729829,-26.619193340364482,71.15299999999115
312314.1377,-23.820449111695435,-15.831010264674177,-12.866847174426802,-27.776994519687925,71.15400000003865
312314.1387,-24.339417873948054,-17.413547387311315,-12.264220923894129,-28.885379237969072,71.15500000002794
312314.1397,-24.79445580901458,-18.937302311250694,-11.757184408216979,-29.92813389251493,71.15600000001723
312314.1407,-25.16267935313831,-20.361499623897625,-11.35957476560758,-30.869410598902142,71.15700000000652
312314.1417,-25.404080554645116,-21.629764365631576,-11.065525413510473,-31.65518574640362,71.15799999999581
312314.1427,-25.464793711539464,-22.673824927783915,-10.85130870285551,-32.21698432174973,71.1590000000433
312314.1437,-25.282223156260933,-23.41892203206212,-10.67905061727666,-32.47755644521708,71.1600000000326
312314.1447,-24.791542724962174,-23.79042666219984,-10.501903413368256,-32.35798966739459,71.16100000002189
312314.1457,-23.932929403052075,-23.721036798921045,-10.270117362187095,-31.78558653455593,71.16200000001118
312314.1467,-22.658807813508265,-23.157850738876995,-9.937364833575508,-30.701747207886452,71.16300000000047
312314.1477,-20.9403675203429,-22.068611213300173,-9.466647464874898,-29.06908076720056,71.16399999998976
312314.1487,-18.772673509069048,-20.44648034730068,-8.835162191711946,-26.87702835165676,71.16500000003725
312314.1497,-16.1778164519156,-18.312834815602262,-8.037609920580348,-24.145411219359378,71.16600000002654
312314.1507,-13.205731542753334,-15.717751217681391,-7.087590785463771,-20.92550498280041,71.16700000001583
312314.1517,-9.932535312597004,-12.738066498661743,-6.016926277117684,-17.298469803157978,71.16800000000512
312314.1527,-6.456467561468901,-9.473126545312308,-4.872961487521633,-13.3712133007358,71.16899999999441
312314.1537,-2.8917572267829432,-6.038555830382864,-3.714109022756787,-9.270004573473928,71.17000000004191
312314.1547,0.6390660154788902,-2.5585708278349757,-2.604078971459182,-5.132370652822609,71.1710000000312
312314.1557,4.013738323496198,0.8424986522992272,-1.605378309717219,-1.0979703200598785,71.17200000002049
312314.1567,7.118940029499986,4.048736961505529,-0.7727441990973375,2.7007614553329224,71.17300000000978
312314.1577,9.858302129519544,6.960466828748788,-0.1471904000025691,6.147381722034887,71.17399999999907
312314.1587,12.159015215338934,9.500680664490616,0.24870738261939102,9.148857420149477,71.17500000004657
312314.1597,13.976442864500752,11.619517354272915,0.41377809963807416,11.640995792269992,71.17600000003586
312314.1607,15.296326909406261,13.296404350629185,0.3691335991826024,13.59143601236426,71.17700000002515
312314.1617,16.134397306839315,14.539702285210742,0.15682275685092611,14.999978532968287,71.17800000001444
312314.1627,16.533442813975956,15.383921861623042,-0.16365397866094472,15.896276474766397,71.17900000000373
312314.1637,16.558136831604312,15.884808095475872,-0.5206707711386668,16.335157298395846,71.17999999999302
312314.1647,16.288122581459522,16.112783385864603,-0.8371573037284956,16.390059534773904,71.18100000004051
312314.1657,15.810022972328687,16.14538959059037,-1.0380070753581758,16.14523777066022,71.1820000000298
312314.1667,15.209137539290586,16.059456044549744,-1.0575045298994772,15.687493409596726,71.18300000001909
312314.1677,14.561612418908519,15.923737144189761,-0.8460497711839242,15.098219277638256,71.18400000000838
312314.1687,13.927817305373898,15.792708373521572,-0.37551722327574155,14.446500468979998,71.18499999999767
312314.1697,13.347540922121697,15.702089056085443,0.35729261602343126,13.783896918779336,71.18600000004517
312314.1707,12.837435773938822,15.66648564493023,1.32947272343083,13.141356960607142,71.18700000003446
312314.1717,12.390921494922118,15.679338166355308,2.4932514784972923,12.52849321298068,71.18800000002375
312314.1727,11.980515568757047,15.715125180146291,3.77957835152592,11.93521416006124,71.18900000001304
312314.1737,11.562323962033132,15.7335614638421,5.10375080727703,11.335470208568301,71.19000000000233
312314.1747,11.082215191183554,15.685329050681956,6.372583412507452,10.692664821161635,71.19099999999162
312314.1757,10.483039742700724,15.518734964456813,7.492470209771226,9.966119843100033,71.19200000003912
312314.1767,9.712158119248524,15.186602133773532,8.377602666085933,9.117884966777059,71.1930000000284
312314.1777,8.72851445636944,14.652681724726746,8.957586661209875,8.119153835313202,71.1940000000177
312314.1787,7.5085409450126654,13.89692697384291,9.183755033389973,6.95559589417115,71.19500000000698
312314.1797,6.050296231545075,12.919085157342176,9.033592184333495,5.63102878337444,71.19599999999627
312314.1807,4.375416807979748,11.740233924852989,8.512862717018791,4.169029061439009,71.19700000004377
312314.1817,2.5286768030366926,10.402094042964857,7.655250229748842,2.6122919945293757,71.19800000003306
312314.1827,0.5751872917085513,8.964172341920495,6.51954467433958,1.019782771577122,71.19900000002235
312314.1837,-1.4045018064863102,7.499004554253532,5.184644827799199,-0.5380512297438931,71.20000000001164
312314.1847,-3.320928596115426,6.0859566386959125,3.7428445801833123,-1.9855371671791762,71.20100000000093
312314.1857,-5.08324697714213,4.804186666082215,2.2920286166217974,-3.24887895374809,71.20199999999022
312314.1867,-6.607029975883165,3.7254534776103028,0.9274998039509469,-4.263389964694884,71.20300000003772
312314.1877,-7.821596862317504,2.9074750299333156,-0.26581182388159846,-4.9801208192246715,71.20400000002701
312314.1887,-8.676159238154947,2.3884871567316512,-1.2200524405950959,-5.371199604731848,71.2050000000163
312314.1897,-9.144196790237336,2.1835376853183033,-1.88946478116712,-5.433322740138291,71.20600000000559
312314.1907,-9.225645951634107,2.282882936575739,-2.2532964850755692,-5.189011724781409,71.20699999999488
312314.1917,-8.946697250702234,2.6526501562232063,-2.3163731487191725,-4.685466939087193,71.20800000004238
312314.1927,-8.35722876008443,3.2377103525521678,-2.1073376924446214,-3.991083288357007,71.20900000003166
312314.1937,-7.526131092848531,3.9664927924849516,-1.6747798242102896,-3.1899209127264814,71.21000000002095
312314.1947,-6.534981571505526,4.757285839956758,-1.0816773544084415,-2.3746250379749307,71.21100000001024
312314.1957,-5.470681862646922,5.525427045139611,-0.39872587414774174,-1.6384426305241881,71.21199999999953
312314.1967,-4.417769390291637,6.190702111917455,0.3027698319035839,-1.0670747904922329,71.21299999998882
312314.1977,-3.451139066466228,6.684255523454651,0.9577392521334765,-0.7311238096055955,71.21400000003632
312314.1987,-2.629866024651864,6.954366606664888,1.5132602951138026,-0.6798405421189052,71.21500000002561
312314.1997,-1.9927068966660157,6.970558434720407,1.9329838768889376,-0.9367563456258934,71.2160000000149
312314.2007,-1.5556881050609825,6.725671853018775,2.199666682132927,-1.4976061449657363,71.21700000000419
312314.2017,-1.3119814729259631,6.235736725635263,2.315605820438665,-2.3307324376752963,71.21799999999348
312314.2027,-1.2340407947326633,5.537687512090244,2.300983442755537,-3.379925361938435,71.21900000004098
312314.2037,-1.2777502416225353,4.685179333102231,2.190340715304089,-4.569424080789833,71.22000000003027
312314.2047,-1.3881385311486356,3.7429432425251217,2.0275878999494363,-5.810601988544966,71.22100000001956
312314.2057,-1.506061021919274,2.7802576192321204,1.8601021559675823,-7.009702224818313,71.22200000000885
312314.2067,-1.5751601538571576,1.8641929651439302,1.7325528374904842,-8.075895701018899,71.22299999999814
312314.2077,-1.5483918525765747,1.0533022127152372,1.6811169720800674,-8.928910259385523,71.22400000004563
312314.2087,-1.393453738633216,0.392376664682308,1.7287032394253998,-9.505528724717742,71.22500000003492
312314.2097,-1.0965652941039878,-0.0912257237794924,1.8816957960231568,-9.764370387184329,71.22600000002421
312314.2107,-0.6642190736790667,-0.3893364146849248,2.1285706081984954,-9.688543175925632,71.2270000000135
312314.2117,-0.12272874204227018,-0.5126704164629847,2.4405425925385003,-9.285965300127202,71.2280000000028
312314.2127,0.4843764185383041,-0.48852310109336766,2.7741913857949454,-8.58738453723482,71.22899999999208
312314.2137,1.1008421420262835,-0.3567380937567881,3.075808129371588,-7.642348024233532,71.23000000003958
312314.2147,1.663604712872462,-0.1643908592440048,3.287025895061931,-6.51357326665867,71.23100000002887
312314.2157,2.1095253083830823,0.04023628434941093,3.351160372036868,-5.270322725093894,71.23200000001816
312314.2167,2.382251760792924,0.21373915573824814,3.2196088953573536,-3.9814749750547676,71.23300000000745
312314.2177,2.438500168733609,0.323080914698255,2.857642821822434,-2.709006321143778,71.23399999999674
312314.2187,2.2531034371125784,0.3498889228297195,2.248982140845261,-1.5025460461977505,71.23500000004424
312314.2197,1.8222940101710605,0.2930826242802999,1.3986568852437493,-0.39555143900019346,71.23600000003353
312314.2207,1.164862000931841,0.16952462545764696,0.33382607954945637,0.5965228237644378,71.23700000002282
312314.2217,0.32104050178227084,0.012588201579223485,-0.8975746878297648,1.4758952699828274,71.23800000001211
312314.2227,-0.6508036627651437,-0.1312521449230247,-2.230271184347296,2.2600278861323164,71.2390000000014
312314.2237,-1.6793754525368985,-0.20749585301467546,-3.586880002481836,2.977375024118167,71.23999999999069
312314.2247,-2.6870632707641033,-0.15987051536864202,-4.884454882355525,3.6617812880841947,71.24100000003818
312314.2257,-3.597321992830335,0.0628503591501765,-6.041739663093957,4.346142936950224,71.24200000002747
312314.2267,-4.342109536196781,0.50015070105038,-6.986440850517628,5.056029903924046,71.24300000001676
312314.2277,-4.86864606222196,1.173883386139068,-7.661822529606687,5.803978015061407,71.24400000000605
312314.2287,-5.144823341925594,2.0838118156474703,-8.031983915190208,6.585101851760706,71.24499999999534
312314.2297,-5.162716338440595,3.205076833029676,-8.08529989891907,7.374553477478295,71.24600000004284
312314.2307,-4.939827755300143,4.487907953663181,-7.835676087674896,8.127172994231826,71.24700000003213
312314.2317,-4.51791196631131,5.859688751182054,-7.3214756202375595,8.779461016467694,71.24800000002142
312314.2327,-3.9594565476573247,7.229264265971484,-6.602195683252941,9.2537717035535,71.24900000001071
312314.2337,-3.34212514602928,8.49316475956358,-5.753185843741675,9.464400621693908,71.25
312314.2347,-2.7516627932752753,9.543235534186449,-4.858887391306698,9.325046430344576,71.25099999998929
312314.2357,-2.2739148843444585,10.275024604923809,-4.005214761976504,8.756978447652369,71.25200000003679
312314.2367,-1.986699308387909,10.596202010111497,-3.2717830782587725,7.697158125186869,71.25300000002608
312314.2377,-1.952289084604726,10.434273978259094,-2.724701853289496,6.105549851489983,71.25400000001537
312314.2387,-2.211208540294561,9.742913075333728,-2.410602398796008,3.9709168910188404,71.25500000000466
312314.2397,-2.777924791936793,8.506346322689488,-2.352450484017825,1.3145261677866045,71.25599999999395
312314.2407,-3.6388397266119425,6.741415591781991,-2.5475274698995976,-1.8086309910128031,71.25700000004144
312314.2417,-4.75277282530926,4.497131965828768,-2.9677586773418483,-5.311273498193245,71.25800000003073
312314.2427,-6.053892677152326,1.8517685557758272,-3.562346791637132,-9.077853253038972,71.25900000002002
312314.2437,-7.456827211129306,-1.0922465554992398,-4.2624518703628755,-12.970865648974517,71.26000000000931
312314.2447,-8.863481312893493,-4.215184356013975,-4.987468731535735,-16.838942106453416,71.2609999999986
312314.2457,-10.170934769421352,-7.388015568057594,-5.652305382444571,-20.526060552432497,71.2620000000461
312314.2467,-11.279698093042505,-10.480867263874732,-6.174976683878697,-23.881113290948015,71.26300000003539
312314.2477,-12.10157753590208,-13.371219526138363,-6.483804005091048,-26.767045923649654,71.26400000002468
312314.2487,-12.566445615616598,-15.951167661434255,-6.523556181356437,-29.068827889389112,71.26500000001397
312314.2497,-12.627324932564791,-18.133178738374312,-6.2599750182917395,-30.699629815315685,71.26600000000326
312314.2507,-12.263359759053712,-19.853925635486704,-5.682289142277714,-31.60475375080531,71.26699999999255
312314.2517,-11.480455313950069,-21.075971837564477,-4.803517343051593,-31.763072698361338,71.26800000004005
312314.2527,-10.30958862718471,-21.78728712855444,-3.6585773336080174,-31.185965193118626,71.26900000002934
312314.2537,-8.80301558321363,-21.998777884452554,-2.3004270726453777,-29.91395687652592,71.27000000001863
312314.2547,-7.028794702219715,-21.740196212007966,-0.7946528881370754,-28.011482416506258,71.27100000000792
312314.2557,-5.064200610728059,-21.054932511687927,0.7869365237799794,-25.560338702713658,71.2719999999972
312314.2567,-2.9886944912180193,-19.99428309228106,2.3730624941662755,-22.652499390726284,71.2730000000447
312314.2577,-0.8771463898490015,-18.61181052627359,3.899403318994665,-19.38299282342574,71.274000000034
312314.2587,1.206036977274271,-16.95837789297929,5.314066282098048,-15.843508022274897,71.27500000002328
312314.2597,3.211330635600838,-15.078343497338896,6.581579645164461,-12.117291540049345,71.27600000001257
312314.2607,5.106666163574021,-13.007260376521431,7.6850351092376625,-8.27574254066035,71.27700000000186
312314.2617,6.877968462613416,-10.771249879526055,8.62620247249461,-4.376920754239745,71.27799999999115
312314.2627,8.527672559113695,-8.388028956684721,9.423645870208464,-0.46597174331878916,71.27900000003865
312314.2637,10.071446783347968,-5.8693860130220505,10.109074350437794,3.4227324035223416,71.28000000002794
312314.2647,11.533531824448774,-3.2247391684497,10.722338347302816,7.262120403901072,71.28100000001723
312314.2657,12.941244897166074,-0.46528997719646714,11.305620063992942,11.028139151123002,71.28200000000652
312314.2667,14.319280656600077,2.3917825568567075,11.89744629423934,14.695264815311742,71.28299999999581
312314.2677,15.684457402318811,5.319651445917483,12.527168783164615,18.232428082596346,71.2840000000433
312314.2687,17.04150693164283,8.279206462097722,13.210508206522357,21.59992414927137,71.2850000000326
312314.2697,18.380394270101544,11.217858538817909,13.946648113975963,24.747766982150175,71.28600000002189
312314.2707,19.67549078528227,14.070036159656215,14.71720567975577,27.615786322027848,71.28700000001118
312314.2717,20.88672733990605,16.759444774228445,15.487212763192566,30.13557140580908,71.28800000000047
312314.2727,21.962643092806392,19.202968202304948,16.20803295198186,32.23415731647768,71.28899999998976
312314.2737,22.84504173482191,21.315907795700948,16.821938799129,33.83914960199525,71.29000000003725
312314.2747,23.474791128770875,23.018099749169362,17.26789866506481,34.884811028271194,71.29100000002654
312314.2757,23.798172565437294,24.24033965871656,17.487992151945654,35.318508999863234,71.29200000001583
312314.2767,23.773115671760248,24.930488184756285,17.43380042686643,35.10685669781038,71.29300000000512
312314.2777,23.37465202837669,25.058638918924032,17.072110435379674,34.240882836484886,71.29399999999441
312314.2787,22.598985693227707,24.620799488690043,16.389331284636786,32.73963492450921,71.29500000004191
312314.2797,21.465706189563313,23.640663489356672,15.394141479084912,30.651753005838664,71.2960000000312
312314.2807,20.017846937306935,22.169222210047526,14.118055660662122,28.05473277123716,71.29700000002049
312314.2817,18.319702333250326,20.282164929628035,12.613802487344213,25.051811298831037,71.29800000000978
312314.2827,16.45253906132138,18.075225417505028,10.951621352709434,21.76663473997786,71.29899999999907
312314.2837,14.5085497104309,15.657829710776541,9.213793463486724,18.33608288345932,71.30000000004657
312314.2847,12.583578169557462,13.145566714189195,7.4879016999806725,14.901809389414279,71.30100000003586
312314.2857,10.769278243817466,10.652122018090838,5.859445767918751,11.601190186875506,71.30200000002515
312314.2867,9.145435916077773,8.281374428675697,4.404511007540653,8.558442428046352,71.30300000001444
312314.2877,7.773184197803048,6.1203476987925045,3.183193313080413,5.876674963440305,71.30400000000373
312314.2887,6.689766980081519,4.233636911512357,2.2344180180694453,3.631557918085431,71.30499999999302
312314.2897,5.905371095715112,2.6597964393906413,1.5726631519579253,1.8671599845777567,71.30600000004051
312314.2907,5.402356705367987,1.4099967725011815,1.1869192075629775,0.5943102954756063,71.3070000000298
312314.2917,5.136993059061723,0.46904784035347885,1.0420055591498731,-0.20838481118592186,71.30800000001909
312314.2927,5.043571024785655,-0.20133317167986164,1.0821384087470558,-0.5909796983546658,71.30900000000838
312314.2937,5.040538240867293,-0.6573399455547141,1.236428478034047,-0.6264219223318698,71.30999999999767
312314.2947,5.038109200623122,-0.9664886280279843,1.4257997243021625,-0.4031180099995898,71.31100000004517
312314.2957,4.946659881128647,-1.2002590356532192,1.5706814454996083,-0.016519382077190347,71.31200000003446
312314.2967,4.685138697757364,-1.426669195143813,1.5987489404875643,0.4395013963981849,71.31300000002375
312314.2977,4.188720386238326,-1.7034869373450208,1.451980130524378,0.880703362069492,71.31400000001304
312314.2987,3.414997660574993,-2.072714611756727,1.0923582171956296,1.239241503924428,71.31500000000233
312314.2997,2.3481408428756754,-2.5568542407735677,0.5056776965789319,1.4685562111000063,71.31599999999162
312314.3007,1.0006452813890279,-3.1572830925530884,-0.29690927093574554,1.5459870705898515,71.31700000003912
312314.3017,-0.5874878329114225,-3.854860973731343,-1.2797542750855164,1.4729328668894235,71.3180000000284
312314.3027,-2.3520512938511997,-4.6126708598359345,-2.3859006477144016,1.2726174751633899,71.3190000000177
312314.3037,-4.210094544339663,-5.380585222460597,-3.542295119611645,0.9857513604350818,71.32000000000698
312314.3047,-6.067030261552279,-6.1011720171907005,-4.666527572224942,0.6645783245763459,71.32099999999627
312314.3057,-7.824714860500218,-6.7163242152914515,-5.674458313465346,0.36594766458694983,71.32200000004377
312314.3067,-9.389746292170445,-7.173927746145321,-6.488008960148185,0.1441385449143777,71.32300000003306
312314.3077,-10.681208558463464,-7.433881560993935,-7.042379342013052,0.04417792217735732,71.32400000002235
312314.3087,-11.637152240847945,-7.472850391157569,-7.292010123766794,0.09633462826880483,71.32500000001164
312314.3097,-12.219228048112596,-7.287259146503741,-7.214733461602544,0.31234622486153424,71.32600000000093
312314.3107,-12.415073360363087,-6.8942152227413755,-6.813730021334724,0.6837545828775253,71.32699999999022
312314.3117,-12.2382720568233,-6.3302538599384475,-6.117122961730722,1.1825087660272253,71.32800000003772
312314.3127,-11.725944029714743,-5.648021569957487,-5.175267391412711,1.7637612626773247,71.32900000002701
312314.3137,-10.934249660243122,-4.911221831319302,-4.056015198605086,2.370558963232647,71.3300000000163
312314.3147,-9.932293858327947,-4.188325018157432,-2.838428538499162,2.939935803241616,71.33100000000559
312314.3157,-8.795064655880129,-3.545673181860282,-1.6055618959502254,3.409769013285192,71.33199999999488
312314.3167,-7.596128219990995,-3.040676900066877,-0.43701834631763004,3.725679904979362,71.33300000004238
312314.3177,-6.400817186418315,-2.7157990607119005,0.5979978062391043,3.847251258619875,71.33400000003166
312314.3187,-5.260591135597311,-2.5939490232915476,1.4464638895646968,3.7528977368793863,71.33500000002095
312314.3197,-4.209122761216895,-2.6757767502322536,2.07560833188452,3.4428571788976874,71.33600000001024
312314.3207,-3.260483342503915,-2.9391730451501203,2.474890448587196,2.9399563409738425,71.33699999999953
312314.3217,-2.4095844342233628,-3.3410667157426968,2.6557232098422205,2.288026459445674,71.33799999998882
312314.3227,-1.6348007649582676,-3.8213832451703023,2.648996379873457,1.5480801131716906,71.33900000003632
312314.3237,-0.902475224480477,-4.308814517664398,2.5006758132309206,0.7925879655262391,71.34000000002561
312314.3247,-0.17281280734716795,-4.72786641390468,2.2659452702413354,0.09838957465446127,71.3410000000149
312314.3257,0.5934742065930272,-5.00651871500115,2.002501121530819,-0.46108291038509397,71.34200000000419
312314.3267,1.4284882394302452,-5.083762937301503,1.7636935708029777,-0.8235102592881214,71.34299999999348
312314.3277,2.3511625732726418,-4.916285528841205,1.5922223223185894,-0.944557604654625,71.34400000004098
312314.3287,3.3626341109916478,-4.483636511243312,1.515038517118765,-0.8032179149751024,71.34500000003027
312314.3297,4.443503568030474,-3.791360484799144,1.53998374514453,-0.40507138080407995,71.34600000001956
312314.3307,5.553328054556473,-2.871755018737726,1.6545228852211171,0.21690219901036478,71.34700000000885
312314.3317,6.63246902369022,-1.7821429119137053,1.8267175393086725,1.0040907926522518,71.34799999999814
312314.3327,7.606182224988135,-0.6007784547096842,2.0083615771459327,1.8764850573319867,71.34900000004563
312314.3337,8.390608852850807,0.5792687356765324,2.1399819906573416,2.739032424306299,71.35000000003492
312314.3347,8.900130956700893,1.6577169201753397,2.1572184268265233,3.4895574419211783,71.35100000002421
312314.3357,9.055408820261261,2.5354852904104535,1.9979522125697577,4.027542418295665,71.3520000000135
312314.3367,8.791337945376556,3.1231614369024796,1.6094745832175223,4.262975689541731,71.3530000000028
312314.3377,8.064156675200481,3.3487605583542726,0.9549723464130446,4.124462931971071,71.35399999999208
312314.3387,6.857003398064711,3.1640780857911066,0.018668707847397766,3.565861086443789,71.35500000003958
312314.3397,5.183358467848843,2.5490670533969597,-1.1909181482757596,2.570828579706823,71.35600000002887
312314.3407,3.087997587519111,1.5138539888066638,-2.6399579051715376,1.1548767805268745,71.35700000001816
312314.3417,0.6453121571795816,0.09822478088543318,-4.27067722934328,-0.6352622995337713,71.35800000000745
312314.3427,-2.0449039096169965,-1.6313559221176224,-6.005030346985221,-2.7248901778509578,71.35899999999674
312314.3437,-4.863865538994798,-3.5869038308731467,-7.750363614324988,-5.016915966206298,71.36000000004424
312314.3447,-7.68186555869272,-5.665769224907706,-9.406572600528307,-7.399237883521046,71.36100000003353
312314.3457,-10.367306319519894,-7.758554606769213,-10.87410370025237,-9.753258844991914,71.36200000002282
312314.3467,-12.795909230554058,-9.757376836773949,-12.062067562836818,-11.962766437674592,71.36300000001211
312314.3477,-14.859301749747644,-11.56373608133593,-12.895716928383365,-13.922384648630768,71.3640000000014
312314.3487,-16.47224063328269,-13.095304870197213,-13.322598266670648,-15.544856797772574,71.36499999999069
312314.3497,-17.57785875197833,-14.291065531044362,-13.316809465646434,-16.76654065441982,71.36600000003818
312314.3507,-18.150508060000515,-15.114391488350508,-12.880972868891615,-17.55067542668595,71.36700000002747
312314.3517,-18.19599546180407,-15.553870685563023,-12.045747146667274,-17.88819850075508,71.36800000001676
312314.3527,-17.749249807651655,-15.621887753775814,-10.866932172048815,-17.796126064892942,71.36900000000605
312314.3537,-16.86969392028433,-15.351194232810862,-9.42044607545072,-17.31374306757194,71.36999999999534
312314.3547,-15.63480294535108,-14.789882641598158,-7.795651376189313,-16.49705195699774,71.37100000004284
312314.3557,-14.132489791693382,-13.995322729990628,-6.0876586306188205,-15.412086770158625,71.37200000003213
312314.3567,-12.453055073331354,-13.02770351030473,-4.389326990952599,-14.127794526723628,71.37300000002142
312314.3577,-10.681464018146851,-11.943845061473818,-2.783702923583013,-12.709210809999679,71.37400000001071
312314.3587,-8.890664472754144,-10.791898428217563,-1.3375892744057305,-11.211609110890365,71.375
312314.3597,-7.136543725667084,-9.607445489216477,-0.09682193194199391,-9.676189296022295,71.37599999998929
312314.3607,-5.454949274909268,-8.411354651837849,0.9163380803159072,-8.12770131088876,71.37700000003679
312314.3617,-3.860987149779944,-7.20955864862848,1.7034965266889737,-6.574193177063848,71.37800000002608
312314.3627,-2.350581911640319,-5.994716765486605,2.288126237782023,-5.008848375524465,71.37900000001537
312314.3637,-0.9040575874975852,-4.749526029833364,2.7115207274269575,-3.413659300786967,71.38000000000466
312314.3647,0.5086994616090803,-3.451274021444748,3.0271411341506456,-1.7644924697331879,71.38099999999395
312314.3657,1.9220870839867152,-2.077097172945984,3.2939470199739884,-0.03695664009892649,71.38200000004144
312314.3667,3.3683263970488815,-0.6093354966502066,3.5693932260747605,1.7875986583795413,71.38300000003073
312314.3677,4.871398967486017,0.9596351880604352,3.9027991395578288,3.7166411280089813,71.38400000002002
312314.3687,6.442039139839285,2.6236583428968614,4.329751359933552,5.742201018137094,71.38500000000931
312314.3697,8.074324085342955,4.3605913293819185,4.868090668338717,7.838313353787702,71.3859999999986
312314.3707,9.744235488263273,6.131932006087425,5.51587052563799,9.960492618259996,71.3870000000461
312314.3717,11.410360940464066,7.8843788723522525,6.251473413984811,12.047365884250475,71.38800000003539
312314.3727,13.016680725421823,9.553223529108879,7.035853162352722,14.024366338399343,71.38900000002468
312314.3737,14.49716899162048,11.06727995199083,7.816657580091927,15.809173067462277,71.39000000001397
312314.3747,15.781748998946362,12.354888974255006,8.533797402321213,17.31839661707541,71.39100000000326
312314.3757,16.80299909465415,13.350415374698205,9.125883302122318,18.47487205357608,71.39199999999255
312314.3767,17.502923660740702,14.000591547844069,9.53686673006574,19.214846147170398,71.39300000004005
312314.3777,17.83908977894315,14.270062704995533,9.722200997659222,19.494340769161077,71.39400000002934
312314.3787,17.78948725214974,14.145554339344846,9.653888114541845,19.29404160280199,71.39500000001863
312314.3797,17.355591386550486,13.638207263839803,9.323889427937935,18.62219366914891,71.39600000000792
312314.3807,16.563282620662363,12.783797001232234,8.74554282792497,17.515170333831236,71.3969999999972
312314.3817,15.461487465852521,11.64075605917919,7.952829747635896,16.035602491236396,71.3980000000447
312314.3827,14.118630513539372,10.286129956440528,6.997551449853233,14.268188108454618,71.399000000034
312314.3837,12.617205166791393,8.80979992145543,5.944684644031986,12.313526426426034,71.40000000002328
312314.3847,11.046959652242027,7.307477003809398,4.866370387360695,10.280513859159614,71.40100000001257
312314.3857,9.497335961992892,5.873096833925438,3.835129197213958,8.27798099023088,71.40200000000186
312314.3867,8.049878536700708,4.591308909778365,2.9169754927560785,6.406327885160507,71.40299999999115
312314.3877,6.771338672321028,3.5307523628662474,2.16511785385436,4.749920322705902,71.40400000003865
312314.3887,5.708138627355906,2.7387414277280477,1.6148767025481454,3.3709416466145075,71.40500000002794
312314.3897,4.882732036539571,2.2378546100219903,1.2803331883754547,2.30526004492143,71.40600000001723
312314.3907,4.292216750169378,2.024744053064566,1.1530538301203823,1.5606820134731307,71.40700000000652
312314.3917,3.9093401100545164,2.071272834183894,1.2030314592615727,1.1177376949943643,71.40799999999581
312314.3927,3.6858059736003046,2.3278679829264686,1.3817643060729177,0.9329043896337952,71.4090000000433
312314.3937,3.557570015841092,2.728767161422991,1.6271832296701485,0.9439439281826933,71.4100000000326
312314.3947,3.4516167587437443,3.1986575251681697,1.8699530388583436,1.0768300903768613,71.41100000002189
312314.3957,3.2935673207235054,3.660073728994167,2.040535801310219,1.2535931536520883,71.41200000001118
312314.3967,3.0153852527550398,4.040851186252345,2.076325718325974,1.4003244137800404,71.41300000000047
312314.3977,2.5624371231448837,4.280927485884581,1.928154424433321,1.4545722836510104,71.41399999998976
312314.3987,1.8992259114586123,4.337849717765504,1.5655236969950692,1.3714244208310744,71.41500000003725
312314.3997,1.0132429190590722,4.190472135529206,0.9800440105655185,1.1277011353865816,71.41600000002654
312314.4007,-0.08343452450653609,3.84050486552156,0.18673039545463385,0.7238713627814565,71.41700000001583
312314.4017,-1.3549543786614229,3.31178318435293,-0.7769851716643581,0.18352566403712053,71.41800000000512
312314.4027,-2.744831973891375,2.6473479923584446,-1.8544433746182554,-0.44952065564234667,71.41899999999441
312314.4037,-4.181118994091071,1.9046400543011752,-2.9748526981748515,-1.1161903223438652,71.42000000004191
312314.4047,-5.5830992952710625,1.1492927910478865,-4.05980694347807,-1.7486680306613724,71.4210000000312
312314.4057,-6.868863785384827,0.44814320277853936,-5.030601875363013,-2.277829686188763,71.42200000002049
312314.4067,-7.963031731156053,-0.13784518523783557,-5.815648060113699,-2.640834218672107,71.42300000000978
312314.4077,-8.80387209717678,-0.5600468195884613,-6.3572655265016085,-2.788120957379802,71.42399999999907
312314.4087,-9.349137182001142,-0.7873871342579646,-6.61720394853394,-2.689115171678981,71.42500000004657
312314.4097,-9.580046164098366,-0.8097889615629074,-6.580354031216764,-2.336071960089549,71.42600000003586
312314.4107,-9.503035982387198,-0.6395110832277108,-6.256289854531521,-1.7456716889244643,71.42700000002515
312314.4117,-9.149113726756877,-0.3102446035484653,-5.678491170603105,-0.9582007183905196,71.42800000001444
312314.4127,-8.570877289652838,0.125947377407298,-4.901318684042986,-0.03438765626389172,71.42900000000373
312314.4137,-7.837496788678937,0.603550105186432,-3.995032350767134,0.9498052353834594,71.42999999999302
312314.4147,-7.028146251947256,1.0498988111926044,-3.0393315611195137,1.9099359442985606,71.43100000004051
312314.4157,-6.224524125750441,1.3922478021609082,-2.1160383313625872,2.760731403721922,71.4320000000298
312314.4167,-5.503187869886475,1.5649180342645623,-1.3016264625409044,3.4238930573606337,71.43300000001909
312314.4177,-4.9284438966015784,1.5158263603771138,-0.6603130869951036,3.8353059771108864,71.43400000000838
312314.4187,-4.546477937210103,1.211759735465959,-0.23837283740535056,3.9509562207456943,71.43499999999767
312314.4197,-4.381288179819642,0.641879748853074,-0.06021456925252937,3.750986742332226,71.43600000004517
312314.4207,-4.432806295097289,-0.18088507347517935,-0.12658793279006975,3.2415030472308186,71.43700000003446
312314.4217,-4.6773771407249205,-1.2206965455193333,-0.41507901915910694,2.453958173081809,71.43800000002375
312314.4227,-5.070537495003171,-2.4218327496990537,-0.8828311451094359,1.4421811014385524,71.43900000001304
312314.4237,-5.551810147540094,-3.713591653837837,-1.4712104035293567,0.27734044561985116,71.44000000000233
312314.4247,-6.05103394349082,-5.016600126690188,-2.1119470347365477,-0.9586659938399696,71.44099999999162
312314.4257,-6.495602014829561,-6.249921076062964,-2.7341413711696556,-2.180754802545062,71.44200000003912
312314.4267,-6.817893856567674,-7.3382758643108374,-3.271440943633359,-3.3084051492490514,71.4430000000284
312314.4277,-6.962170472876206,-8.218690252802947,-3.6686812854058775,-4.2728669074779635,71.4440000000177
312314.4287,-6.890257008331801,-8.845930613476039,-3.8873383335945073,-5.023140521325949,71.44500000000698
312314.4297,-6.5854585612772745,-9.196217159110827,-3.909259608280915,-5.5301639522071895,71.44599999999627
312314.4307,-6.054330253804478,-9.268870618963614,-3.738312792075785,-5.7888202968224025,71.44700000004377
312314.4317,-5.326134826258706,-9.085751423990509,-3.3997970697963957,-5.817595055864158,71.44800000003306
312314.4327,-4.450049165242266,-8.688566174217762,-2.937684297189127,-5.6559433506568295,71.44900000002235
312314.4337,-3.4904028517880517,-8.13432380492537,-2.4099719594243276,-5.359651898582834,71.45000000001164
312314.4347,-2.5204252716770137,-7.4894031389685605,-1.8826168326608395,-4.994676238809347,71.45100000000093
312314.4357,-1.615124085773232,-6.8228269112159,-1.4226588905991535,-4.63008137892888,71.45199999999022
312314.4367,-0.8440025766439654,-6.199411897611036,-1.091225457164813,-4.330799277196235,71.45300000003772
312314.4377,-0.2643382721863791,-5.673473278238267,-0.9371179486670764,-4.150931095345317,71.45400000002701
312314.4387,0.08431114538252443,-5.2837030940318375,-0.9916265062290274,-4.128264616960043,71.4550000000163
312314.4397,0.1838307533653896,-5.049723448550643,-1.2650969330286597,-4.2805533688732265,71.45600000000559
312314.4407,0.03913206777281232,-4.970646758288971,-1.7456014335491448,-4.6039260653394525,71.45699999999488
312314.4417,-0.3225583049633982,-5.0257744796573265,-2.3998566365992926,-5.073580587011193,71.45800000004238
312314.4427,-0.8546330204226554,-5.177352137342792,-3.176309670488197,-5.646686971540431,71.45900000003166
312314.4437,-1.4959683897571898,-5.375093195455806,-4.0100975206807625,-6.267201512366588,71.46000000002095
312314.4447,-2.1772335690899434,-5.562007585760737,-4.829397743503683,-6.8721010171314925,71.46100000001024
312314.4457,-2.828014672411864,-5.680939976660865,-5.562548295040796,-7.3984016895148494,71.46199999999953
312314.4467,-3.3840413109869023,-5.681151064048191,-6.1452346664911355,-7.7902453537226695,71.46299999998882
312314.4477,-3.7937907204901298,-5.524269438967922,-6.527031674859105,-8.005325069936871,71.46400000003632
312314.4487,-4.02380396712753,-5.189002591971346,-6.676646403610984,-8.019983848830782,71.46500000002561
312314.4497,-4.0621740719193555,-4.67411743621987,-6.585332333481008,-7.8324483103509674,71.4660000000149
312314.4507,-3.919845100655027,-3.9993714587803058,-6.268120744791037,-7.463841341941675,71.46700000000419
312314.4517,-3.629576853529671,-3.2042784933112003,-5.7627269438176665,-6.956836341934404,71.46799999999348
312314.4527,-3.242660650964235,-2.3448082022814467,-5.126215200993453,-6.372049115141505,71.46900000004098
312314.4537,-2.823695192813434,-1.4883244801135842,-4.429725428135021,-5.78248902160832,71.47000000003027
312314.4547,-2.4439255755051885,-0.7072448041159434,-3.751755166649911,-5.266586382841564,71.47100000001956
312314.4557,-2.1737941210977167,-0.0720325828450961,-3.170633764105069,-4.900459131917993,71.47200000000885
312314.4567,-2.0754342532147017,0.3557951261779016,-2.756907617577226,-4.750163753531939,71.47299999999814
312314.4577,-2.195849937383253,0.5299585899973923,-2.566367952048163,-4.864685415493877,71.47400000004563
312314.4587,-2.5614618433874816,0.4243828136068727,-2.634394428392085,-5.2703586033373355,71.47500000003492
312314.4597,-3.174573148640466,0.036343977960163955,-2.972164475582391,-5.967278465535906,71.47600000002421
312314.4607,-4.012125100252286,-0.612528646784093,-3.5651015037341773,-6.928076989890828,71.4770000000135
312314.4617,-5.026892758991793,-1.477512907390107,-4.373722157253614,-8.099214975374245,71.4780000000028
312314.4627,-6.151036060271199,-2.494215743438712,-5.336814113050654,-9.404702087740814,71.47899999999208
312314.4637,-7.3016932962561,-3.5838479346027046,-6.37665373345436,-10.751926175895765,71.48000000003958
312314.4647,-8.388105520712863,-4.659863648735022,-7.405778621052577,-12.039071847237732,71.48100000002887
312314.4657,-9.319610533532018,-5.635345003039961,-8.334682534765028,-13.163456524921159,71.48200000001816
312314.4667,-10.013758617356737,-6.430440051261639,-9.079713401701401,-14.030024515221715,71.48300000000745
312314.4677,-10.403787526995611,-6.979157816408587,-9.570437559661451,-14.559224453548008,71.48399999999674
312314.4687,-10.44475285346437,-7.234886632088086,-9.755786432031496,-14.693554284343046,71.48500000004424
312314.4697,-10.117736163362975,-7.174125970781465,-9.608420254384338,-14.402184897235434,71.48600000003353
312314.4707,-9.43173505050931,-6.798094969953593,-9.126915598505024,-13.683256312502523,71.48700000002282
312314.4717,-8.423058854258336,-6.132086067033369,-8.335592454307275,-12.563661106249976,71.48800000001211
312314.4727,-7.152290058290458,-5.222649440219358,-7.282022183296641,-11.096367149699189,71.4890000000014
312314.4737,-5.699101450177485,-4.132902079425834,-6.032477859331213,-9.355562698257339,71.48999999999069
312314.4747,-4.155420788085345,-2.9364339564399535,-4.665782069345863,-7.430109071744944,71.49100000003818
312314.4757,-2.6175885656783406,-1.710415513632231,-3.266155531875756,-5.4159401393731965,71.49200000002747
312314.4767,-1.1782457422915904,-0.5285827524206902,-1.9157587526960544,-3.408138837125808,71.49300000001676
312314.4777,0.08129163118942266,0.5452183472852754,-0.687640063878734,-1.4934404619897705,71.49400000000605
312314.4787,1.097466816230205,1.4623078834469374,0.3602448910998302,0.2561410203712181,71.49499999999534
312314.4797,1.829142133908956,2.1927706912605234,1.1893897552269703,1.787988326928569,71.49600000004284
312314.4807,2.260076344267238,2.7270506588779018,1.7830832041497164,3.071458637666365,71.49700000003213
312314.4817,2.3990261812777214,3.075416333623153,2.146558891743461,4.09817826741297,71.49800000002142
312314.4827,2.2775100520138607,3.2653876278980545,2.304983081772575,4.8800987381247065,71.49900000001071
312314.4837,1.945498010853211,3.3374180046548925,2.299526801588789,5.4455823669262715,71.5
312314.4847,1.4654907968031876,3.33930123544398,2.1819566563966295,5.833980546020173,71.50099999998929
312314.4857,0.9056026768666404,3.319899364218639,2.0083213672740285,6.089315164834957,71.50200000003679
312314.4867,0.33235340041480016,3.3228562053294075,1.8323957320489488,6.253758627715876,71.50300000002608
312314.4877,-0.1961048775652109,3.3809617774588676,1.699561920631924,6.361622347221947,71.50400000001537
312314.4887,-0.6356510328352047,3.511767319013543,1.641758234848275,6.434506134076517,71.50500000000466
312314.4897,-0.9601917089018166,3.7149243370368032,1.6740128242170287,6.478137372607239,71.50599999999395
312314.4907,-1.1636065111851626,3.9715468863055534,1.7929156840880076,6.481251626006784,71.50700000004144
312314.4917,-1.259466470216783,4.245691111000434,1.9771829742948204,6.4166530498933065,71.50800000003073
312314.4927,-1.2785768695096258,4.487830262952749,2.1902531430541,6.24436498342156,71.50900000002002
312314.4937,-1.264616034084826,4.6399983105892355,2.3846458790634597,5.916561102946233,71.51000000000931
312314.4947,-1.2683345824238228,4.642101263926308,2.507633297522793,5.383777578220407,71.5109999999986
312314.4957,-1.3409258910687152,4.4387698691356094,2.5076360986811532,4.601765853451454,71.5120000000461
312314.4967,-1.5272636548279133,3.9860630713356775,2.340679394764426,3.538268260981573,71.51300000003539
312314.4977,-1.8597180259465547,3.257335338257784,1.9762313762209898,2.1789927122312505,71.51400000002468
312314.4987,-2.3532063188560253,2.2476526631211478,1.4018043111696994,0.5321292152827235,71.51500000001397
312314.4997,-3.002013118072658,0.9762752247604065,0.6258161707807401,-1.3691161886198417,71.51600000000326
312314.5007,-3.7787397428618035,-0.5130933786263203,-0.32161910641786134,-3.4663079843848394,71.51699999999255
312314.5017,-4.635531621801745,-2.1543771841941455,-1.3901006664682691,-5.678004023516091,71.51800000004005
312314.5027,-5.507505040623277,-3.8633822052293336,-2.512458760109626,-7.904294247157352,71.51900000002934
312314.5037,-6.318074336990001,-5.543884325323687,-3.610080315143446,-10.033307695576106,71.52000000001863
312314.5047,-6.985688676873315,-7.095020205889331,-4.599557674345266,-11.949144240292616,71.52100000000792
312314.5057,-7.431343032047322,-8.419319547108456,-5.4000394043715705,-13.54054200427779,71.5219999999972
312314.5067,-7.586145215810208,-9.430648604588102,-5.9405853146487715,-14.709510860557039,71.5230000000447
312314.5077,-7.398208097295991,-10.061336047193874,-6.16681883714604,-15.379154834566538,71.524000000034
312314.5087,-6.8381948036322235,-10.267823232314282,-6.046229919375103,-15.499972707962712,71.52500000002328
312314.5097,-5.902969218715248,-10.034315169016077,-5.571605023136299,-15.05406046160343,71.52600000001257
312314.5107,-4.6169823153998895,-9.374093069122276,-4.76223591465486,-14.056828631049756,71.52700000000186
312314.5117,-3.0312394497726762,-8.328366751899447,-3.6627687970659677,-12.55607404611224,71.52799999999115
312314.5127,-1.219923760085578,-6.9627743588968345,-2.339779640899737,-10.628487059693951,71.52900000003865
312314.5137,0.7250262112325373,-5.361855767738828,-0.8763785133584716,-8.373909039525763,71.53000000002794
312314.5147,2.7008923849688524,-3.6220136681190414,0.634665837512063,-5.907858189480977,71.53100000001723
312314.5157,4.602067786653431,-1.8436144286047507,2.0986483098592608,-3.3529952537451595,71.53200000000652
312314.5167,6.328138797378411,-0.12295640071714212,3.4267829886119046,-0.8302897793803844,71.53299999999581
312314.5177,7.791421516605316,1.4551609569519837,4.543465973688675,1.5493358982313286,71.5340000000433
312314.5187,8.923271767702538,2.823598136463616,5.392277200031528,3.6921651105373554,71.5350000000326
312314.5197,9.678610897366758,3.9372258505812345,5.940174842207911,5.527053058420533,71.53600000002189
312314.5207,10.038285529843611,4.775102572446914,6.179510167873457,7.0085864476061195,71.53700000001118
312314.5217,10.009091409395253,5.340329863081076,6.127700373508258,8.117839947383517,71.53800000000047
312314.5227,9.621518474395897,5.657661145092226,5.824621574428107,8.860766429204519,71.53899999998976
312314.5237,8.925493996101462,5.769155487993556,5.328001862252817,9.264484460163764,71.54000000003725
312314.5247,7.984591398026939,5.728353712021142,4.7072840233645294,9.371923896118046,71.54100000002654
312314.5257,6.869315555910704,5.593591774818447,4.0365707410358995,9.235439510927499,71.54200000001583
312314.5267,5.6501570008550415,5.421142806643652,3.3873480588019227,8.910089121532257,71.54300000000512
312314.5277,4.391119644193319,5.258887144264083,2.8216976518086225,8.447288559926848,71.54399999999441
312314.5287,3.144368412320018,5.1411488101935605,2.386653800579998,7.889500041292622,71.54500000004191
312314.5297,1.9465204836809349,5.085213338148737,2.110242438982996,7.26648901095587,71.5460000000312
312314.5307,0.8169289915923348,5.089867997258263,1.9995690413572782,6.593509931989606,71.54700000002049
312314.5317,-0.24190141057573028,5.136098538422332,2.041116284513101,5.871571450433094,71.54800000000978
312314.5327,-1.241850895139724,5.189856997114863,2.2031916516669963,5.089707180371304,71.54899999999907
312314.5337,-2.204971042720998,5.206604466339265,2.4402511547356958,4.228962606574305,71.55000000004657
312314.5347,-3.158004416686611,5.137151830081473,2.6986391640989513,3.267623079152885,71.55100000003586
312314.5357,-4.126255618487814,4.934188030490511,2.9231442264187715,2.187071341547186,71.55200000002515
312314.5367,-5.127505555366626,4.558812684016843,3.0636904584722005,0.9775893961639652,71.55300000001444
312314.5377,-6.166663754945612,3.9863849751760294,3.081471483058241,-0.3565835700148171,71.55400000000373
312314.5387,-7.231785801232508,3.2110643066476885,2.9538901267510034,-1.7935573640533742,71.55499999999302
312314.5397,-8.291950640303932,2.2485440300337745,2.6777866673299027,-3.2919483839768255,71.55600000004051
312314.5407,-9.297308335280583,1.1366554710430845,2.2706095204704937,-4.791191300252576,71.5570000000298
312314.5417,-10.181390763426114,-0.06627177324204747,1.7693880465971976,-6.214089202219515,71.55800000001909
312314.5427,-10.865547126231792,-1.285186061055445,1.2275873836372657,-7.471456268209557,71.55900000000838
312314.5437,-11.265145740784472,-2.433907224896009,0.7101381869514369,-8.468487583860858,71.55999999999767
312314.5447,-11.296995295187148,-3.4220361142809237,0.28711889849591193,-9.112304171857634,71.56100000004517
312314.5457,-10.887301470754196,-4.162544737809065,0.026706440466775505,-9.319986483276464,71.56200000003446
312314.5467,-9.979402573449454,-4.579338540401102,-0.0119106603381537,-9.026340427269831,71.56300000002375
312314.5477,-8.540528322229104,-4.614077712846986,0.21504742286896958,-8.190644000247259,71.56400000001304
312314.5487,-6.5668999030379664,-4.231608810514386,0.7308432133073457,-6.80170009574061,71.56500000000233
312314.5497,-4.0866303494275975,-3.4234852426334794,1.5349476016711043,-4.880665300335462,71.56599999999162
312314.5507,-1.1600792326195866,-2.209233132053278,2.6019480843339893,-2.481322007760093,71.56700000003912
312314.5517,2.1224538020740127,-0.6352304438144191,3.882778750973943,0.3123066736731574,71.5680000000284
312314.5527,5.645567818323737,1.2287083194017367,5.3081875865880415,3.3908551479082973,71.5690000000177
312314.5537,9.275768140703017,3.294733881025619,6.79414029515328,6.626649052628668,71.57000000000698
312314.5547,12.870076484411836,5.463856356351405,8.248671838660313,9.882296814139494,71.57099999999627
312314.5557,16.285526386156246,7.633699245716401,9.579555556902848,13.020114246129348,71.57200000004377
312314.5567,19.38874169303413,9.706403052170636,10.70207889269229,15.911577454306588,71.57300000003306
312314.5577,22.064785248645546,11.595958956182919,11.546202306353033,18.445994366169632,71.57400000002235
312314.5587,24.224529739692436,13.234312592268553,12.062435169491573,20.53765586605207,71.57500000001164
312314.5597,25.80993678216091,14.575700553433625,12.225883741128216,22.13086708937485,71.57600000000093
312314.5607,26.796820941916152,15.598855669545662,12.038099965831332,23.202454589159387,71.57699999999022
312314.5617,27.19490431338989,16.306924313460726,11.526568921797972,23.76157716659631,71.57800000003772
312314.5627,27.045212709898763,16.725159689128603,10.741896979996488,23.84691496904681,71.57900000002701
312314.5637,26.415103130125996,16.896667704191756,9.752980359116954,23.521549451820032,71.5800000000163
312314.5647,25.391421387440303,16.876665942209378,8.64062369986422,22.86605334265382,71.58100000000559
312314.5657,24.07244897939557,16.725853626279815,7.490222196811771,21.970465317544555,71.58199999999488
312314.5667,22.559394604787748,16.50356812506609,6.38420489947555,20.925914162494983,71.58300000004238
312314.5677,20.94820960214751,16.261414211558108,5.39495307270346,19.81667361151656,71.58400000003166
312314.5687,19.322456414146416,16.03799526114957,4.578854665733009,18.713370824743315,71.58500000002095
312314.5697,17.747840554927713,15.855256837882223,3.9720394019908856,17.667944836878267,71.58600000001024
312314.5707,16.268841625415256,15.71678468843181,3.588170394982554,16.71076909787652,71.58699999999953
312314.5717,14.907665203461672,15.608197926246103,3.4184642026547167,15.85013260431912,71.58799999998882
312314.5727,13.665506085720706,15.499564219821586,3.433891951209941,15.07403878150302,71.58900000003632
312314.5737,12.525887090257571,15.349558387933136,3.589301128045294,14.354053335549278,71.59000000002561
312314.5747,11.459638494278435,15.110909351515431,3.8290117286790193,13.650734015177626,71.5910000000149
312314.5757,10.430930417532442,14.736550397965992,4.093299793557543,12.920025843574264,71.59200000000419
312314.5767,9.403678623274164,14.185817053859608,4.325099643073382,12.119919242335907,71.59299999999348
312314.5777,8.34762176013635,13.430032514331335,4.476241140392422,11.216653621014192,71.59400000004098
312314.5787,7.243416579688719,12.456882932833004,4.512591319697953,10.189806432166241,71.59500000003027
312314.5797,6.0862116834708635,11.273107698043706,4.417585246857684,9.035731234643533,71.59600000001956
312314.5807,4.887327968565545,9.905200867728405,4.193797406595423,7.768985288271951,71.59700000000885
312314.5817,3.673877979642646,8.398022141620133,3.8624056029131224,6.421599684897743,71.59799999999814
312314.5827,2.486376117330612,6.811428968379115,3.460614319403962,5.040271589673111,71.59900000004563
312314.5837,1.374604889701914,5.2152443039724234,3.037312321495475,3.681776050374277,71.60000000003492
312314.5847,0.3921876338031511,3.683046864472142,2.6474193183041823,2.407082154744203,71.60100000002421
312314.5857,-0.40954326808923724,2.2853951378783286,2.3455108183012645,1.2747962589278916,71.6020000000135
312314.5867,-0.9877156509082142,1.0831603470801658,2.179385515420541,0.33462967787993314,71.6030000000028
312314.5877,-1.313447756541846,0.12164037107857885,2.184248083686465,-0.378407977329362,71.60399999999208
312314.5887,-1.376122782547847,-0.5739436472709688,2.378121188500336,-0.8484562559327096,71.60500000003958
312314.5897,-1.1859147928005,-1.0010969857144858,2.758979586723906,-1.0813910375834312,71.60600000002887
312314.5907,-0.7742478705811967,-1.180554766836711,3.303928266397291,-1.105234635235824,71.60700000001816
312314.5917,-0.19207915160992195,-1.1545553738071923,3.9705425211413257,-0.9682899490951535,71.60800000000745
312314.5927,0.4938818338869842,-0.9830187732438862,4.700270828509038,-0.7351296803108973,71.60899999999674
312314.5937,1.2066924522704716,-0.7379716740092794,5.423592899081889,-0.4807906287198327,71.61000000004424
312314.5947,1.865927717444354,-0.4967363860755578,6.066445988062057,-0.28370937608920044,71.61100000003353
312314.5957,2.395022112103893,-0.3345257701481616,6.557300385821698,-0.21807049569629955,71.61200000002282
312314.5967,2.7284913689927444,-0.3171502616417991,6.834193203173035,-0.346308148332211,71.61300000001211
312314.5977,2.818322329700588,-0.494538130801654,6.851025503616948,-0.712499218048091,71.6140000000014
312314.5987,2.638888735866852,-0.8956971112939979,6.582492224599503,-1.3373108114917305,71.61499999999069
312314.5997,2.1898846533404006,-1.5256111753056185,6.027141160834299,-2.215023938717364,71.61600000003818
312314.6007,1.4969524355833042,-2.3643834455753927,5.2082343938772855,-3.3129619314076377,71.61700000002747
312314.6017,0.6099008425964733,-3.368722657818291,4.172295815682485,-4.573425226283337,71.61800000001676
312314.6027,-0.4013600748174512,-4.475646895574884,2.9854513858723415,-5.917995492713318,71.61900000000605
312314.6037,-1.4528199492688445,-5.608066201124907,1.72788275716083,-7.2538448717929835,71.61999999999534
312314.6047,-2.4537686106826326,-6.681725703388962,0.4868989968583188,-8.481492424822253,71.62100000004284
312314.6057,-3.3149212669655883,-7.6128605648213075,-0.650732711939272,-9.503308652554027,71.62200000003213
312314.6067,-3.956519021510836,-8.325845982131739,-1.6064816898137657,-10.231993968665032,71.62300000002142
312314.6077,-4.315652538391419,-8.760126273093773,-2.3170519751897767,-10.59825569793983,71.62400000001071
312314.6087,-4.352125950446581,-8.87577663771597,-2.7400259320500933,-10.556980780552719,71.625
312314.6097,-4.052313056287066,-8.65718270256497,-2.857622113463236,-10.091340980596527,71.62599999998929
312314.6107,-3.4306455881869833,-8.114503624096685,-2.67821463554039,-9.214460596554588,71.62700000003679
312314.6117,-2.528595814249858,-7.282796752012713,-2.2354738138012196,-7.968504832720302,71.62800000002608
312314.6127,-1.4112515197456696,-6.2189049978900455,-1.5852138529310393,-6.4212881092324645,71.62900000001537
312314.6137,-0.1618077314315824,-4.996420446417268,-0.8002510626580168,-4.660732420957805,71.63000000000466
312314.6147,1.1255054546443526,-3.699218802020994,0.03623570003692686,-2.787704183750958,71.63099999999395
312314.6157,2.353394728776887,-2.414191496201084,0.8382101223660949,-0.9079048007435764,71.63200000004144
312314.6167,3.429630129724802,-1.2238730088644714,1.5244375550162177,0.8764285501519934,71.63300000003073
312314.6177,4.274572365128595,-0.19966353710215656,2.025576270957664,2.474247259332157,71.63400000002002
312314.6187,4.827410473624582,0.6037183875052342,2.2900383636601394,3.812141554452674,71.63500000000931
312314.6197,5.0505490946403615,1.152045678689481,2.2880810223344183,4.838949831170388,71.6359999999986
312314.6207,4.931767654918013,1.4333228872165742,2.0137638604563954,5.528146227854275,71.6370000000461
312314.6217,4.483992209132545,1.4573317809746065,1.4846174286559068,5.877846985670327,71.63800000003539
312314.6227,3.7427530871400436,1.2530750938161326,0.7390914784538232,5.9085110175528355,71.63900000002468
312314.6237,2.7616251768776183,0.8644184103566781,-0.1679329139095093,5.658635460049941,71.64000000001397
312314.6247,1.6061407821142213,0.3444063611506339,-1.1710966712090807,5.178940736128329,71.64100000000326
312314.6257,0.34680874420635954,-0.2511427398635983,-2.201371367636811,4.525682895165605,71.64199999999255
312314.6267,-0.9480460159114023,-0.8700924644111631,-3.193034366101359,3.753809790824633,71.64300000004005
312314.6277,-2.2188988869603983,-1.469822700661482,-4.090111142050938,2.910684430731118,71.64400000002934
312314.6287,-3.4204364341946243,-2.021838690592657,-4.851644164995892,2.0310330943454002,71.64500000001863
312314.6297,-4.525227841170712,-2.5146778390062443,-5.455269562568888,1.133644211289798,71.64600000000792
312314.6307,-5.525303180991612,-2.954812516253947,-5.898755683144906,0.2201596482580761,71.6469999999972
312314.6317,-6.431499623255211,-3.3654523862854995,-6.199364445096581,-0.7239187074956533,71.6480000000447
312314.6327,-7.270664915426557,-3.7833649897270925,-6.391116535093409,-1.7261156286926669,71.649000000034
312314.6337,-8.081026470915026,-4.254037057055214,-6.520253307946972,-2.822092187284738,71.65000000002328
312314.6347,-8.906222447556933,-4.8256710986280655,-6.639370693866627,-4.049496842786619,71.65100000001257
312314.6357,-9.788629655027785,-5.542635102701878,-6.800835476525145,-5.441214043124055,71.65200000000186
312314.6367,-10.762698214496362,-6.439045344218577,-7.05016857581371,-7.018738863101585,71.65299999999115
312314.6377,-11.849007068800258,-7.533157039673737,-7.420086044734865,-8.786406031282697,71.65400000003865
312314.6387,-13.049687141304066,-8.823165171401268,-7.92582567390441,-10.727128473946285,71.65500000002794
312314.6397,-14.34572663284595,-10.284885137327365,-8.562261473602687,-12.800160990500467,71.65600000001723
312314.6407,-15.696488495645784,-11.871602771618349,-9.303132141680369,-14.941212147053008,71.65700000000652
312314.6417,-17.041551540633144,-13.516173211836458,-10.102500179863572,-17.065000454570022,71.65799999999581
312314.6427,-18.304755313213015,-15.135228508842715,-10.898336140839602,-19.070111354849136,71.6590000000433
312314.6437,-19.400107497278835,-16.63514620587336,-11.617909408078125,-20.845782758628104,71.6600000000326
312314.6447,-20.239022939169434,-17.919255651367006,-12.184483910997717,-22.280051208097202,71.66100000002189
312314.6457,-20.738224132099887,-18.895632753355606,-12.524682334076532,-23.268547395164696,71.66200000001118
312314.6467,-20.82755799724562,-19.484769649681407,-12.575809086250402,-23.7231529892958,71.66300000000047
312314.6477,-20.456980636944227,-19.626409785709487,-12.292417960754713,-23.579728362976645,71.66399999998976
312314.6487,-19.6020310366275,-19.2849109696965,-11.651475718123253,-22.804193538692083,71.66500000003725
312314.6497,-18.267250028905462,-18.452632325562494,-10.655601653768434,-21.396385968172307,71.66600000002654
312314.6507,-16.487189354737406,-17.151022953110996,-9.334043247949767,-19.39131542082234,71.66700000001583
312314.6517,-14.324879331345175,-15.429303102593389,-7.741261910382508,-16.857669771811842,71.66800000000512
312314.6527,-11.867860999587583,-13.36085232805983,-5.9532299670698245,-13.893673730433594,71.66899999999441
312314.6537,-9.222116856647324,-11.03763192676551,-4.061758416602177,-10.620641975720073,71.67000000004191
312314.6547,-6.50443142204243,-8.563150574351797,-2.1673634483948674,-7.1747760310657025,71.6710000000312
312314.6557,-3.8338599594017073,-6.044615026747275,-0.37131998333459937,-3.6979107918481806,71.67200000002049
312314.6567,-1.3230665283134528,-3.584979383949839,1.232371059665943,-0.32800712033085216,71.67300000000978
312314.6577,0.9296967922317667,-1.2756099313394282,2.564366095149785,2.809797108162158,71.67399999999907
312314.6587,2.847260182508958,0.8097821962421122,3.566038539312983,5.6108249675617765,71.67500000004657
312314.6597,4.3782761698642565,2.619414936569901,4.203666450733196,7.996564565695031,71.67600000003586
312314.6607,5.499634043554817,4.125566375935077,4.470378002255604,9.918003127473117,71.67700000002515
312314.6617,6.216374099966957,5.324422058521907,4.385697960769034,11.356380661352908,71.67800000001444
312314.6627,6.5591636413949095,6.233718213316671,3.992766133830755,12.321395596213387,71.67900000000373
312314.6637,6.579625698647047,6.8884718746016365,3.3535189619373864,12.847131259192201,71.67999999999302
312314.6647,6.34401106268725,7.3352703819967475,2.5423168139224157,12.986179535884572,71.68100000004051
312314.6657,5.925855225233079,7.625726930059256,1.638643620971371,12.802596745753927,71.6820000000298
312314.6667,5.398349828769135,7.8097827861631455,0.7195884190773508,12.364421755186012,71.68300000001909
312314.6677,4.827174952367188,7.929543491808823,-0.1471677192517903,11.736509000265741,71.68400000000838
312314.6687,4.264482702527453,8.014275366008137,-0.9091921475762121,10.974377868691237,71.68499999999767
312314.6697,3.7445999001982004,8.07706611666337,-1.5334220430364158,10.119660491563383,71.68600000004517
312314.6707,3.2818404166695756,8.113481524296583,-2.008193572886326,9.197554760099562,71.68700000003446
312314.6717,2.8706034633865634,8.102345994538398,-2.3430144371333608,8.216476055586643,71.68800000002375
312314.6727,2.487704002040246,8.008558431474512,-2.566139160492064,7.169871153613939,71.68900000001304
312314.6737,2.0966580259766467,7.787647685133686,-2.720223354540192,6.039933956208712,71.69000000000233
312314.6747,1.6534506684139918,7.391594176887545,-2.8565219052872273,4.802767310049076,71.69099999999162
312314.6757,1.1131679550450237,6.775313693306033,-3.0282382535480545,3.434387469726182,71.69200000003912
312314.6767,0.43678786050401125,5.9031286208102856,-3.283713797855657,1.9168822513341837,71.6930000000284
312314.6777,-0.4025886357917404,4.754548044430702,-3.6601600606974958,0.24401887733019287,71.6940000000177
312314.6787,-1.4147292540497267,3.3287415652049166,-4.178580407949561,-1.5743457795938975,71.69500000000698
312314.6797,-2.5890252845365516,1.647216215560667,-4.840408388540028,-3.5095772147754087,71.69599999999627
312314.6807,-3.89337400981539,-0.24562070243776699,-5.626218002777968,-5.513646021068787,71.69700000004377
312314.6817,-5.275340763457277,-2.284124626784678,-6.496654331712888,-7.520717614811253,71.69800000003306
312314.6827,-6.6655250437634095,-4.385197087313923,-7.3955113075638925,-9.450858295797243,71.69900000002235
312314.6837,-7.982834463578447,-6.45387598714153,-8.254668749024418,-11.215547862760461,71.70000000001164
312314.6847,-9.141178385441005,-8.390241183914977,-9.000414198910928,-12.724499555512477,71.70100000000093
312314.6857,-10.05694870455829,-10.097012621659474,-9.56053490085442,-13.893147213775466,71.70199999999022
312314.6867,-10.656572562405968,-11.487147041766042,-9.871485205573567,-14.650081345933959,71.70300000003772
312314.6877,-10.883408906029574,-12.490734918776838,-9.884922685064746,-14.943708229231474,71.70400000002701
312314.6887,-10.703319015163334,-13.06056213617466,-9.572963477613762,-14.747470204525124,71.7050000000163
312314.6897,-10.108364707645094,-13.175824890764567,-8.931628338062955,-14.063094923547942,71.70600000000559
312314.6907,-9.11826482066804,-12.843659291145357,-7.9821237494446,-12.921523942382152,71.70699999999488
312314.6917,-7.779453471315559,-12.098352236530719,-6.769810413923979,-11.381388995340302,71.70800000004238
312314.6927,-6.1618117467944975,-10.998317465035973,-5.360934208891454,-9.525136308915148,71.70900000003166
312314.6937,-4.353365626585569,-9.621129040965531,-3.8374105528735223,-7.453122803838626,71.71000000002095
312314.6947,-2.4534355799376417,-8.057083829995216,-2.290141042588084,-5.276201178524914,71.71100000001024
312314.6957,-0.564868723231337,-6.40189741141638,-0.8114829011723558,-3.1074548169555514,71.71199999999953
312314.6967,1.2139313762468078,-4.749211707016218,0.5124265536626218,-1.053824167455524,71.71299999998882
312314.6977,2.796447223506537,-3.183600496260627,1.6087744596442595,0.7916241775161225,71.71400000003632
312314.6987,4.114287774747188,-1.7747005459735654,2.423945450191344,2.356096932292022,71.71500000002561
312314.6997,5.1216725892784964,-0.5729774184357767,2.927621797994598,3.591581728971214,71.7160000000149
312314.7007,5.797778906222086,0.3925318745211896,3.114740434713073,4.477084307883314,71.71700000000419
312314.7017,6.146779754272174,1.1143556543804112,3.005143051954632,5.0184341457143224,71.71799999999348
312314.7027,6.195625311796886,1.6046703711142785,2.640977034330842,5.245729264170061,71.71900000004098
312314.7037,5.989837004852795,1.891597320731675,2.082120037410008,5.20871471058455,71.72000000003027
312314.7047,5.587773008879182,2.0141537352227843,1.4000886813046645,4.9705830647241855,71.72100000001956
312314.7057,5.0539664729744365,2.0164255163138796,0.6710338843551688,4.600830514147599,71.72200000000885
312314.7067,4.452220103584324,1.9415976373963764,-0.0314918938830755,4.167884560595862,71.72299999999814
312314.7077,3.8391548864110696,1.8264823550993132,-0.6432946724340202,3.732231438333279,71.72400000004563
312314.7087,3.2588555801073364,1.6971247069634792,-1.1151783195504057,3.3407119278171638,71.72500000003492
312314.7097,2.7391369009672086,1.565945606577219,-1.416931337844625,3.0225295218896906,71.72600000002421
312314.7107,2.289784012266021,1.430717268108834,-1.5392965841938733,2.7873373331742575,71.7270000000135
312314.7117,1.9029160893046428,1.275470392877457,-1.4937617836973878,2.6255573771162926,71.7280000000028
312314.7127,1.555402800107078,1.073227185855457,-1.3102259325145809,2.510859017126895,71.72899999999208
312314.7137,1.2130523490031913,0.7902595127811185,-1.032807407591528,2.4045048721476037,71.73000000003958
312314.7147,0.8361073286672819,0.39140700640905,-0.714243081739736,2.261083975485872,71.73100000002887
312314.7157,0.3854492160887208,-0.154127640807302,-0.40946596233220706,2.0350120821697377,71.73200000001816
312314.7167,-0.17116252097222662,-0.8671475533511868,-0.16902829205344147,1.6871015929517266,71.73300000000745
312314.7177,-0.8534975116640694,-1.7536294745219156,-0.03304993675647953,1.1904962719525138,71.73399999999674
312314.7187,-1.664526431042523,-2.801253706293757,-0.026317065318365772,0.5353295306414393,71.73500000004424
312314.7197,-2.58785145473051,-3.977729622753663,-0.15503909813013794,-0.2684067234822599,71.73600000003353
312314.7207,-3.5872132271586454,-5.23117470988317,-0.40560429109214996,-1.1901154723451355,71.73700000002282
312314.7217,-4.608183419432924,-6.492601026860298,-0.745472739521921,-2.180088635042602,71.73800000001211
312314.7227,-5.581930388741332,-7.680350412676129,-1.1261299875307853,-3.1731328850778913,71.7390000000014
312314.7237,-6.430733229978782,-8.70611970210103,-1.4878161537952475,-4.09400061394826,71.73999999999069
312314.7247,-7.074737754181539,-9.482049590938505,-1.7655651602321252,-4.864112924453788,71.74100000003818
312314.7257,-7.439314823034041,-9.928232461365086,-1.8959541586241753,-5.408924899677047,71.74200000002747
312314.7267,-7.46231046569137,-9.979937570367056,-1.8238879718231915,-5.665210366268235,71.74300000001676
312314.7277,-7.1004756865912775,-9.593862702320774,-1.5087348604845534,-5.587541479656156,71.74400000000605
312314.7287,-6.334432415525211,-8.75279930226477,-0.9291891856670784,-5.153308248863053,71.74499999999534
312314.7297,-5.171664347354609,-7.468236287881202,-0.08635788379646601,-4.365758083192623,71.74600000004284
312314.7307,-3.6472048818833183,-5.780613321296381,0.9952606945889526,-3.2547226456369156,71.74700000003213
312314.7317,-1.8219113554689639,-3.757149757899732,2.269031873881849,-1.8749206244056125,71.74800000002142
312314.7327,0.22155574203155284,-1.4874002339397725,3.6695813787930756,-0.3019589553355517,71.74900000001071
312314.7337,2.3847101483456226,0.9230996476552634,5.118030853580938,1.3736212996109705,71.75
312314.7347,4.560646873457521,3.3605542993768576,6.528587529505366,3.053716712726573,71.75099999998929
312314.7357,6.642213117362403,5.711322919963548,7.8158682790509575,4.6407727111342325,71.75200000003679
312314.7367,8.530201751680764,7.870288293976329,8.902263263540979,6.045880559474877,71.75300000002608
312314.7377,10.140821420745388,9.748442367891409,9.724636962961311,7.196103466325985,71.75400000001537
312314.7387,11.411764230060339,11.279023199298203,10.23972548642577,8.040345372756393,71.75500000000466
312314.7397,12.306324149664606,12.421672334545399,10.427712893006856,8.553212733724546,71.75599999999395
312314.7407,12.815204002113166,13.164265962966013,10.293643838524122,8.73650981705226,71.75700000004144
312314.7417,12.955868423467974,13.522289731340681,9.866538239707323,8.618233381801742,71.75800000003073
312314.7427,12.769533262586068,13.53585517476022,9.196295507300405,8.249171258586728,71.75900000002002
312314.7437,12.316105954524069,13.26467351604913,8.348689584304157,7.697438204461427,71.76000000000931
312314.7447,11.667584757896433,12.781489300729241,7.398940642662046,7.041479235051093,71.7609999999986
312314.7457,10.900568647586706,12.16461419133104,6.424486765926819,6.362216332491412,71.7620000000461
312314.7467,10.088610172489677,11.49027721868152,5.4976557924769685,5.73509483980998,71.76300000003539
312314.7477,9.295152959638315,10.825514865284829,4.678946146039624,5.222793178546325,71.76400000002468
312314.7487,8.567732935558444,10.222262208019119,4.011565033442618,4.869293074513434,71.76500000001397
312314.7497,7.933993918639286,9.713181348971826,3.5177486974038614,4.695873731139236,71.76600000000326
312314.7507,7.399886598092348,9.309587958285027,3.1972145189817853,4.69940537708037,71.76699999999255
312314.7517,6.950202823154826,9.001628227858372,3.027885730623446,4.853093629260002,71.76800000004005
312314.7527,6.551365796302914,8.760637321133261,2.968806737367968,5.109587929757796,71.76900000002934
312314.7537,6.15617378987924,8.54339807688394,2.9649523165788207,5.406138066657043,71.77000000001863
312314.7547,5.710002153167154,8.297835893368742,2.953448267635811,5.671284707552721,71.77100000000792
312314.7557,5.157824462254988,7.969550017694032,2.8705825764159068,5.832422129063259,71.7719999999972
312314.7567,4.451332717796723,7.5085058398468565,2.658908403305549,5.823488159772554,71.7730000000447
312314.7577,3.5554263924795415,6.875204249680724,2.2737308225956805,5.592025706399176,71.774000000034
312314.7587,2.453401827731945,6.045703064042927,1.6883291795209092,5.104922976348652,71.77500000002328
312314.7597,1.1503009253543446,5.014985758527047,0.897390358984444,4.352269379619467,71.77600000001257
312314.7607,-0.32594119379063885,3.7983420486035704,-0.08169685761172471,3.348948312514513,71.77700000000186
312314.7617,-1.925693548538763,2.4306262980425983,-1.209826897618632,2.133808564376034,71.77799999999115
312314.7627,-3.5810848297574456,0.963473247017185,-2.429359274949055,0.7664914308729522,71.77900000003865
312314.7637,-5.211407484717207,-0.5392449942344197,-3.669199134544278,-0.6777821336785452,71.78000000002794
312314.7647,-6.729967744320394,-2.007261507795005,-4.851291789853442,-2.114962880846988,71.78100000001723
312314.7657,-8.051734607939213,-3.3704686939213166,-5.897907067251589,-3.459813776395058,71.78200000000652
312314.7667,-9.101059105203742,-4.565526123378278,-6.739010424109881,-4.63370573185955,71.78299999999581
312314.7677,-9.81872408676965,-5.541860088832318,-7.3190073101218225,-5.571821455138739,71.7840000000433
312314.7687,-10.167645412866682,-6.266454467836482,-7.602206106054536,-6.22907950160048,71.7850000000326
312314.7697,-10.136671778300645,-6.726953651123767,-7.576467443370887,-6.58421611621232,71.78600000002189
312314.7707,-9.742110205440671,-6.932766740836278,-7.254681823719727,-6.641641804723196,71.78700000001118
312314.7717,-9.026819936540663,-6.914061149797085,-6.673926232823227,-6.430905076923799,71.78800000000047
312314.7727,-8.056948080892813,-6.718743332953458,-5.892373529590766,-6.003826336919148,71.78899999998976
312314.7737,-6.916603528051284,-6.407723849675527,-4.984244069058183,-5.429587953394577,71.79000000003725
312314.7747,-5.700959714473332,-6.048933539364071,-4.033276322738452,-4.788260462774176,71.79100000002654
312314.7757,-4.508423109281233,-5.710680546263458,-3.125334031940808,-4.163390929284177,71.79200000001583
312314.7767,-3.432588764787836,-5.45500215992892,-2.3408480843110047,-3.6343637710341072,71.79300000000512
312314.7777,-2.5547190341532384,-5.331664692975841,-1.7478041544809113,-3.2692590414724494,71.79399999999441
312314.7787,-1.9374255028740637,-5.373399092010943,-1.3959311489836095,-3.118877270002906,71.79500000004191
312314.7797,-1.620113146614865,-5.592836281437262,-1.312626326132951,-3.2124794747987004,71.7960000000312
312314.7807,-1.6165718796296797,-5.9814367350786295,-1.5009824668451741,-3.5556181312474417,71.79700000002049
312314.7817,-1.9148912776954676,-6.510510339701736,-1.940077484512479,-4.130227050325103,71.79800000000978
312314.7827,-2.4796500331784905,-7.134214985227924,-2.5874675422110047,-4.8969159784496155,71.79899999999907
312314.7837,-3.2561146731266453,-7.7942261082117055,-3.383612600257911,-5.799201257259969,71.80000000004657
312314.7847,-4.175993475008531,-8.425604100268348,-4.257779085332756,-6.769218188756375,71.80100000003586
312314.7857,-5.164149675781964,-8.963268472784577,-5.134825990682175,-7.7343219980756155,71.80200000002515
312314.7867,-6.1455966124584265,-9.3484286541586,-5.942201563005058,-8.623905899938803,71.80300000001444
312314.7877,-7.052083946321223,-9.534327149878264,-6.616465317760763,-9.375754138190981,71.80400000000373
312314.7887,-7.827639431716407,-9.490720956123779,-7.1087053696425935,-9.941305605944168,71.80499999999302
312314.7897,-8.43254878758956,-9.206654647858564,-7.388338215400139,-10.289323588963166,71.80600000004051
312314.7907,-8.845424892802795,-8.691250833364801,-7.444945314500635,-10.4076369536952,71.8070000000298
312314.7917,-9.063219542666518,-7.972443598653297,-7.288001315062482,-10.302820432040301,71.80800000001909
312314.7927,-9.099245892914412,-7.093788306865201,-6.944562548004535,-9.997896033512014,71.80900000000838
312314.7937,-8.979485770649168,-6.1096760051042445,-6.455190165958921,-9.52834236955819,71.80999999999767
312314.7947,-8.737632477216938,-5.079443283921785,-5.868559569247149,-8.936873124360197,71.81100000004517
312314.7957,-8.40944877665973,-4.06098243879113,-5.2353389247209465,-8.267572425924499,71.81200000003446
312314.7967,-8.027088458785176,-3.104510665760814,-4.601991621478054,-7.560040649689193,71.81300000002375
312314.7977,-7.6140312580351805,-2.2471451640415,-4.005163274746605,-6.8442025094161085,71.81400000001304
312314.7987,-7.1812148264165305,-1.5088542777091334,-3.467252822841322,-6.136360214136683,71.81500000000233
312314.7997,-6.724820507347937,-0.8902204643750208,-2.9936454375120896,-5.436944826778908,71.81599999999162
312314.8007,-6.225994569437934,-0.37227192702987655,-2.5719144988089324,-4.730241682890961,71.81700000003912
312314.8017,-5.652580931349508,0.08156635906724391,-2.1730977272554575,-3.986158571079902,71.8180000000284
312314.8027,-4.962725957569488,0.5215645385021738,-1.754938842077653,-3.163889155620229,71.8190000000177
312314.8037,-4.110012412276889,1.0061839968252662,-1.266782129571277,-2.217120646162451,71.82000000000698
312314.8047,-3.0496088109832797,1.595504251695416,-0.655633444689756,-1.1002646284373394,71.82099999999627
312314.8057,-1.744799742731397,2.344222119199985,0.12722511640959477,0.2249293203002502,71.82200000004377
312314.8067,-0.1732048877773895,3.29491769523622,1.1197455477893006,1.7830736369077769,71.82300000003306
312314.8077,1.6679940979884043,4.472267131128307,2.3434266071056284,3.5798393177940704,71.82400000002235
312314.8087,3.7584192702341115,5.878800931342349,3.799037309704892,5.598249504875819,71.82500000001164
312314.8097,6.052912927925894,7.4926659702165646,5.46422970965767,7.797026659537298,71.82600000000093
312314.8107,8.482272636117308,9.267662832738644,7.293340666187938,10.111257891459827,71.82699999999022
312314.8117,10.956351482051184,11.135615193011741,9.219471997053743,12.455421326055921,71.82800000003772
312314.8127,13.369340423366111,13.010905347783552,11.158716975613158,14.728586384027116,71.82900000002701
312314.8137,15.606833076358763,14.79680116021991,13.016190090655613,16.821384868072563,71.8300000000163
312314.8147,17.55409138806008,16.393024748581084,14.693336989092032,18.624168978483013,71.83100000000559
312314.8157,19.104801384086546,17.703889290545938,16.095870258822593,20.035644737818174,71.83199999999488
312314.8167,20.16954467288991,18.646269472376087,17.141607217648897,20.971207718927932,71.83300000004238
312314.8177,20.683220450008587,19.156679518881024,17.767485247715094,21.370219081388527,71.83400000003166
312314.8187,20.610734266315937,19.19680987312834,17.935098901201915,21.20154340853195,71.83500000002095
312314.8197,19.950416707615094,18.757012318145243,17.634234741879784,20.466818409081984,71.83600000001024
312314.8207,18.734833955766796,17.857410571797104,16.884062300680753,19.201126605510446,71.83699999999953
312314.8217,17.028884475302508,16.54653137884966,15.731855300460271,17.470972047537796,71.83799999998882
312314.8227,14.925320000050622,14.897579130280123,14.249345867431265,15.369708976053532,71.83900000003632
312314.8237,12.538061568388041,13.002693339327493,12.527033936208797,13.010801166498267,71.84000000002561
312314.8247,9.993880552858142,10.965712294762254,10.666963448789776,10.519488397745288,71.8410000000149
312314.8257,7.42316154582645,8.894100401850226,8.774618094148147,8.023581292680216,71.84200000000419
312314.8267,4.950544637934561,6.890768418453336,6.95066871693555,5.644183828468595,71.84299999999348
312314.8277,2.686251400381825,5.046518332779177,5.283314570174459,3.4871466326184657,71.84400000004098
312314.8287,0.7188311441644504,3.433778015045737,3.8419004104299974,1.6359833640553139,71.84500000003027
312314.8297,-0.890071714738298,2.102161676866173,2.672366918993817,0.146843763095195,71.84600000001956
312314.8307,-2.1085191023616843,1.0762132709487242,1.7949151653372453,-0.9540564224690751,71.84700000000885
312314.8317,-2.9344669634319396,0.35547871727297753,1.2040539252431914,-1.6703779970139445,71.84799999999814
312314.8327,-3.393399098194585,-0.08317021664057324,0.87097210936876,-2.0330465631874084,71.84900000004563
312314.8337,-3.5337014890887555,-0.28125081491126847,0.7479592111844634,-2.09539450353065,71.85000000003492
312314.8347,-3.4202754513205345,-0.29289640655662724,0.7744056645739145,-1.9265682543996077,71.85100000002421
312314.8357,-3.127042269460896,-0.17820371456320752,0.8837706339618517,-1.603865317774609,71.8520000000135
312314.8367,-2.729082214143001,0.0036169841675869705,1.0108207928851698,-1.2047533841463385,71.8530000000028
312314.8377,-2.2951687991079512,0.20059983716838495,1.098427922558029,-0.7993388845232269,71.85399999999208
312314.8387,-1.881403699298675,0.37326169468548787,1.1032668577143236,-0.4439933207338659,71.85500000003958
312314.8397,-1.5265348892687935,0.4982154398702384,0.9998728281891294,-0.1767190793086182,71.85600000002887
312314.8407,-1.249362784803266,0.5698246617075008,0.7826867781105021,-0.01465490394050305,71.85700000001816
312314.8417,-1.0484242725985549,0.5997692495317227,0.465921919841493,0.046097135313647,71.85800000000745
312314.8427,-0.9039138207806524,0.6146062517173073,0.08130432584805812,0.028374885309702336,71.85899999999674
312314.8437,-0.7815771435194013,0.651615229324873,-0.3260469033569753,-0.0301329613934541,71.86000000004424
312314.8447,-0.6381181177870102,0.753392020381729,-0.7031493967677358,-0.08249493719728397,71.86100000003353
312314.8457,-0.4275128434686937,0.9617820079070657,-0.9955076982425237,-0.07904374797373744,71.86200000002282
312314.8467,-0.10754011517351678,1.3118110767190982,-1.1536149657545993,0.02592157509823896,71.86300000001211
312314.8477,0.3541768434931835,1.8262728361388696,-1.1389251566153007,0.26795435975447585,71.8640000000014
312314.8487,0.9752656926033487,2.511564377936809,-0.9286709172027794,0.6674561479684272,71.86499999999069
312314.8497,1.7553635524786342,3.3552364449107275,-0.5190212979810039,1.2263805302219755,71.86600000003818
312314.8507,2.674890170262867,4.325549980212335,0.07375693037925277,1.9269971621612152,71.86700000002747
312314.8517,3.6959769745923197,5.3731269066815806,0.8142671015519569,2.7328544617568555,71.86800000001676
312314.8527,4.765469265320593,6.434568959170736,1.6509953268648183,3.5918521023288656,71.86900000000605
312314.8537,5.819703185172598,7.437715781276669,2.521074764833481,4.441116105312241,71.86999999999534
312314.8547,6.790573581314042,8.308042526172962,3.356328183638233,5.213181920021871,71.87100000004284
312314.8557,7.612271996666304,8.975575001552073,4.089982363164242,5.842853097942959,71.87200000003213
312314.8567,8.227999603879963,9.381639316578545,4.663375000378317,6.27402883707915,71.87300000002142
312314.8577,8.59595548110461,9.484769360455164,5.031969585920287,6.465790306659142,71.87400000001071
312314.8587,8.693966853983092,9.265168963664085,5.170056946727328,6.397103752920471,71.875
312314.8597,8.52225841035318,8.727259342399284,5.073647772677243,6.069631347012042,71.87599999998929
312314.8607,8.104039770673811,7.900023538266813,4.761236262737092,5.508325557994728,71.87700000003679
312314.8617,7.483805782146956,6.835070486888508,4.272323855831319,4.759701369410869,71.87800000002608
312314.8627,6.723472248094189,5.602561560420722,3.663813376453282,3.8879114049900467,71.87900000001537
312314.8637,5.896687483380499,4.285350451219048,3.004596062180887,2.9689692445926843,71.88000000000466
312314.8647,5.0818461208487635,2.971862762226515,2.368835937560325,2.0836541430114273,71.88099999999395
312314.8657,4.354467367350905,1.748367444199186,1.8285898480128313,1.3097673828517071,71.88200000004144
312314.8667,3.779671792955174,0.6913558884518879,1.4464738331307538,0.7144829187882309,71.88300000003073
312314.8677,3.405491335451883,-0.1392603071293518,1.2690900499914923,0.3475354147933947,71.88400000002002
312314.8687,3.257676078916722,-0.7054948358982386,1.3218625130106116,0.23591686588358052,71.88500000000931
312314.8697,3.3365250967162985,-0.9946715850645741,1.605800635571233,0.3806154171050407,71.8859999999986
312314.8707,3.6160801887291965,-1.0205276794695903,2.0965292636551447,0.7557398418068139,71.8870000000461
312314.8717,4.045798758477323,-0.821926845289917,2.745709893517674,1.3101486554248694,71.88800000003539
312314.8727,4.55458679383615,-0.45929904194087234,3.484750677019753,1.9714656243585538,71.88900000002468
312314.8737,5.056847631348032,-0.009134910183106863,4.230484548638295,2.6521363540741802,71.89000000001397
312314.8747,5.460008657551871,0.4429553691527471,4.892306431145961,3.2569856228452716,71.89100000000326
312314.8757,5.672845036651158,0.8099770108784159,5.3801201820424005,3.6915909985715247,71.89199999999255
312314.8767,5.613840788027663,1.0113667348182236,5.612367268812117,3.87070895193575,71.89300000004005
312314.8777,5.218820694341734,0.9801745364922598,5.523399683248349,3.7259828097655836,71.89400000002934
312314.8787,4.447152278963316,0.6689606180623134,5.0695202036173175,3.2122281208845616,71.89500000001863
312314.8797,3.285949120974711,0.05388329189384833,4.233137893790029,2.3117239103125957,71.89600000000792
312314.8807,1.7518923620737648,-0.8633712235399198,3.0246636008415857,1.036125017506027,71.8969999999972
312314.8817,-0.10949145648629892,-2.055959473033713,1.481982073900655,-0.5741667884872077,71.8980000000447
312314.8827,-2.2270223695098714,-3.474476078090635,-0.3324362702294376,-2.453098407927699,71.899000000034
312314.8837,-4.509227359976026,-5.0514894001807376,-2.336501763643755,-4.514224864350429,71.90000000002328
312314.8847,-6.851370047215059,-6.707554586529715,-4.435077054065189,-6.657631762665642,71.90100000001257
312314.8857,-9.143501603101868,-8.358109223951711,-6.527536424401964,-8.777871135009596,71.90200000000186
312314.8867,-11.278798434241553,-9.920584264566207,-8.515611226607989,-10.772175532978473,71.90299999999115
312314.8877,-13.161436275263664,-11.321056072031626,-10.310803403809334,-12.548200747099875,71.90400000003865
312314.8887,-14.713305903221741,-12.499824379619776,-11.840701635044425,-14.030604961189843,71.90500000002794
312314.8897,-15.878996743417568,-13.415419203862387,-13.05365051848469,-15.165895329228483,71.90600000001723
312314.8907,-16.628648902291005,-14.046705077834995,-13.921390636929594,-15.925149363417818,71.90700000000652
312314.8917,-16.958484242817548,-14.392946555719133,-14.439489575488837,-16.304430483513507,71.90799999999581
312314.8927,-16.889052244978426,-14.471905115499922,-14.625600923751614,-16.322943562270478,71.9090000000433
312314.8937,-16.461444473061935,-14.316233749185415,-14.515798599130072,-16.019194974881213,71.9100000000326
312314.8947,-15.731921251402104,-13.968602201061211,-14.159416855565444,-15.445611088398062,71.91100000002189
312314.8957,-14.765537304935174,-13.476106561761263,-13.61296427546751,-14.662210883412774,71.91200000001118
312314.8967,-13.62943603819841,-12.884579980402867,-12.933759613619456,-13.730008866701663,71.91300000000047
312314.8977,-12.386497225228695,-12.233420664299476,-12.17395114249745,-12.704836125216453,71.91399999998976
312314.8987,-11.089969334430709,-11.55148952838316,-11.375528268022066,-11.632209653788522,71.91500000003725
312314.8997,-9.77960149337112,-10.85450959285083,-10.566820394506838,-10.543759216981686,71.91600000002654
312314.9007,-8.479623372815162,-10.14423490513326,-9.760815103224283,-9.455549488297322,71.91700000001583
312314.9017,-7.198721163151572,-9.409465174387577,-8.955432308065754,-8.368430556786633,71.91800000000512
312314.9027,-5.931944705468822,-8.628782966953155,-8.135682993978165,-7.270332870025458,71.91899999999441
312314.9037,-4.664276321219831,-7.774703511434088,-7.277441479317099,-6.140215259411111,71.92000000004191
312314.9047,-3.3754166327809516,-6.818771955192904,-6.352389052844663,-4.953197856543602,71.9210000000312
312314.9057,-2.045214383375351,-5.73703521993114,-5.333561629956383,-3.6862833882497155,71.92200000002049
312314.9067,-0.6590989226100095,-4.515266623998098,-4.2008674731936315,-2.3240036269161566,71.92300000000978
312314.9077,0.7871274171972531,-3.153336533973202,-2.945939899358921,-0.8633296271128369,71.92399999999907
312314.9087,2.283714117390331,-1.6682004498617087,-1.5757545795181058,0.682745086332868,71.92500000004657
312314.9097,3.8050551318069177,-0.09510977891272089,-0.11456527413275226,2.283406753879033,71.92600000003586
312314.9107,5.309725661247389,1.5131728358933183,1.39611660175752,3.8902860058322895,71.92700000002515
312314.9117,6.7425342708226745,3.089169701344376,2.899571340620678,5.439849416970975,71.92800000001444
312314.9127,8.038446589987489,4.555304300973962,4.327809985677589,6.857760233433917,71.92900000000373
312314.9137,9.128033632021538,5.829953770064823,5.607062926565801,8.064840609374277,71.92999999999302
312314.9147,9.943927060821016,6.834396104280159,6.664308470433066,8.984091380881656,71.93100000004051
312314.9157,10.427643130799646,7.500003614561817,7.434211134610976,9.54810072082124,71.9320000000298
312314.9167,10.53607928137223,7.7749892226023265,7.865780132115122,9.706113023523773,71.93300000001909
312314.9177,10.24699907625421,7.630034647427432,7.928067297245262,9.430040837783254,71.93400000000838
312314.9187,9.562902086090133,7.062218130508496,7.614300499443644,8.718785379704668,71.93499999999767
312314.9197,8.512818296306428,6.096806366074081,6.943986677071624,7.600377873254535,71.93600000004517
312314.9207,7.151758340220314,4.786667245090537,5.962705148686877,6.131651091588776,71.93700000003446
312314.9217,5.5577730247044,3.209278875739994,4.739529109539554,4.395379351179684,71.93800000002375
312314.9227,3.8268067657360483,1.4615353092587813,3.3622403040399744,2.495063923798848,71.93900000001304
312314.9237,2.065747124284613,-0.3472411117339686,1.9307167415600885,0.547766320063053,71.94000000000233
312314.9247,0.38425518320833724,-2.1034971408539045,0.5490549543304241,-1.3244177871529106,71.94099999999162
312314.9257,-1.113909188780213,-3.6981511538109286,-0.6828812935548886,-3.0035147817599928,71.94200000003912
312314.9267,-2.3392902710932617,-5.035040078815429,-1.6777278871109687,-4.384661256246423,71.9430000000284
312314.9277,-3.2241011137890734,-6.038364582255148,-2.367950174888469,-5.384131495100402,71.9440000000177
312314.9287,-3.7278667956764897,-6.658470806603333,-2.7115598430096566,-5.945691867573513,71.94500000000698
312314.9297,-3.84081246630527,-6.87545369520096,-2.6956844521090693,-6.044717225854609,71.94599999999627
312314.9307,-3.5846635495220833,-6.7002623857445665,-2.3376483371881984,-5.689705508095549,71.94700000004377
312314.9317,-3.010759917311193,-6.173214005512557,-1.683450163858486,-4.921062471164552,71.94800000003306
312314.9327,-2.1956313438116606,-5.36005717982676,-0.803761092080256,-3.8072764811680173,71.94900000002235
312314.9337,-1.2344148171872218,-4.3459484697677135,0.21220445535300916,-2.4388400057033337,71.95000000001164
312314.9347,-0.23269309930256699,-3.2278928019276907,1.2643977127213004,-0.9204773781330517,71.95100000000093
312314.9357,0.7025207073615356,-2.1063350030435988,2.2505317678974053,0.637611716630314,71.95199999999022
312314.9367,1.4718498092050274,-1.0766610261313947,3.0747927223519644,2.12870089876284,71.95300000003772
312314.9377,1.991865627317925,-0.22136776565054472,3.6558859924102878,3.4578779267314323,71.95400000002701
312314.9387,2.2019109719388945,0.39641025431155136,3.933703453400122,4.549045213540776,71.9550000000163
312314.9397,2.0688407576446375,0.7374635403024548,3.87402931572911,5.349983499444236,71.95600000000559
312314.9407,1.5892816803335972,0.7887911206237692,3.470888712482578,5.835073227379614,71.95699999999488
312314.9417,0.7892436826142226,0.5634544071154528,2.746365060577818,6.005495687150309,71.95800000004238
312314.9427,-0.2788383709135402,0.09808078646087165,1.7479490090821177,5.886977852914164,71.95900000003166
312314.9437,-1.5413179743191974,-0.5516841883831882,0.5437105433991771,5.525377631813104,71.96000000002095
312314.9447,-2.9102855745333716,-1.3172888970757475,-0.7842152397341857,4.980607544911515,71.96100000001024
312314.9457,-4.291578947263134,-2.1243258018122257,-2.1471878839793317,4.319545405641995,71.96199999999953
312314.9467,-5.593093204493733,-2.8998163787724174,-3.457938490673691,3.608666096634579,71.96299999998882
312314.9477,-6.73261295512801,-3.579019532938814,-4.638018552230877,2.9071412174747677,71.96400000003632
312314.9487,-7.64444803226414,-4.111113337552656,-5.624130298226119,2.261092469377803,71.96500000002561
312314.9497,-8.284281086877673,-4.463223687393845,-6.3727688381574765,1.6995566360319083,71.9660000000149
312314.9507,-8.631817472154212,-4.622447189864344,-6.8627806628942185,1.2325379326271246,71.96700000000419
312314.9517,-8.691047176891145,-4.595721908799446,-7.0956535424020055,0.8513056005465375,71.96799999999348
312314.9527,-8.488163575677167,-4.407617902073757,-7.093578708825109,0.53086265054455,71.96900000004098
312314.9537,-8.06741151002192,-4.096328260913463,-6.895545234597218,0.23428864849633005,71.97000000003027
312314.9547,-7.485335591061039,-3.7083200158146417,-6.551917286513367,-0.08153250244792073,71.97100000001956
312314.9557,-6.804049492570367,-3.292235325881557,-6.118088919942029,-0.4594307104452799,71.97200000000885
312314.9567,-6.084234086336501,-2.8927040840600604,-5.647894418648956,-0.9354225064265137,71.97299999999814
312314.9577,-5.378588473679928,-2.5447327217828493,-5.187467058353936,-1.5328533107967683,71.97400000004563
312314.9587,-4.726402178816463,-2.2692705049225794,-4.770184525936716,-2.2578576924689533,71.97500000003492
312314.9597,-4.149794947456338,-2.0704305438158817,-4.4132208707519816,-3.096654167072266,71.97600000002421
312314.9607,-3.651995151937313,-1.934670641040111,-4.116054879336107,-4.01500643740206,71.9770000000135
312314.9617,-3.2178163792074495,-1.8320362525677962,-3.861080294863412,-4.9599639748764695,71.9780000000028
312314.9627,-2.8162654844682526,-1.7193545415097486,-3.616244858193771,-5.863763178007951,71.97899999999208
312314.9637,-2.4049967403497843,-1.5450660699302055,-3.3394345749443595,-6.649548995642228,71.98000000003958
312314.9647,-1.9361373873145622,-1.2552093182914734,-2.984137938474944,-7.238387849276488,71.98100000002887
312314.9657,-1.3628686317793168,-0.799950067346599,-2.505790192654169,-7.556904751794678,71.98200000001816
312314.9667,-0.6460668908447824,-0.1399850666781024,-1.868123549416246,-7.544804507318514,71.98300000000745
312314.9677,0.23969936035072834,0.7478463055423377,-1.048843027109491,-7.161536221290123,71.98399999999674
312314.9687,1.3014605380721969,1.866337787975111,-0.04400995243860885,-6.391432375650233,71.98500000004424
312314.9697,2.5249422672446156,3.1955441269182443,1.1293599251273012,-5.246791614062216,71.98600000003353
312314.9707,3.8738067032942087,4.692548210065001,2.432801615815311,-3.7685648491991324,71.98700000002282
312314.9717,5.291166068501953,6.293447329740359,3.808119174590158,-2.0245288985975076,71.98800000001211
312314.9727,6.703269698402793,7.9174220289951664,5.181206376099319,-0.10506878142625424,71.9890000000014
312314.9737,8.02504881319486,9.47254659729332,6.467647925471896,1.8830839337528558,71.98999999999069
312314.9747,9.167016418165483,10.862828038728045,7.579598474362514,3.8246156955132755,71.99100000003818
312314.9757,10.042881635235027,11.995837182266735,8.433304027177758,5.604215125333846,71.99200000002747
312314.9767,10.577162006560915,12.790233675081158,8.956559035123155,7.115216210445851,71.99300000001676
312314.9777,10.712071380455248,13.182492029694878,9.095389773885817,8.267535165324876,71.99400000000605
312314.9787,10.413025510249387,13.132208217484765,8.819320954289003,8.994203473727088,71.99499999999534
312314.9797,9.67223616909044,12.625498500511151,8.124711633208323,9.255933417336623,71.99600000004284
312314.9807,8.510044818020422,11.676181400200829,7.035825941746632,9.04333893850676,71.99700000003213
312314.9817,6.97386102496588,10.324642454081042,5.603516572703381,8.376655728643716,71.99800000002142
312314.9827,5.1347979735679985,8.634499373340857,3.901623786531972,7.303038454748254,71.99900000001071
312314.9837,3.082315328741305,6.68739116608371,2.021408104160055,5.891737338613174,72.0
312314.9847,0.917367176246793,4.576388714920198,0.06451996632690876,4.2276492389151965,72.00099999998929
312314.9857,-1.2553085207291805,2.398649336733555,-1.8648534898849731,2.4038814677737474,72.00200000003679
312314.9867,-3.3350459438033093,0.248001966100859,-3.6679490008627673,0.5140462683916865,72.00300000002608
312314.9877,-5.232532833831,-1.7918532530377007,-5.258772911139957,-1.3549870769638919,72.00400000001537
312314.9887,-6.87586007942523,-3.6529164674790464,-6.570172544826425,-3.1292174548236704,72.00500000000466
312314.9897,-8.214808666946581,-5.286744844013198,-7.558099441908719,-4.751975597052099,72.00599999999395
312314.9907,-9.223020456699942,-6.666283747126735,-8.203707202138064,-6.18636490913716,72.00700000004144
312314.9917,-9.897909734703795,-7.785565643844006,-8.513136664562108,-7.415529009424158,72.00800000003073
312314.9927,-10.25839526465336,-8.657382750941682,-8.515064066666058,-8.440818556040648,72.00900000002002
312314.9937,-10.340745532694918,-9.30923972703889,-8.256301891757193,-9.278142767787115,72.01000000000931
312314.9947,-10.193011949367694,-9.778060688717742,-7.7959264378530015,-9.95297244539406,72.0109999999986
312314.9957,-9.868657960828301,-10.10424386803736,-7.19854277935188,-10.494593223381878,72.0120000000461
312314.9967,-9.420063225567926,-10.32571558473255,-6.527373502272777,-10.93027716898419,72.01300000003539
312314.9977,-8.892584324758168,-10.472627188554796,-5.837865139582059,-11.280040915287291,72.01400000002468
312314.9987,-8.319786865990958,-10.563265165911345,-5.172445099191931,-11.552589451354727,72.01500000001397
312314.9997,-7.720335169519382,-10.601613165088217,-4.556938319416874,-11.74291361544757,72.01600000000326
312315.0007,-7.096848057887055,-10.576828539059312,-3.998979317984943,-11.831829606919662,72.01699999999255
312315.0017,-6.436820577303153,-10.464692881951963,-3.488549069062274,-11.787538713492012,72.01800000004005
312315.0027,-5.715492855142615,-10.230886415519915,-3.0005478203680553,-11.569066296853864,72.01900000002934
312315.0037,-4.900340852615254,-9.83574112427034,-2.499106314304666,-11.131233202552615,72.02000000001863
312315.0047,-3.9566904252933104,-9.239966982020999,-1.9431597084828562,-10.430641200973122,72.02100000000792
312315.0057,-2.8538334956945333,-8.410735810233106,-1.292678587214399,-9.432034489273295,72.0219999999972
312315.0067,-1.5709658612911213,-7.327459587542143,-0.5148828165771411,-8.114344203830145,72.0230000000447
312315.0077,-0.10227648215921126,-5.986619556834724,0.41023645681584064,-6.475738409792298,72.024000000034
312315.0087,1.539402665753024,-4.405087728342281,1.4856934788955294,-4.537085208184644,72.02500000002328
312315.0097,3.3208365057419016,-2.6215252792727934,2.695060471254519,-2.343383521087287,72.02600000001257
312315.0107,5.188778704782416,-0.6956290609402364,4.002094879202576,0.037089335720607144,72.02700000000186
312315.0117,7.0725603979051135,1.2947903069429267,5.352530320976765,2.5159409506880963,72.02799999999115
312315.0127,8.888696032496783,3.258698313221038,6.677900129798187,4.989935641312922,72.02900000003865
312315.0137,10.54711675446493,5.098293735312367,7.901053703030073,7.347958422369737,72.03000000002794
312315.0147,11.958467871706256,6.716468848441181,8.942849475764943,9.4790779683997,72.03100000001723
312315.0157,13.041786583031461,8.02459779373201,9.729381897712779,11.280993725159723,72.03200000000652
312315.0167,13.731821787856328,8.949931926555651,10.199036108524199,12.668098220480667,72.03299999999581
312315.0177,13.985275420474437,9.441904003547338,10.308669726904428,13.57840511825055,72.0340000000433
312315.0187,13.785333389603004,9.476733776693072,10.03829613405312,13.978685527006071,72.0350000000326
312315.0197,13.144005907237984,9.05987769013575,9.393780880958948,13.86731134386926,72.03600000002189
312315.0207,12.101997615641936,8.226060865188046,8.407249289947643,13.274510523633875,72.03700000001118
312315.0217,10.726058467774596,7.036851903970878,7.135121000734398,12.259975732647197,72.03800000000047
312315.0227,9.104004751534433,5.575969060226914,5.653915060102123,10.908012431794917,72.03899999998976
312315.0237,7.3378230248109215,3.9427182002871226,4.054185033245909,9.320641672566516,72.04000000003725
312315.0247,5.535456400052841,2.2441383603118537,2.43312646928883,7.609264760895128,72.04100000002654
312315.0257,3.802004334343045,0.5865526861145819,0.8865309637096541,5.885632887467665,72.04200000001583
312315.0267,2.231130767963185,-0.9327207176588372,-0.49917101011102555,4.2529315541894475,72.04300000000512
312315.0277,0.8974644935312678,-2.232757610818814,-1.6540392554062502,2.797780434136197,72.04399999999441
312315.0287,-0.14930946323042008,-3.254859481189868,-2.5302595659795504,1.5838647275389748,72.04500000004191
312315.0297,-0.8881202952328969,-3.9663174271279904,-3.1057584547139174,0.647761888823865,72.0460000000312
312315.0307,-1.3276006701311776,-4.361790685917027,-3.3854582549408754,-0.0026779233150416894,72.04700000002049
312315.0317,-1.5044892882490732,-4.462205717858358,-3.400055871341605,-0.38727874788118044,72.04800000000978
312315.0327,-1.4794897924168782,-4.311313422644546,-3.2024421543172714,-0.5499447520997524,72.04899999999907
312315.0337,-1.33096515987091,-3.9702600592493944,-2.8621019319167127,-0.5528947955671528,72.05000000004657
312315.0347,-1.1470479363707426,-3.5107110225134592,-2.4580257279156292,-0.46929781721881064,72.05100000003586
312315.0357,-1.0168939450396182,-3.0071983668318,-2.070804756087059,-0.37502916213589443,72.05200000002515
312315.0367,-1.0218864153445881,-2.529430409343538,-1.7746573812010202,-0.34034714653100007,72.05300000001444
312315.0377,-1.2276012818755682,-2.1352986147984443,-1.6301404988704962,-0.4222920849519719,72.05400000000373
312315.0387,-1.6772723287219375,-1.8652437556247419,-1.6782326962260776,-0.6585364709116807,72.05499999999302
312315.0397,-2.387353751334781,-1.738507264326643,-1.936344016950942,-1.0632721349437102,72.05600000004051
312315.0407,-3.3455809840922357,-1.7516079798308932,-2.39662236921141,-1.6255217686841772,72.0570000000298
312315.0417,-4.51169698603612,-1.8791671048606307,-3.026706857075428,-2.310027283758464,72.05800000001909
312315.0427,-5.8207627638263695,-2.0769761177315904,-3.7728447141035315,-3.060618635424197,72.05900000000838
312315.0437,-7.188731276702335,-2.286985587868384,-4.565063515871621,-3.805727859612755,72.05999999999767
312315.0447,-8.519755658616976,-2.4437081708519295,-5.323895537862755,-4.4655070396092995,72.06100000004517
312315.0457,-9.714545495135706,-2.481394210649782,-5.968005160967493,-4.95985544036899,72.06200000003446
312315.0467,-10.678993365383516,-2.341266215543795,-6.421987025598304,-5.216574749708133,72.06300000002375
312315.0477,-11.33227633599267,-1.9780957796655587,-6.623590034460388,-5.1788603878047805,72.06400000001304
312315.0487,-11.613694799017807,-1.3654733407420188,-6.529681308438086,-4.811402068888759,72.06500000000233
312315.0497,-11.487637995600744,-0.4992508129023566,-6.1203888927813255,-4.104501761598325,72.06599999999162
312315.0507,-10.946249167357228,0.6011831473004293,-5.40104013441214,-3.075808729401157,72.06700000003912
312315.0517,-10.0095855571709,1.8939232804340516,-4.401726805372414,-1.7695008438073094,72.0680000000284
312315.0527,-8.723307844776958,3.3177673222737796,-3.174557385396957,-0.25298663069558175,72.0690000000177
312315.0537,-7.1541669285684195,4.797325142727696,-1.788879175399918,1.3885601570865587,72.07000000000698
312315.0547,-5.383760847107943,6.249524325173744,-0.3249465805045411,3.0593151173590925,72.07099999999627
312315.0557,-3.5011915470934127,7.590884419128945,1.1333416957674556,4.660892707258693,72.07200000004377
312315.0567,-1.5953453866332872,8.744858911571969,2.5059286850510705,6.100646083062214,72.07300000003306
312315.0577,0.25245587333256225,9.648539198166493,3.723584730597871,7.299396301493512,72.07400000002235
312315.0587,1.9747368938769463,10.258078756640565,4.733723631598611,8.197868853149206,72.07500000001164
312315.0597,3.5225041749723562,10.552321898125413,5.504499982605515,8.761243741814438,72.07600000000093
312315.0607,4.867828675199898,10.534297413987085,6.026810877625747,8.981410156037182,72.07699999999022
312315.0617,6.0041800531135205,10.23044584140962,6.314033550012429,8.876740035233825,72.07800000003772
312315.0627,6.9445447204743305,9.687669516942728,6.399554252412295,8.489434675451475,72.07900000002701
312315.0637,7.717582072735759,8.968505531408628,6.332360786039661,7.880731580333508,72.0800000000163
312315.0647,8.362267946401873,8.144902587803376,6.171160323762574,7.124462420592264,72.08100000000559
312315.0657,8.92162245943208,7.291216034349676,5.977627088110037,6.299607552871528,72.08199999999488
312315.0667,9.436206503080369,6.477108135535686,5.809467184341321,5.482583260935003,72.08300000004238
312315.0677,9.938088924681448,5.7610460361401366,5.714002524960553,4.740016204599232,72.08400000003166
312315.0687,10.445933395499354,5.185027551703873,5.722921084812569,4.122704082158886,72.08500000002095
312315.0697,10.961735617625337,4.771041185278597,5.848722263248424,3.6613380327262965,72.08600000001024
312315.0707,11.469569847393881,4.5195939101501095,6.083215707735371,3.364383251473356,72.08699999999953
312315.0717,11.936495903748156,4.410435325716133,6.398226445556609,3.2182974742111203,72.08799999998882
312315.0727,12.315554634290622,4.405389933668926,6.7484388554645305,3.190033844355463,72.08900000003632
312315.0737,12.550563469128926,4.453001754521945,7.076098579844634,3.2315481577158036,72.09000000002561
312315.0747,12.582235745367006,4.494517607126075,7.31710590588528,3.2858328069885276,72.0910000000149
312315.0757,12.355006658678146,4.470604459033196,7.407894639935179,3.293850230167229,72.09200000000419
312315.0767,11.823869061659247,4.328125043687857,7.2924107260164766,3.2016518288896916,72.09299999999348
312315.0777,10.960511913303604,4.026291285892975,6.928492605370247,2.966952490771828,72.09400000004098
312315.0787,9.758114197913368,3.54157730958159,6.29301173820469,2.564487354777603,72.09500000003027
312315.0797,8.234271842802547,2.870896705569035,5.385251237835365,1.9896005223287843,72.09600000001956
312315.0807,6.431712463789383,2.0327201672391264,4.228171448858716,1.2596927345678617,72.09700000000885
312315.0817,4.416665360190567,1.0660126815519548,2.8674167617541877,0.4133689976702781,72.09799999999814
312315.0827,2.2749812812833743,0.02708423700431415,1.3681378500873735,-0.4926434341854364,72.09900000004563
312315.0837,0.10631585758337309,-1.015346596486395,-0.19008369978623924,-1.3885140736568768,72.10000000003492
312315.0847,-1.9831192730700435,-1.9864009814056038,-1.7197365510177698,-2.19777943790446,72.10100000002421
312315.0857,-3.8885913778473142,-2.811995639584044,-3.1326959199507276,-2.844633719108619,72.1020000000135
312315.0867,-5.514940968241629,-3.425832018524943,-4.347665092684532,-3.2613264418894246,72.1030000000028
312315.0877,-6.7839984474564545,-3.7757409689613977,-5.297040200746104,-3.3949414441954855,72.10399999999208
312315.0887,-7.640646393301551,-3.8287678781982324,-5.932552622394013,-3.2128908651946975,72.10500000003958
312315.0897,-8.056976380955081,-3.5745061690561024,-6.229162429481402,-2.7065828031615973,72.10600000002887
312315.0907,-8.03416776435909,-3.026358089006195,-6.186846324441836,-1.8928995192309606,72.10700000001816
312315.0917,-7.601929919449029,-2.22060392166387,-5.830127756806894,-0.8133368707078898,72.10800000000745
312315.0927,-6.815578268906169,-1.2133742409862307,-5.205415284147817,0.46911607381319026,72.10899999999674
312315.0937,-5.7510356930950755,-0.075823588354659,-4.376426298894367,1.875058098301064,72.11000000004424
312315.0947,-4.4982431812063055,1.1120220543585346,-3.4181562821450493,3.3152280623021095,72.11100000003353
312315.0957,-3.1536081562294163,2.2681444926455696,-2.4099908584531633,4.697896952055435,72.11200000002282
312315.0967,-1.8122018814712169,3.3154719480711634,-1.4286357505529559,5.936389136498421,72.11300000001211
312315.0977,-0.5604308539371213,4.188207939275078,-0.5415507692429017,6.956013192528155,72.1140000000014
312315.0987,0.5301499254024232,4.836945474629744,0.19848268612372802,7.699744737762737,72.11499999999069
312315.0997,1.4073355474506921,5.232085468120988,0.7571497272837125,8.13213064318505,72.11600000003818
312315.1007,2.0407094094970892,5.365249484001883,1.1204034278549309,8.241063149150449,72.11700000002747
312315.1017,2.4218578109124214,5.248578468885975,1.29413926986077,8.037285964296576,72.11800000001676
312315.1027,2.562420908628348,4.91202105162401,1.3018173066301446,7.551721165904744,72.11900000000605
312315.1037,2.4902552749410036,4.398916252857947,1.1803136592191619,6.830923105884928,72.11999999999534
312315.1047,2.2441692777098807,3.760346054466307,0.9744611319837727,5.931151934436294,72.12100000004284
312315.1057,1.8678307903860907,3.04885625021007,0.7308704625577569,4.911696209063572,72.12200000003213
312315.1067,1.4035236801680109,2.312207036888265,0.49169588404829584,3.828147674230743,72.12300000002142
312315.1077,0.8864375563734169,1.587811521633908,0.2890140222508519,2.7263342382095117,72.12400000001071
312315.1087,0.34011367004128273,0.8984508735017398,0.14042302379346924,1.637548992369279,72.125
312315.1097,-0.2264551627214675,0.24972593667419432,0.04634522591528859,0.5755804167200578,72.12599999998929
312315.1107,-0.8197486831937826,-0.37047065535252605,-0.01065626550936425,-0.46413529211234045,72.12700000003679
312315.1117,-1.4605547130347305,-0.9903832049707149,-0.06444201960739007,-1.5031363918173541,72.12800000002608
312315.1127,-2.1808251336577373,-1.6508585888140803,-0.16185407169186491,-2.576458271064237,72.12900000001537
312315.1137,-3.0188732806841454,-2.40018772078171,-0.35758736422447673,-3.727401075283397,72.13000000000466
312315.1147,-4.013414503923753,-3.2878325260474393,-0.7078730184274565,-5.00107241863911,72.13099999999395
312315.1157,-5.197083014805999,-4.3576697203507555,-1.2636015901153244,-6.437369605518986,72.13200000004144
312315.1167,-6.590126600075924,-5.641442776102519,-2.063583344228053,-8.06413497321809,72.13300000003073
312315.1177,-8.194978986111794,-7.1531056458554385,-3.128643113610351,-9.891214703968792,72.13400000002002
