TimeStamp,ECR,FCR,ECU,FCU,time_index
312268.9837,7.248257327384819,-1.7598088661592288,11.247876770946098,-2.003664723355962,26.0
312268.9847,9.223151390964968,-1.5164352793785223,12.361849331850415,-0.34777974027244557,26.00099999998929
312268.9857,10.48971236674965,-1.4641698353700094,12.845909439779925,0.3848458100524734,26.002000000036787
312268.9867,10.904837883617214,-1.7420116652429958,12.57843821484992,-0.018089656854697142,26.003000000026077
312268.9877,10.371349047221646,-2.4592955777034193,11.478120957407507,-1.700793554769972,26.004000000015367
312268.9887,8.845770150087686,-3.6873280966652966,9.511004945941561,-4.728324007733731,26.005000000004657
312268.9897,6.342392109833157,-5.454107014823377,6.694246563258797,-9.080634334314865,26.005999999993946
312268.9907,2.9333377899953446,-7.7424467665186825,3.0962856607127263,-14.652095978930223,26.007000000041444
312268.9917,-1.255334276789969,-10.491549045880678,-1.1665290793187444,-21.25648511018516,26.008000000030734
312268.9927,-6.051140504994234,-13.601779717689848,-5.936560950685716,-28.63703144431715,26.009000000020023
312268.9937,-11.245673480329852,-16.942163163131816,-11.024200972089748,-36.48077835020254,26.010000000009313
312268.9947,-16.607251033377633,-20.359904611114203,-16.21913034612632,-44.43621752278858,26.010999999998603
312268.9957,-21.894726499766684,-23.691115617878147,-21.302651516670323,-52.13296026711386,26.0120000000461
312268.9967,-26.8714153887594,-26.771857300785076,-26.06015637865374,-59.202104129065596,26.01300000003539
312268.9977,-31.318124178657712,-29.448632871340088,-30.292825827031788,-65.295953347639,26.01400000002468
312268.9987,-35.044380942547335,-31.58755110704851,-33.827754794343015,-70.10585098539187,26.01500000001397
312268.9997,-37.89715254072332,-33.081534904086645,-36.525860118186664,-73.37706823497791,26.01600000000326
312269.0007,-39.7665707254678,-33.855147976019694,-38.28713860137319,-74.91995411637092,26.01699999999255
312269.0017,-40.588457004668044,-33.86683849467425,-39.05307939698136,-74.61685331182919,26.018000000040047
312269.0027,-40.3437087737874,-33.10862966760957,-38.80627651853571,-72.42462500270332,26.019000000029337
312269.0037,-39.05486259269318,-31.60350284946684,-37.567512253805795,-68.37291437128668,26.020000000018626
312269.0047,-36.78036261078663,-29.400899929025055,-35.39077118064963,-62.558615634975666,26.021000000007916
312269.0057,-33.607215564219715,-26.570903425983108,-32.356781905815154,-55.13719953827201,26.021999999997206
312269.0067,-29.642796999183798,-23.197725114488406,-28.565759374601125,-46.311743046419366,26.023000000044703
312269.0077,-25.006581831271028,-19.373143107373195,-24.130030474998332,-36.320585142333705,26.024000000033993
312269.0087,-19.822508601738217,-15.19047532777063,-19.167171799142395,-25.42453798359934,26.025000000023283
312269.0097,-14.212560138616608,-10.739572031893928,-13.794178857530216,-13.894512306738061,26.026000000012573
312269.0107,-8.29196876420015,-6.103164225747726,-8.123033815556477,-2.0002814594524816,26.027000000001863
312269.0117,-2.166250829586814,-1.3547346331649242,-2.257860654962434,9.99907340026927,26.027999999991152
312269.0127,4.069935473623962,3.4420986245576506,3.706328729635376,21.862703317276086,26.02900000003865
312269.0137,10.332311947049194,8.232860160973832,9.683467729673152,33.37339746807921,26.03000000002794
312269.0147,16.545248255479848,12.97046823290781,15.595162628729218,44.34093449719612,26.03100000001723
312269.0157,22.639256691826706,17.61286443508435,21.36873186540921,54.60362380994673,26.03200000000652
312269.0167,28.548249897058238,22.120473219765298,26.935024360382467,64.02839895333611,26.03299999999581
312269.0177,34.20708954004089,26.453933995815426,32.226478764937994,72.50988725685504,26.034000000043306
312269.0187,39.54988526025998,30.572489262471436,37.17582632866985,79.9688846329781,26.035000000032596
312269.0197,44.509382700735955,34.43330952014258,41.71573497146533,86.35061634719857,26.036000000021886
312269.0207,49.017621383462725,37.991901654642675,45.77955346998795,91.62307373666535,26.037000000011176
312269.0217,53.00786548741457,41.20359739998864,49.30315824903861,95.77559769391367,26.038000000000466
312269.0227,56.41763319478059,44.025969247429984,52.227748695604085,98.81774929590617,26.038999999989755
312269.0237,59.19249295786131,46.42188953853135,54.50329772236321,100.77838402148501,26.040000000037253
312269.0247,61.29017541216406,48.36284932540896,56.09225815139269,101.7047450686628,26.041000000026543
312269.0257,62.68448132698401,49.83209833267572,56.97306451290857,101.66132677437419,26.042000000015832
312269.0267,63.368457137908706,50.82716280454237,57.14296142808571,100.72823990583773,26.043000000005122
312269.0277,63.35636216528292,51.36134558307249,56.61973568535308,98.9988399426364,26.043999999994412
312269.0287,62.684061002009,51.463908289113675,55.44202547403697,96.57645478300982,26.04500000004191
312269.0297,61.40763008755801,51.1787696219975,53.668017658284874,93.5701612949156,26.0460000000312
312269.0307,59.60015347081422,50.56171292646432,51.37250862848667,90.08969769582113,26.04700000002049
312269.0317,57.346880021243585,49.67626372926466,48.642479222159395,86.2397443804368,26.04800000000978
312269.0327,54.73910213606885,48.58855609088331,45.57150111845299,82.11394139431442,26.04899999999907
312269.0337,51.86727410908505,47.361638071882936,42.25343308332121,77.78911851072391,26.050000000046566
312269.0347,48.8139991788068,46.049756448374595,38.77596485617258,73.32027839966487,26.051000000035856
312269.0357,45.64756470383844,44.69319802900344,35.21461260664703,68.73688340321213,26.052000000025146
312269.0367,42.41668762092957,43.314243672391434,31.627756196629868,64.04094617803365,26.053000000014435
312269.0377,39.147046731812026,41.91471137959977,28.053234324971626,59.2073144876569,26.054000000003725
312269.0387,35.840030745013394,40.4754326248532,24.50688448200045,54.18637777569303,26.054999999993015
312269.0397,32.47393408344181,38.95783288164386,20.983241648073285,48.909220869848085,26.056000000040513
312269.0407,29.007604241274034,37.30758905950735,17.458408665467594,43.29502614600288,26.057000000029802
312269.0417,25.386306502652623,35.46013220551481,13.89490122455228,37.260300788357,26.058000000019092
312269.0427,21.549347204275673,33.347573385127156,10.24807183611297,30.72930262068393,26.059000000008382
312269.0437,17.4388077834907,30.90647333171055,6.473549798300734,23.644877499592077,26.05999999999767
312269.0447,13.008608004670164,28.08576866613467,2.5350152176110434,15.978821395284573,26.06100000004517
312269.0457,8.233052499451881,24.85412121881187,-1.5884324982902405,7.740853907889001,26.06200000003446
312269.0467,3.1140281894915147,21.205978517178142,-5.896040355095625,-1.014656536588845,26.06300000002375
312269.0477,-2.3138879128364658,17.1657226972332,-10.360950151207735,-10.184943104767978,26.06400000001304
312269.0487,-7.980987296952089,12.789435311492644,-14.928034316196618,-19.61859077782039,26.06500000000233
312269.0497,-13.783009821445402,8.164004115949648,-19.514328972143048,-29.119051970556757,26.065999999991618
312269.0507,-19.5848391022797,3.403527453426642,-24.012144794449167,-38.45189979543748,26.067000000039116
312269.0517,-25.22713168590848,-1.356788405405204,-28.29469368223005,-47.35548765432635,26.068000000028405
312269.0527,-30.53543216413509,-5.9688156707004145,-32.223835714055866,-55.55439619992022,26.069000000017695
312269.0537,-35.33109483204717,-10.28115702577572,-35.65934829403646,-62.774802378391975,26.070000000006985
312269.0547,-39.443157284018106,-14.149501663243829,-38.468967143385896,-68.76072253910796,26.070999999996275
312269.0557,-42.720209318013886,-17.446845811530064,-40.53836177326147,-73.28997959337015,26.072000000043772
312269.0567,-45.04128190848492,-20.072733471222023,-41.78019527606862,-76.18873322476043,26.073000000033062
312269.0577,-46.32484842291898,-21.960742834366968,-42.141481841464284,-77.3434946567637,26.07400000002235
312269.0587,-46.53517837277659,-23.083582397209856,-41.60859036275948,-76.7097177630857,26.07500000001164
312269.0597,-45.68549998793673,-23.45535600727253,-40.20943714623398,-74.31630292617375,26.07600000000093
312269.0607,-43.837692628601964,-23.130790637010673,-38.01264769002711,-70.26564899880191,26.07699999999022
312269.0617,-41.09851977399943,-22.201473517961944,-35.1237253116277,-64.72921719381166,26.07800000003772
312269.0627,-37.612701974766935,-20.78939369133429,-31.678519573279672,-57.938901347978344,26.07900000002701
312269.0637,-33.55339074835091,-19.038304788163845,-27.834516666513593,-50.17480432614527,26.080000000016298
312269.0647,-29.11081551005006,-17.103601264267418,-23.760656270855517,-41.75027530460057,26.081000000005588
312269.0657,-24.480017605339036,-15.141514117128205,-19.626498421446684,-32.995246905440595,26.081999999994878
312269.0667,-19.84864619203163,-13.29847487144535,-15.591609130942627,-24.239010702530646,26.083000000042375
312269.0677,-15.385765590459338,-11.701465584130375,-11.796001427010676,-15.793578160169584,26.084000000031665
312269.0687,-11.232516252936088,-10.450071905587384,-8.3523628904332,-7.938693332032226,26.085000000020955
312269.0697,-7.495292775852593,-9.610796351890714,-5.340632382131889,-0.9094031085815594,26.086000000010245
312269.0707,-4.241869931213089,-9.21398569649545,-2.805273881384527,5.113133389487713,26.086999999999534
312269.0717,-1.5006437927667122,-9.253499278009793,-0.7553548043777775,10.007181332189639,26.087999999988824
312269.0727,0.7371155241614828,-9.68901529272727,0.8327074899139307,13.712182682601796,26.08900000003632
312269.0737,2.5123552660720323,-10.450660720738432,2.0100915120648843,16.22687336693882,26.09000000002561
312269.0747,3.8912426581664445,-11.445476012438265,2.8487547736185697,17.60416298430641,26.0910000000149
312269.0757,4.95679785735532,-12.565102560404014,3.4335279529669287,17.943375392383963,26.09200000000419
312269.0767,5.799956915814074,-13.694018461922518,3.853856354267404,17.380586352351255,26.09299999999348
312269.0777,6.510868355692211,-14.717649208551503,4.19591746122154,16.077862193250404,26.094000000040978
312269.0787,7.171156590554184,-15.52974158131385,4.535768895863293,14.212200537949753,26.095000000030268
312269.0797,7.847750176149716,-16.038502333410005,4.93404888953752,11.964906430095494,26.096000000019558
312269.0807,8.588688129850718,-16.171154692110466,5.432576094450172,9.512016242195628,26.097000000008848
312269.0817,9.421103075325888,-15.876738605222007,6.052995612516373,7.016223251851355,26.097999999998137
312269.0827,10.351357814023665,-15.127156855935162,6.797413782947766,4.620580894639752,26.099000000045635
312269.0837,11.367104257217767,-13.916630943439136,7.650775698894125,2.44408109076083,26.100000000034925
312269.0847,12.440860533593332,-12.259862412913561,8.584584649761632,0.5790429776146578,26.101000000024214
312269.0857,13.534579541747808,-10.189285218622583,9.561455901445889,-0.9098838789851453,26.102000000013504
312269.0867,14.604620726753346,-7.751835578131928,10.539947464970705,-1.9853882004410797,26.103000000002794
312269.0877,15.606540437317921,-5.005655839654941,11.479120852646219,-2.6361688179031235,26.103999999992084
312269.0887,16.499182136803245,-2.0170917599097624,12.342352231710127,-2.874940206657589,26.10500000003958
312269.0897,17.24766693140402,1.1417531824698486,13.100030089174755,-2.736061720101389,26.10600000002887
312269.0907,17.82504296541197,4.394764740829736,13.73092599825714,-2.2730092995373044,26.10700000001816
312269.0917,18.212531072495935,7.662857414439463,14.222193481702568,-1.5558190129149452,26.10800000000745
312269.0927,18.398483656332367,10.864425772742996,14.568117872199354,-0.6685379907568288,26.10899999999674
312269.0937,18.376334312012887,13.915434369355205,14.76788934992517,0.2933660829492492,26.110000000044238
312269.0947,18.14193966224976,16.729447063698892,14.822786021124982,1.2257487192915937,26.111000000033528
312269.0957,17.690788815873915,19.21792779776615,14.733221805897616,2.018829815011785,26.112000000022817
312269.0967,17.015571777477852,21.291128763301167,14.496127883685167,2.560673282221079,26.113000000012107
312269.0977,16.104554365327264,22.859819249009163,14.10309513621193,2.7412068237204967,26.114000000001397
312269.0987,14.94110852775324,23.838005427248977,13.539612990214806,2.4568123900437273,26.114999999990687
312269.0997,13.504604161342739,24.14665884221896,12.785607312436529,1.6154232430124003,26.116000000038184
312269.1007,11.772697248129427,23.71832398276371,11.817320976215868,0.14195724206056864,26.117000000027474
312269.1017,9.724868164978316,22.50232979689951,10.610412734533465,-2.0161883066269275,26.118000000016764
312269.1027,7.3468934134639845,20.47020343018475,9.143991513149873,-4.883942995175303,26.119000000006054
312269.1037,4.635792911070181,17.620792450220378,7.4051717394345005,-8.45409260638558,26.119999999995343
312269.1047,1.6046995937225426,13.98455673571164,5.393645703716086,-12.683972833677798,26.12100000004284
312269.1057,-1.712940009260644,9.626500808418793,3.1257317964232585,-17.493743192555822,26.12200000003213
312269.1067,-5.260400635716879,4.647283849426338,0.6373779705380113,-22.766584355272414,26.12300000002142
312269.1077,-8.956427821334247,-0.8178357790074261,-2.014322815315117,-28.351046510121687,26.12400000001071
312269.1087,-12.696039158396408,-6.602401401013399,-4.751420781383193,-34.065626166565124,26.125
312269.1097,-16.35353017269797,-12.514491420370781,-7.477350812812119,-39.70547670047892,26.12599999998929
312269.1107,-19.787629070351965,-18.344567834382,-10.081088712911951,-45.050979318114436,26.127000000036787
312269.1117,-22.848531811735768,-23.875025578110886,-12.44299174329232,-49.877732828518965,26.128000000026077
312269.1127,-25.386353136414307,-28.890858457642853,-14.441916505844652,-53.967379185365694,26.129000000015367
312269.1137,-27.26037013527227,-33.1907316228389,-15.963064242097262,-57.118581817172625,26.130000000004657
312269.1147,-28.348329357129167,-36.597682283360975,-16.905909132702796,-59.15742657258161,26.130999999993946
312269.1157,-28.555047969615043,-38.96866794770056,-17.191529668590114,-59.94652740213345,26.132000000041444
312269.1167,-27.81956980010738,-40.202247084968484,-16.76869154435483,-59.39219212788524,26.133000000030734
312269.1177,-26.120237073520332,-40.24380664148772,-15.61812156450683,-57.44913367878032,26.134000000020023
312269.1187,-23.477200533374788,-39.08793408986971,-13.754558417578284,-54.1223894715901,26.135000000009313
312269.1197,-19.95210049786613,-36.77775324378363,-11.226355033390584,-49.46632199241338,26.135999999998603
312269.1207,-15.64489053195307,-33.40128369340599,-8.112621425086326,-43.580799357706645,26.1370000000461
312269.1217,-10.688021939444443,-29.085122067176435,-4.518116503486099,-36.60487599221306,26.13800000003539
312269.1227,-5.2384382267045755,-23.985957946029313,-0.5663015313433521,-28.708490633854804,26.13900000002468
312269.1237,0.5319778218536675,-18.2806085832543,3.608863029681643,-20.082853417009414,26.14000000001397
312269.1247,6.446724464093854,-12.155368820014791,7.871678182988842,-10.930291021378576,26.14100000000326
312269.1257,12.334921126156965,-5.795515246783031,12.093271812841614,-1.4543490296043013,26.14199999999255
312269.1267,18.040630063129885,0.6242273739563243,16.15923210338664,8.14908997176542,26.143000000040047
312269.1277,23.430507433410263,6.94755142951616,19.975657262472158,17.69902246428247,26.144000000029337
312269.1287,28.399187216672054,13.04222119632593,23.473116642031066,27.03439105582602,26.145000000018626
312269.1297,32.87201220943708,18.803184854926094,26.608213528644598,36.01672960037813,26.146000000007916
312269.1307,36.80497282485371,24.15304884079332,29.36266528155603,44.530347696672095,26.146999999997206
312269.1317,40.18197347650374,29.04006178610394,31.740050852884675,52.48025225048201,26.148000000044703
312269.1327,43.009793474794115,33.433980050879235,33.7605967219434,59.7882200561371,26.149000000033993
312269.1337,45.31132118042675,37.3203734111151,35.454558727124045,66.38761108705008,26.150000000023283
312269.1347,47.11779653234583,40.69406083484311,36.854891206123185,72.21763070072741,26.151000000012573
312269.1357,48.460883162958545,43.55243069448302,37.989963255301234,77.21779894013639,26.152000000001863
312269.1367,49.365399010800616,45.88939186514817,38.87707804520389,81.32336166577467,26.152999999991152
312269.1377,49.84346301137058,47.69062340124473,39.51747515571284,84.4622833819251,26.15400000003865
312269.1387,49.89067199784954,48.93064895482096,39.89335489713631,86.55430400266641,26.15500000002794
312269.1397,49.48472013017319,49.57207169070577,39.967270845493495,87.51233595313145,26.15600000001723
312269.1407,48.58663225022554,49.567084500290136,39.68401053122539,87.24624289798427,26.15700000000652
312269.1417,47.144525423848634,48.861139833243186,38.97484570970026,85.66879869999808,26.15799999999581
312269.1427,45.099563901480046,47.39844516065979,37.76380532080588,82.70339729013641,26.159000000043306
312269.1437,42.39355524839516,45.12876432225588,35.97542746784769,78.29289196896275,26.160000000032596
312269.1447,38.97746980530147,42.0148689445729,33.543299794859045,72.40880398575378,26.161000000021886
312269.1457,34.82006728708587,38.03991011826395,30.4186140265601,65.06006792866454,26.162000000011176
312269.1467,29.915792152964737,33.213975079366776,26.57794766632716,56.300482380781034,26.163000000000466
312269.1477,24.291155126533383,27.579156807563106,22.029544783122812,46.23410873425305,26.163999999989755
312269.1487,18.008946340741467,21.21258990430983,16.817492645490066,35.01800270041434,26.165000000037253
312269.1497,11.16981373089699,14.227081771498813,11.023369800363778,22.861859612364526,26.166000000026543
312269.1507,3.910970676517972,6.769177330966402,4.765157269731455,10.024388947819268,26.167000000015832
312269.1517,-3.5979521213842216,-0.9852813166418589,-1.8065622074225862,-3.1935147988998502,26.168000000005122
312269.1527,-11.161647297584844,-8.837822531744807,-8.514862949976088,-16.458490488166575,26.168999999994412
312269.1537,-18.567978141292787,-16.575772623448767,-15.164735185791688,-29.416781875482584,26.17000000004191
312269.1547,-25.59826986594765,-23.981829871877434,-21.552725203236207,-41.70794885773023,26.1710000000312
312269.1557,-32.03826675162467,-30.844082559745072,-27.477234233780635,-52.979386319314905,26.17200000002049
312269.1567,-37.68893285740795,-36.965743237631635,-32.74871507788106,-62.9007675842921,26.17300000000978
312269.1577,-42.37630375043447,-42.17391131921361,-37.19903451889062,-71.1775491540501,26.17399999999907
312269.1587,-45.959696208714476,-46.32677605703068,-40.68936176291665,-77.56276010085445,26.175000000046566
312269.1597,-48.337741356879064,-49.31882130295161,-43.11608834229242,-81.86644375003301,26.176000000035856
312269.1607,-49.45190797581796,-51.083776983174204,-44.41446817148591,-83.96230677053848,26.177000000025146
312269.1617,-49.28740676835586,-51.5952616803231,-44.55986950549723,-83.79134370315136,26.178000000014435
312269.1627,-47.87159132690956,-50.86525669171072,-43.56673371166407,-81.36242378053205,26.179000000003725
312269.1637,-45.27017593660483,-48.94072573371518,-41.485519786141744,-76.75003229989473,26.179999999993015
312269.1647,-41.58175510205173,-45.89882996515924,-38.398061527356404,-70.08953346055523,26.181000000040513
312269.1657,-36.93122004101734,-41.841273213731725,-34.41186328257451,-61.57045172789569,26.182000000029802
312269.1667,-31.462714274737593,-36.888340478453415,-29.653902443571408,-51.42834548472801,26.183000000019092
312269.1677,-25.332751322008868,-31.173163077660902,-24.264490470735296,-39.9358665480422,26.184000000008382
312269.1687,-18.704036530906567,-24.836661207872822,-18.391673204957844,-27.393564306661805,26.18499999999767
312269.1697,-11.740402611369875,-18.02348944010554,-12.186535055858979,-14.1209112926257,26.18600000004517
312269.1707,-4.603099887614794,-10.87915723328125,-5.799624196967034,-0.4479098237727729,26.18700000003446
312269.1717,2.5515034618751034,-3.5483319572332954,0.6214460700774589,13.2924981129999,26.18800000002375
312269.1727,9.572938517313618,3.8258258658723983,6.933323162907747,26.771136923293554,26.18900000001304
312269.1737,16.316657146994615,11.101579383568113,12.99740952358332,39.668467665899755,26.19000000000233
312269.1747,22.643464728321916,18.138164452956218,18.67986900045765,51.67977325539809,26.190999999991618
312269.1757,28.418837755658593,24.795398570674074,23.85154490848564,62.519874281831385,26.192000000039116
312269.1767,33.51260700369775,30.933771385802917,28.388193058438638,71.92761194254653,26.193000000028405
312269.1777,37.799433126930076,36.4153794599809,32.17138409863155,79.67030981084915,26.194000000017695
312269.1787,41.16039263157596,41.10596184828862,35.090333167806754,85.54835955963975,26.195000000006985
312269.1797,43.48583952782815,44.87815085789344,37.04478139979185,89.39997592927547,26.195999999996275
312269.1807,44.6795278594681,47.61588881428395,37.94889755651177,91.10604577799732,26.197000000043772
312269.1817,44.66379203900791,49.21979407217198,37.73600590446534,90.59487027169739,26.198000000033062
312269.1827,43.38540600891539,49.61310583067916,36.36379622046302,87.84648454092748,26.19900000002235
312269.1837,40.82159835753173,48.74771448760718,33.81955048483729,82.8961511863401,26.20000000001164
312269.1847,36.98560543612912,46.609706492266476,30.124842791793114,75.83657620707177,26.20100000000093
312269.1857,31.931110449747816,43.223829935047185,25.339144622256047,66.81839773328667,26.20199999999022
312269.1867,25.754949727309327,38.656324191848434,19.561802072762063,56.048553804209234,26.20300000003772
312269.1877,18.597567571270268,33.01565274119613,12.931944325002107,43.78624409372672,26.20400000002701
312269.1887,10.640861153365266,26.45082586542931,5.626027134938858,30.336354910000516,26.205000000016298
312269.1897,2.103263580116342,19.147187113608872,-2.1471003802741513,16.040404661842786,26.206000000005588
312269.1907,-6.767851803000232,11.319747697401818,-10.153509014119138,1.2652717425368643,26.206999999994878
312269.1917,-15.70612121437965,3.20436724091569,-18.14357294971167,-13.609830826539206,26.208000000042375
312269.1927,-24.437944426706647,-4.952722595804092,-25.862915683815167,-28.20748974258221,26.209000000031665
312269.1937,-32.69530615626786,-12.906392280410277,-33.064247364211255,-42.16655206445363,26.210000000020955
312269.1947,-40.22879862323845,-20.424315771406228,-39.51931054432622,-55.156048364559354,26.211000000010245
312269.1957,-46.81992113411698,-27.298080651292914,-45.030103014644595,-66.88770193893743,26.211999999999534
312269.1967,-52.29175381123992,-33.35291032276641,-49.438568321880474,-77.1262083744609,26.212999999988824
312269.1977,-56.51720345099248,-38.45529263197053,-52.634037093392756,-85.69660208695288,26.21400000003632
312269.1987,-59.42419284192742,-42.517963015850064,-54.55785901177542,-92.48822157293803,26.21500000002561
312269.1997,-60.997396675387904,-45.5018940318806,-55.20487375902134,-97.4550280113725,26.2160000000149
312269.2007,-61.27639764860218,-47.41517943512878,-54.621611910805285,-100.61230241149164,26.21700000000419
312269.2017,-60.35042174361985,-48.3089490645223,-52.901372525413414,-102.03002136777033,26.21799999999348
312269.2027,-58.35008644277175,-48.27068856869746,-50.17657036290292,-101.82346619220637,26.219000000040978
312269.2037,-55.436834916606045,-47.41554402385109,-46.60896014186288,-100.14183152317581,26.220000000030268
312269.2047,-51.790911099741464,-45.87634708014062,-42.37850848704895,-97.15574775079806,26.221000000019558
312269.2057,-47.59883828493343,-43.793187248867284,-37.671781268828184,-93.04470255236448,26.222000000008848
312269.2067,-43.041387429584475,-41.30337604867153,-32.67073593558279,-87.98533330281273,26.222999999998137
312269.2077,-38.282958599771966,-38.53259145379147,-27.542753194085922,-82.14146475004453,26.224000000045635
312269.2087,-33.463155769968516,-35.587865869859165,-22.432615212629806,-75.65659364634807,26.225000000034925
312269.2097,-28.691125010978528,-32.55289861961034,-17.45695038557848,-68.64928968075378,26.226000000024214
312269.2107,-24.042968695849268,-29.48595193644204,-12.701435231548492,-61.211711426400015,26.227000000013504
312269.2117,-19.56226790747217,-26.42034873973716,-8.220793784794397,-53.411152105280856,26.228000000002794
312269.2127,-15.263467992619024,-23.367353690477003,-4.04138733015764,-45.29425899936363,26.228999999992084
312269.2137,-11.137633953685746,-20.321008361385477,-0.16596555297742469,-36.89333718717016,26.23000000003958
312269.2147,-7.159885903426494,-17.264326269949695,3.420025519386517,-28.23397409617334,26.23100000002887
312269.2157,-3.2976977481638086,-14.176148883522774,6.741297319135193,-19.34312149460651,26.23200000001816
312269.2167,0.48080463841588533,-11.037928344105639,9.825495411207653,-10.256754146068532,26.23300000000745
312269.2177,4.199373347385535,-7.8397385475320585,12.696628957458843,-1.0262896371167987,26.23399999999674
312269.2187,7.867710059811882,-4.58491834042968,15.369782611833024,8.276905754884943,26.235000000044238
312269.2197,11.477613714512719,-1.292907576372921,17.84758252772153,17.559399453823914,26.236000000033528
312269.2207,15.001512863811287,1.9999679410066997,20.11868934639074,26.706196273494495,26.237000000022817
312269.2217,18.39344214617665,5.241792957892244,22.158371877742407,35.58383821365668,26.238000000012107
312269.2227,21.592274401393244,8.368260362111723,23.930997779016526,44.04582457127098,26.239000000001397
312269.2237,24.526797596813562,11.307402343531392,25.394083356077356,51.93985694385137,26.239999999990687
312269.2247,27.122050197405965,13.985341709290894,26.5033923947537,59.1162449852328,26.241000000038184
312269.2257,29.306216181639183,16.33245865393307,27.218477884043264,65.43670571296883,26.242000000027474
312269.2267,31.017341360952997,18.28933927398748,27.508028977138544,70.78276003832043,26.243000000016764
312269.2277,32.20916842762497,19.811906781763536,27.35442033830302,75.06297617211689,26.244000000006054
312269.2287,32.85549417906667,20.87522984032762,26.756957296109267,78.2184247649288,26.244999999995343
312269.2297,32.95261671822105,21.475644165108523,25.733457068604718,80.22588280145386,26.24600000004284
312269.2307,32.51964558114211,21.630998434996986,24.319987965344897,81.09853500775785,26.24700000003213
312269.2317,31.596672369435208,21.37902556184229,22.568785879486324,80.88415207692047,26.24800000002142
312269.2327,30.241020603111412,20.774026252228015,20.544560219332357,79.66095222914572,26.24900000001071
312269.2337,28.521988849066243,19.88221507303946,18.319570074572027,77.53155509369712,26.25
312269.2347,26.514651271611978,18.776203972479617,15.967978916413692,74.61559599229717,26.25099999998929
312269.2357,24.293369904194748,17.529172579898404,13.560069869101547,71.04167027599645,26.252000000036787
312269.2367,21.925694639154976,16.209292003782593,11.156916484599977,66.93931306603592,26.253000000026077
312269.2377,19.46727862403632,14.874928481727725,8.806055128338505,62.431687726641655,26.254000000015367
312269.2387,16.958323950012474,13.571060159896803,6.53859991056855,57.62956139865467,26.255000000004657
312269.2397,14.421907192868934,12.327204813417465,4.368090606087075,52.62699872976084,26.255999999993946
312269.2407,11.864333716151886,11.156992967079143,2.2911837491925264,47.49902123375574,26.257000000041444
312269.2417,9.277454344112632,10.059346826193057,0.29010556750725225,42.30127847970711,26.258000000030734
312269.2427,6.642670130914548,9.021058798080016,-1.6633977971297642,37.07157892143051,26.259000000020023
312269.2437,3.9361717529636535,8.02042138353361,-3.603033547773652,31.83295235715452,26.260000000009313
312269.2447,1.134827863373451,7.031457406027009,-5.5623930084905915,26.597779901422783,26.260999999998603
312269.2457,-1.7779348512923974,6.028246373184634,-7.56943266553371,21.372443840438414,26.2620000000461
312269.2467,-4.806920705766821,4.988844516710969,-9.641596242347749,16.161926216021268,26.26300000003539
312269.2477,-7.941218774304389,3.898352326597885,-11.782105863964622,10.97382264783815,26.26400000002468
312269.2487,-11.151989430477304,2.7507881215397387,-13.977832968366704,5.821331711481701,26.26500000001397
312269.2497,-14.392274327919603,1.5495682699105198,-16.19899908834883,0.7249193880232672,26.26600000000326
312269.2507,-17.598910919585443,0.30655904949195306,-18.400768875136972,-4.287472663557422,26.26699999999255
312269.2517,-20.696411896156274,-0.9601656564701379,-20.5266014953047,-9.18162537973345,26.268000000040047
312269.2527,-23.60246034606201,-2.229570704966397,-22.513041517898472,-13.919424533175398,26.269000000029337
312269.2537,-26.23449438497197,-3.481494248947796,-24.29547538225049,-18.46205812935184,26.270000000018626
312269.2547,-28.51672882780099,-4.700573170559126,-25.81427046466475,-22.77355670184826,26.271000000007916
312269.2557,-30.386899668694436,-5.879734359150814,-27.02066222384356,-26.824155297156484,26.271999999997206
312269.2567,-31.80202693053693,-7.022757046873024,-27.88176691621618,-30.592967573697795,26.273000000044703
312269.2577,-32.742573043943196,-8.145497795596105,-28.38417273250192,-34.06953443439229,26.274000000033993
312269.2587,-33.214520368640045,-9.275504562726928,-28.535694440032138,-37.253935338188505,26.275000000023283
312269.2597,-33.24908927210402,-10.449916682172292,-28.365053518546773,-40.15531741756363,26.276000000012573
312269.2607,-32.90004850717499,-11.711736718449604,-27.919450531618303,-42.788888601589306,26.277000000001863
312269.2617,-32.23881011858912,-13.104748775484634,-27.260209224826006,-45.17161591628269,26.277999999991152
312269.2627,-31.347728009092243,-14.667526306101811,-26.45687159096304,-47.317047798861665,26.27900000003865
312269.2637,-30.31220979875779,-16.427102642273503,-25.58028980445233,-49.22981956664477,26.28000000002794
312269.2647,-29.21238611269574,-18.392954608843244,-24.695377313123355,-50.90048733430542,26.28100000001723
312269.2657,-28.115145522907877,-20.551963897843937,-23.85423493871501,-52.30135598304554,26.28200000000652
312269.2667,-27.067329340219562,-22.864968600845653,-23.09035199065505,-53.38391602424139,26.28299999999581
312269.2677,-26.090788160907536,-25.265401192870016,-22.414497267350622,-54.07838434794556,26.284000000043306
312269.2687,-25.17983908069791,-27.660338503655368,-21.812767350561742,-54.29566411621058,26.285000000032596
312269.2697,-24.3014434326141,-29.934078601148162,-21.247062987299316,-53.93181518167487,26.286000000021886
312269.2707,-23.39817015975227,-31.954128142016597,-20.65803684936659,-52.8748792196134,26.287000000011176
312269.2717,-22.39374368740209,-33.57925322225247,-19.97031914677454,-51.01365722434229,26.288000000000466
312269.2727,-21.20072308035221,-34.66903915463751,-19.09960428793485,-48.247815883813104,26.288999999989755
312269.2737,-19.729646001214416,-35.09424030391351,-17.96099388924579,-44.49852663672144,26.290000000037253
312269.2747,-17.898817695357128,-34.747096843799966,-16.477857655548718,-39.71873586216087,26.291000000026543
312269.2757,-15.643847493623399,-33.550762425047544,-14.590407665752783,-33.90213946316033,26.292000000015832
312269.2767,-12.926041531624625,-31.46703007689696,-12.263190649618627,-27.089995337839678,26.293000000005122
312269.2777,-9.738850832748167,-28.50166089982675,-9.490786952258663,-19.37504988833109,26.293999999994412
312269.2787,-6.111740700152007,-24.70680192148207,-6.301156772697666,-10.902068677071192,26.29500000004191
312269.2797,-2.1110751436648836,-20.180210325655793,-2.7562800050059524,-1.8647283153440857,26.2960000000312
312269.2807,2.1621225462977622,-15.061260748304498,1.0500236451272005,7.501077090581756,26.29700000002049
312269.2817,6.577390280685114,-9.523977165094546,4.9969553524655295,16.927163035211823,26.29800000000978
312269.2827,10.98261667809949,-3.767577066060349,8.943899540014455,26.12558991767623,26.29899999999907
312269.2837,15.213756330397311,1.9947792750255855,12.739303376860535,34.80295824030433,26.300000000046566
312269.2847,19.10565615738214,7.548196195370613,16.230537625643137,42.675463507337234,26.301000000035856
312269.2857,22.503082564082554,12.688295734258629,19.273920059889043,49.48364379384778,26.302000000025146
312269.2867,25.27102783798352,17.23261161457372,21.74407528308515,55.0057770702269,26.303000000014435
312269.2877,27.303447642765853,21.03030311992739,23.541873017620105,59.06899776812212,26.304000000003725
312269.2887,28.52973177895788,23.969520841736415,24.600323512046877,61.55739185731323,26.304999999993015
312269.2897,28.918422483655167,25.98196353755445,24.88799986134424,62.41657887427666,26.306000000040513
312269.2907,28.477947576322517,27.04440717735477,24.409783900931725,61.65457463359552,26.307000000029802
312269.2917,27.254405219956126,27.177241015281215,23.204972912546832,59.33902352085882,26.308000000019092
312269.2927,25.326697219365325,26.440287862859176,21.34301567934225,55.59116763744304,26.309000000008382
312269.2937,22.79953415349069,24.926394844559933,18.91734671777687,50.57715707578525,26.30999999999767
312269.2947,19.795007380456166,22.753438569051436,16.037938402921405,44.49748107395487,26.31100000004517
312269.2957,16.44352478049042,20.055481898725485,12.823278864786749,37.57539977954167,26.31200000003446
312269.2967,12.874930707950082,16.973841805572388,9.392501919818667,30.045274325765973,26.31300000002375
312269.2977,9.210575398557706,13.648779540662758,5.858343744712415,22.141630281178852,26.31400000001304
312269.2987,5.55697207513118,10.212412648615805,2.3214861370698796,14.089655304155063,26.31500000000233
312269.2997,2.001495164603313,6.783286301728074,-1.1333192402055274,6.097641662940485,26.315999999991618
312269.3007,-1.389650200422639,3.4628466573071788,-4.439149767392309,-1.648341192156621,26.317000000039116
312269.3017,-4.5711959327529055,0.3338518810478369,-7.5468491649238825,-8.987496068597752,26.318000000028405
312269.3027,-7.516554536133258,-2.539441709446514,-10.423220578288559,-15.785246512826694,26.319000000017695
312269.3037,-10.213975264420677,-5.109650439033727,-13.047865727311141,-21.93245182899174,26.320000000006985
312269.3047,-12.661696671788462,-7.34364739875116,-15.409186796687088,-27.343393917395257,26.320999999996275
312269.3057,-14.862760741798121,-9.21948385661042,-17.500135341732506,-31.95311393447988,26.322000000043772
312269.3067,-16.820162182971625,-10.723377158377875,-19.314295035387886,-35.714679017408635,26.323000000033062
312269.3077,-18.532941900475496,-11.847238244979865,-20.842823051838508,-38.59689311400651,26.32400000002235
312269.3087,-19.993703607443038,-12.587101931267256,-22.072655384159233,-40.58284051478609,26.32500000001164
312269.3097,-21.187851241994604,-12.942672250339434,-22.986217475462386,-41.66948136239416,26.32600000000093
312269.3107,-22.09463178296825,-12.918020788215676,-23.56269085956392,-41.86832511476219,26.32699999999022
312269.3117,-22.689845961422485,-12.5232978098769,-23.78068952221405,-41.20701301210365,26.32800000003772
312269.3127,-22.949881958220452,-11.7771543224506,-23.622017591896732,-39.73146651821518,26.32900000002701
312269.3137,-22.856556713910095,-10.70944656057824,-23.076032487097475,-37.50812573617703,26.330000000016298
312269.3147,-22.402134477246268,-9.363717613815007,-22.14404104972516,-34.62572588742552,26.331000000005588
312269.3157,-21.593845574783018,-7.798933750143604,-20.843121600143483,-31.196051068432382,26.331999999994878
312269.3167,-20.45725602664321,-6.089998884459305,-19.208797073551395,-27.353165611747933,26.333000000042375
312269.3177,-19.037938900518746,-4.326676401543546,-17.296081431026018,-23.2507500563393,26.334000000031665
312269.3187,-17.401062060044577,-2.6107035799934604,-15.178574707395212,-19.05734957258795,26.335000000020955
312269.3197,-15.628718505043059,-1.051075100563916,-12.945476845219371,-14.949560389612957,26.336000000010245
312269.3207,-13.815064033080608,0.24232053835964906,-10.696607907919304,-11.103412808762894,26.336999999999534
312269.3217,-12.059568647774496,1.1663256762989835,-8.535740794708483,-7.684434091203311,26.337999999988824
312269.3227,-10.458908461261743,1.6328374198226387,-6.562750108792307,-4.83706738296273,26.33900000003632
312269.3237,-9.09820094059045,1.5771388967425906,-4.865236905979281,-2.674262864867251,26.34000000002561
312269.3247,-8.042399327069072,0.9654765416165232,-3.5103868593893743,-1.2681280223059717,26.3410000000149
312269.3257,-7.328698835132629,-0.19887682033213083,-2.5378474117965553,-0.6425150810280975,26.34200000000419
312269.3267,-6.960761897888269,-1.8717588752322802,-1.9543627345534698,-0.7683323325974637,26.34299999999348
312269.3277,-6.905444187202881,-3.966996705759769,-1.730785827075295,-1.5621971027867905,26.344000000040978
312269.3287,-7.092507079066555,-6.358367355739855,-1.801903926596602,-2.8888137700589813,26.345000000030268
312269.3297,-7.41755230397069,-8.884735652144093,-2.069281872500183,-4.567179239178912,26.346000000019558
312269.3307,-7.748132849507728,-11.358200021181826,-2.4070684341083064,-6.380414167582542,26.347000000008848
312269.3317,-7.932706372600477,-13.57481504861262,-2.6704462291168585,-8.088717313861519,26.347999999998137
312269.3327,-7.811830128841808,-15.327224284517916,-2.706161058193419,-9.444669256656468,26.349000000045635
312269.3337,-7.230775003732326,-16.418350223665595,-2.3643642644297493,-10.209894926602683,26.350000000034925
312269.3347,-6.052582045579652,-16.67516841825122,-1.5108615738213977,-10.171951988957652,26.351000000024214
312269.3357,-4.170513410987265,-15.961551443909151,-0.03879783051309551,-9.16025785385957,26.352000000013504
312269.3367,-1.5188687954303455,-14.189211099796914,2.121173699893426,-7.05990803486124,26.353000000002794
312269.3377,1.9187521645867123,-11.325891382464718,4.993086667667198,-3.8223704734510573,26.353999999992084
312269.3387,6.104470163202118,-7.400160624431877,8.550893980838739,0.5277461075904005,26.35500000003958
312269.3397,10.944901924159286,-2.502402367282871,12.717173068818877,5.8903743926665975,26.35600000002887
312269.3407,16.29386570736528,3.2181103909496787,17.365464668390167,12.092327711560584,26.35700000001816
312269.3417,21.958876677035782,9.55987850022314,22.326115939544252,18.89417074270324,26.35800000000745
312269.3427,27.710989893465843,16.27911997289006,27.395220185679513,26.001177604306655,26.35899999999674
312269.3437,33.297285207667066,23.10229703097175,32.34600280483815,33.07765440302567,26.360000000044238
312269.3447,38.45508667786329,29.74035159709619,36.94181750321856,39.763686170906205,26.361000000033528
312269.3457,42.92688637353567,35.903669027728654,40.94980397101613,45.69322884549302,26.362000000022817
312269.3467,46.47490817232911,41.31676655630582,44.154226961551615,50.51241439834337,26.363000000012107
312269.3477,48.89430265762277,45.73176114548717,46.36856817480633,53.896972338140586,26.364000000001397
312269.3487,50.024102452336535,48.93980384937042,47.44557001758559,55.56778677314753,26.364999999990687
312269.3497,49.75527375475367,50.779860424645975,47.28462078747421,55.30379129011527,26.366000000038184
312269.3507,48.03545400594731,51.144451776938595,45.836105219999816,52.95163500448099,26.367000000027474
312269.3517,44.87024318734348,49.98222067106521,43.10260020709438,48.431809803259235,26.368000000016764
312269.3527,40.32119144392522,47.297439741138334,39.137049069255156,41.74118746643949,26.369000000006054
312269.3537,34.50087381450467,43.14679817547208,34.03827623603258,32.95215360566935,26.369999999995343
312269.3547,27.565642440085785,37.63398172881935,27.94438784809727,22.208724024888234,26.37100000004284
312269.3557,19.706781609711463,30.90267905542339,21.0247277960264,9.72017391672124,26.37200000003213
312269.3567,11.140851933629907,23.128698969967807,13.471114337545798,-4.247206974667157,26.37300000002142
312269.3577,2.09999469841398,14.511866983325449,5.489067734701139,-19.37960116956405,26.37400000001071
312269.3587,-7.1771187089239,5.268290742951644,-2.7103408671966256,-35.32580037399391,26.375
312269.3597,-16.453152640213187,-4.37654588269914,-10.917523905078106,-51.70748959714054,26.37599999998929
312269.3607,-25.498435662011932,-14.193565483769916,-18.9299733241824,-68.12929861918424,26.377000000036787
312269.3617,-34.09560709339526,-23.954643461529184,-26.55628915044049,-84.18838073840739,26.378000000026077
312269.3627,-42.042643780036634,-33.43598282720892,-33.61870390751462,-99.48341700489486,26.379000000015367
312269.3637,-49.15451309665637,-42.42053734970327,-39.95433702889689,-113.62306383433433,26.380000000004657
312269.3647,-55.26384021895897,-50.69981901183086,-45.41554583243536,-126.23394879493846,26.380999999993946
312269.3657,-60.221063769096304,-58.0754907370993,-49.86982024932214,-136.9683636561561,26.382000000041444
312269.3667,-63.89457579976666,-64.36115283126243,-53.199689578690645,-145.51180105037167,26.383000000030734
312269.3677,-66.17129833061125,-69.38468122498695,-55.303069585296775,-151.59043272736344,26.384000000020023
312269.3687,-66.95804482332223,-72.99137325762028,-56.094382209275814,-154.9785404238268,26.385000000009313
312269.3697,-66.18386302208269,-75.04801385475581,-55.5066389080587,-155.5057967377694,26.385999999998603
312269.3707,-63.803372661362154,-75.44780743518207,-53.494507988599736,-153.0641685505599,26.3870000000461
312269.3717,-59.80091832811136,-74.11594752786401,-50.038205327557975,-147.6140967823517,26.38800000003539
312269.3727,-54.19517634871945,-71.01543667331985,-45.14787713551186,-139.18951083058323,26.38900000002468
312269.3737,-47.04370619155904,-66.15264249716694,-38.86800272247336,-127.90117915948123,26.39000000001397
312269.3747,-38.44683971183728,-59.58199769387166,-31.28125163422606,-113.93789069076999,26.39100000000326
312269.3757,-28.550268801165593,-51.40923323402201,-22.511195547890466,-97.56501133503832,26.39199999999255
312269.3767,-17.54573037351573,-41.79258072584119,-12.72330747919535,-79.12006675372955,26.393000000040047
312269.3777,-5.669296578776735,-30.941490288850996,-2.1237789415529873,-59.00516070135156,26.394000000029337
312269.3787,6.803050239151072,-19.112576716441247,9.04415740443549,-37.676236812291584,26.395000000018626
312269.3797,19.562658695201,-6.602715333365466,20.50650979903795,-15.629414493725559,26.396000000007916
312269.3807,32.27811892322594,6.26055871600964,31.967295205604223,6.61514256430457,26.396999999997206
312269.3817,44.607443917306064,19.130959483972852,43.11943990348805,28.531154537357732,26.398000000044703
312269.3827,56.21189150753468,31.657064963440238,53.65724385503055,49.60510315743416,26.399000000033993
312269.3837,66.77060919370102,43.49686200254475,63.28966387139913,69.35508899631333,26.400000000023283
312269.3847,75.99516014190121,54.3323318670359,71.75355319227192,87.34864265953782,26.401000000012573
312269.3857,83.64294252743876,63.88314440019078,78.82594949084393,103.21848354656689,26.402000000001863
312269.3867,89.52855291403164,71.91856347863549,84.3345360098764,116.67531574500963,26.402999999991152
312269.3877,93.532266271245,78.26677706098769,88.16551051633164,127.5169178615134,26.40400000003865
312269.3887,95.60500128310616,82.82104293506313,90.26827552825412,135.63301047214316,26.40500000002794
312269.3897,95.76939331411359,85.5422712204763,90.6565956012874,141.00565424745758,26.40600000001723
312269.3907,94.11688665680317,86.45792672073573,89.40613290494575,143.70522252203952,26.40700000000652
312269.3917,90.80105687352756,85.65740524471212,86.64854717642923,143.88228086663315,26.40799999999581
312269.3927,86.02765654498472,83.28429413935673,82.56260580901264,141.7559697935886,26.409000000043306
312269.3937,80.04211850357025,79.52614611874743,77.36297119893122,137.599703884367,26.410000000032596
312269.3947,73.11542858859283,74.60255831929058,71.2874961368862,131.72515418452926,26.411000000021886
312269.3957,65.52937999569814,68.75244204235932,64.58395011929063,124.46555903270213,26.412000000011176
312269.3967,57.56223561551807,62.221386145733206,57.49711288381818,116.15940650646127,26.413000000000466
312269.3977,49.47575354734151,55.24995892061349,50.257106504817436,107.1354512672412,26.413999999989755
312269.3987,41.50438224742772,48.06366690114449,43.06970147103382,97.69987835343159,26.415000000037253
312269.3997,33.84722049690514,40.86510787309504,36.10913912004094,88.1262208174762,26.416000000026543
312269.4007,26.66308394981654,33.828637563808115,29.513781362557197,78.64839587877907,26.417000000015832
312269.4017,20.068748271452257,27.097636182842187,23.38465061475728,69.45696699216701,26.418000000005122
312269.4027,14.14017376128066,20.78423405300015,17.786681063231114,60.69848913527941,26.418999999994412
312269.4037,8.916281620573308,14.971155681406234,12.752288440711643,52.4775726255831,26.42000000004191
312269.4047,4.404668011775583,9.715186245267512,8.286697854487965,44.86112467696962,26.4210000000312
312269.4057,0.588523859323178,5.0516663128932695,4.37436152728146,37.88411081404285,26.42200000002049
312269.4067,-2.5660155081241176,0.9993865177753395,0.9857582284959552,31.556127537143976,26.42300000000978
312269.4077,-5.1028349902492,-2.434715720863603,-1.9161052562727248,25.868094320834498,26.42399999999907
312269.4087,-7.069761274586255,-5.251566365577378,-4.370078558876245,20.79845190518479,26.425000000046566
312269.4097,-8.513925332725817,-7.457044671359093,-6.41258257661647,16.318384016633896,26.426000000035856
312269.4107,-9.478851787330703,-9.060358366351942,-8.074920219693817,12.395745734534868,26.427000000025146
312269.4117,-10.003344768033553,-10.073729630096357,-9.38225310130177,8.99756535727939,26.428000000014435
312269.4127,-10.122027845225947,-10.513244123701043,-10.354122669004258,6.091168370461846,26.429000000003725
312269.4137,-9.867209522575271,-10.40056703812707,-11.006226060212489,3.644133359625764,26.429999999993015
312269.4147,-9.271604195151841,-9.765122119193155,-11.353028718513636,1.623414483216534,26.431000000040513
312269.4157,-8.371355213996376,-8.646272724527718,-11.41071976480929,-0.00595832068863864,26.432000000029802
312269.4167,-7.208789340404089,-7.0950434724620814,-11.19999893500455,-1.2821683012425071,26.433000000019092
312269.4177,-5.834381134267176,-5.174976254468408,-10.748226047397536,-2.2474901908787603,26.434000000008382
312269.4187,-4.307515489202317,-2.9618187153729147,-10.090559746851381,-2.9484410589975236,26.43499999999767
312269.4197,-2.6957941293808734,-0.5418850015529046,-9.269850440057763,-3.4350092485771646,26.43600000004517
312269.4207,-1.0728199689933444,1.990908060230362,-8.33521726949157,-3.7589137219408375,26.43700000003446
312269.4217,0.4854088346468339,4.53915916858198,-7.339412305810562,-3.9710001579836005,26.43800000002375
312269.4227,1.9051772474716622,7.006932725350001,-6.335237647848653,-4.118023323993299,26.43900000001304
312269.4237,3.120332647077247,9.305098133715088,-5.371414713353142,-4.239180663834882,26.44000000000233
312269.4247,4.07758967796751,11.35654048710131,-4.488394589893467,-4.362835671228454,26.440999999991618
312269.4257,4.741243461931252,13.100704724203853,-3.7146333717892768,-4.503891806121675,26.442000000039116
312269.4267,5.096699993587714,14.496973315110653,-3.0638320934728225,-4.662244251244255,26.443000000028405
312269.4277,5.15232537498709,15.526471204432578,-2.53355855905738,-4.822649425455057,26.444000000017695
312269.4287,4.939267058098696,16.19203274219515,-2.1055355702764773,-4.956218461251084,26.445000000006985
312269.4297,4.50909614075155,16.516240324560783,-1.7477097048658063,-5.0235735950700136,26.445999999996275
312269.4307,3.9293408004515613,16.537636344113558,-1.4180239986198735,-4.979522376186018,26.447000000043772
312269.4317,3.2772049521037157,16.305399637933967,-1.0696262211613359,-4.778922899296052,26.448000000033062
312269.4327,2.631970175449253,15.872945558000634,-0.6570720154938311,-4.383253495218072,26.44900000002235
312269.4337,2.0667413713899148,15.29103744952489,-0.14294759044757435,-3.7672805296136644,26.45000000001164
312269.4347,1.6402996565438797,14.60107260597618,0.4957449131870841,-2.925152793316503,26.45100000000093
312269.4357,1.3898574139287359,13.8292185504528,1.2621146586573253,-1.8752500294660739,26.45199999999022
312269.4367,1.3254647680348957,12.982022613809866,2.1354484178132775,-0.663179886898042,26.45300000003772
312269.4377,1.4266961473516433,12.044002463198746,3.0693289956523535,0.6375512228224665,26.45400000002701
312269.4387,1.6420595757481355,10.977556874298578,3.992149891938718,1.927482061970235,26.455000000016298
312269.4397,1.8913360492847466,9.725329381747983,4.810160637194254,3.085819111710509,26.456000000005588
312269.4407,2.07079308789274,8.214931225586529,5.41294590344906,3.9775575646981807,26.456999999994878
312269.4417,2.0609497025467407,6.365705210353641,5.681010086594093,4.462680025513536,26.458000000042375
312269.4427,1.7363247757792655,4.097009917749296,5.494929606810624,4.406797875845182,26.459000000031665
312269.4437,0.9764007629534273,1.3373435747726512,4.74536799711342,3.6924332896206478,26.460000000020955
312269.4447,-0.3231006971125574,-1.966475483927668,3.343140593954494,2.2300374152406914,26.461000000010245
312269.4457,-2.23959144689634,-5.840888870804413,1.2284776504873867,-0.03218614555025354,26.461999999999534
312269.4467,-4.814569597304758,-10.278717266611313,-1.6213281253036869,-3.100528950280721,26.462999999988824
312269.4477,-8.046972152628665,-15.23448836770961,-5.186593280868294,-6.930840009907095,26.46400000003632
312269.4487,-11.889560383916663,-20.622473280827226,-9.402763612794526,-11.426945005588792,26.46500000002561
312269.4497,-16.24872548336342,-26.31771407260921,-14.161087361165448,-16.44271093364606,26.4660000000149
312269.4507,-20.987819674634686,-32.16008042358481,-19.312492403497735,-21.78775971312656,26.46700000000419
312269.4517,-25.933823700919415,-37.961142285944206,-24.67445645841118,-27.23654233839173,26.46799999999348
312269.4527,-30.886881713573167,-43.51341029265417,-30.040412974312897,-32.540211406977605,26.469000000040978
312269.4537,-35.63199402846069,-48.60129720942083,-35.19102629319338,-37.44049813556469,26.470000000030268
312269.4547,-39.951978433334716,-53.01300946695141,-39.90651631918245,-41.684630625621715,26.471000000019558
312269.4557,-43.64070762547463,-56.55250038465905,-43.97912876107064,-45.04023813631653,26.472000000008848
312269.4567,-46.51561287526575,-59.050612706751764,-47.2248393165247,-47.309179727670625,26.472999999998137
312269.4577,-48.428513319797105,-60.37460752320586,-49.49344931726307,-48.33931562731711,26.474000000045635
312269.4587,-49.27397970140572,-60.43541296042144,-50.67636986141676,-48.03339924317452,26.475000000034925
312269.4597,-48.994656955157524,-59.19211664549567,-50.71158852777568,-46.354493091212966,26.476000000024214
312269.4607,-47.583231945143424,-56.65345350399598,-49.585549471690726,-43.32758346164427,26.477000000013504
312269.4617,-45.08101686979198,-52.876284356003225,-47.33193262358547,-39.0373628254174,26.478000000002794
312269.4627,-41.57339953051078,-47.96129912272053,-44.02756789706163,-33.62244032946048,26.478999999992084
312269.4637,-37.182663436969115,-42.04639005223099,-39.78594340395961,-27.26650424253424,26.48000000003958
312269.4647,-32.058881154639145,-35.298306712747625,-34.748942984729204,-20.1871736512012,26.48100000002887
312269.4657,-26.369715947213724,-27.903311502328272,-29.077562740727956,-12.623422639828172,26.48200000001816
312269.4667,-20.290018850200916,-20.05759374652869,-22.942399515438474,-4.8225276121126095,26.48300000000745
312269.4677,-13.992077725381042,-11.958170275551964,-16.514674068572695,2.972526278448177,26.48399999999674
312269.4687,-7.637266416093178,-3.7949055163376446,-9.958452720843372,10.53433636667967,26.485000000044238
312269.4697,-1.3696680917652058,4.2558644416364215,-3.4245747719344233,17.660387744049302,26.486000000033528
312269.4707,4.68797436508938,12.035805690040101,2.953404330295609,24.17989818463748,26.487000000022817
312269.4717,10.4358738282407,19.407064914525233,9.061161889841053,29.957966000728252,26.488000000012107
312269.4727,15.796518733031627,26.25286149130829,14.803572992170986,34.897026855603194,26.489000000001397
312269.4737,20.712056886508773,32.476482410275004,20.103008927536152,38.93585052900201,26.489999999990687
312269.4747,25.140278396897614,37.99910930603904,24.896437656407244,42.04649552238169,26.491000000038184
312269.4757,29.049846141904766,42.75699401840687,29.131890291870874,44.22977245329871,26.492000000027474
312269.4767,32.415463489650406,46.698525754998656,32.764888525853,45.50983662578301,26.493000000016764
312269.4777,35.21363582935534,49.78169791920005,35.755392880452696,45.92853293056871,26.494000000006054
312269.4787,37.41958000155767,51.97239120693295,38.065735782917656,45.54005612344956,26.494999999995343
312269.4797,39.00567605041364,53.243752682915606,39.65985809219177,44.4063765958445,26.49600000004284
312269.4807,39.94165663027643,53.57678388058451,40.50398916771944,42.5937310612277,26.49700000003213
312269.4817,40.1965124654793,52.962073195230126,40.56871844831717,40.170307531306236,26.49800000002142
312269.4827,39.74188064182289,51.40243868480908,39.832221611474424,37.205084260252846,26.49900000001071
312269.4837,38.55649856624387,48.91610559462511,38.284246614002996,33.76763192272048,26.5
312269.4847,36.6311694786698,45.5399442788252,35.93035123815345,29.928573328340324,26.50099999998929
312269.4857,33.97360975669884,41.332249919322685,32.7958264929947,25.7603272138391,26.502000000036787
312269.4867,30.612541827066977,36.37456100652281,28.928745768576842,21.337748268739567,26.503000000026077
312269.4877,26.6004600159184,30.772088086013834,24.401647903593954,16.738314580505,26.504000000015367
312269.4887,22.014623636956042,24.65245068187441,19.311486694568192,12.041600126400215,26.505000000004657
312269.4897,16.956008991726783,18.162585938063494,13.777647401573633,7.327892477032747,26.505999999993946
312269.4907,11.546161484225063,11.463880480304331,7.938025467453957,2.6759591688750297,26.507000000041444
312269.4917,5.922109111949244,4.725767861057082,1.9433640681707105,-1.8398874161299488,26.508000000030734
312269.4927,0.22970638515771905,-1.8817922821943465,-4.04976551953588,-6.1531454088702136,26.509000000020023
312269.4937,-5.384048436483296,-8.19639906435715,-9.886802967752546,-10.208517808028807,26.510000000009313
312269.4947,-10.779058383780635,-14.071217480838502,-15.423215777793574,-13.964909115816976,26.510999999998603
312269.4957,-15.829814680189,-19.382239653979806,-20.53201005679012,-17.397584827090874,26.5120000000461
312269.4967,-20.432021244719323,-24.03417068820045,-25.110075848986174,-20.499106878463508,26.51300000003539
312269.4977,-24.50754025314112,-27.964411105026723,-29.082798036585505,-23.278762314359238,26.51400000002468
312269.4987,-28.00719366619269,-31.1447634873341,-32.40651217293644,-25.760348741550587,26.51500000001397
312269.4997,-30.911156467212972,-33.5806866252293,-35.06857728839049,-27.978354237741254,26.51600000000326
312269.5007,-33.22690807894844,-35.308137768886894,-37.085056452168885,-29.972753340582038,26.51699999999255
312269.5017,-34.98494631765482,-36.388261788846904,-38.49621956827405,-31.78281491530638,26.518000000040047
312269.5027,-36.23268955017545,-36.90038396334561,-39.36028961791487,-33.44046267682658,26.519000000029337
312269.5037,-37.027175053123436,-36.933921283791165,-39.74602277955907,-34.96382778334012,26.520000000018626
312269.5047,-37.4272861385018,-36.579929742490876,-39.724827411236866,-36.35167217825108,26.521000000007916
312269.5057,-37.48629413190298,-35.92304140916336,-39.36317476711249,-37.579333760243635,26.521999999997206
312269.5067,-37.245477404792055,-35.034510904290094,-38.71602994619284,-38.59674905643786,26.523000000044703
312269.5077,-36.72947963978975,-33.966988640554504,-37.82193638375256,-39.32895175826798,26.524000000033993
312269.5087,-35.94390221117337,-32.75147706710713,-36.70022963228311,-39.67923864264995,26.525000000023283
312269.5097,-34.87540665332826,-31.396721054866116,-35.350650908503674,-39.53495589647925,26.526000000012573
312269.5107,-33.49435363878798,-29.89105382901753,-33.75539742162185,-38.775610402136614,26.527000000001863
312269.5117,-31.759748941823116,-28.206487335666605,-31.883407318472997,-37.282775650468245,26.527999999991152
312269.5127,-29.626029666020713,-26.304622871994308,-29.696455411634776,-34.95106368174548,26.52900000003865
312269.5137,-27.051029114024892,-24.143784686511896,-27.156453384659994,-31.699293107956144,26.53000000002794
312269.5147,-24.00432568112536,-21.686662753638927,-24.233222882897724,-27.48091430128736,26.53100000001723
312269.5157,-20.475123755012266,-18.907702296406093,-20.91195428863623,-22.292765237671485,26.53200000000652
312269.5167,-16.478839191108836,-15.799501576325733,-17.199583779528012,-16.18132677068621,26.53299999999581
312269.5177,-12.061666925225673,-12.377573679261756,-13.12941487621015,-9.245818016713107,26.534000000043306
312269.5187,-7.302584259275824,-8.682983403171608,-8.763469313378392,-1.637707499210641,26.535000000032596
312269.5197,-2.312473956431246,-4.782571915931247,-4.192260626954989,6.443505920846875,26.536000000021886
312269.5207,2.7696851779932548,-0.7667102139251912,0.4680775551501467,14.758090442410602,26.537000000011176
312269.5217,7.783340973660686,3.255244305484071,5.0811306242296235,23.037013813245057,26.538000000000466
312269.5227,12.55513064228673,7.1613978784795265,9.497601714639963,30.9953084534636,26.538999999989755
312269.5237,16.909198121646696,10.825108527499522,13.56417003212534,38.3469625462915,26.540000000037253
312269.5247,20.678229924354834,14.123420079935805,17.13307217436542,44.82029926453979,26.541000000026543
312269.5257,23.71429860213462,16.945391856076174,20.071601384485675,50.172759745184116,26.542000000015832
312269.5267,25.898610948748626,19.19958672077113,22.270725402620165,54.20404754053639,26.543000000005122
312269.5277,27.149348088389445,20.8200621605828,23.652102465265777,56.76671929932113,26.543999999994412
312269.5287,27.42694816334156,21.77035177967405,24.172919177053743,57.77350715218924,26.54500000004191
312269.5297,26.73640413775072,22.045114078658894,23.828169518061603,57.200915076094574,26.5460000000312
312269.5307,25.126408587290527,21.669343222399377,22.650222524656233,55.08892197587147,26.54700000002049
312269.5317,22.685450137649703,20.695261771006148,20.705765646031267,51.5369231652205,26.54800000000978
312269.5327,19.53522718412176,19.19722652568643,18.09043900634026,46.69632366593786,26.54899999999907
312269.5337,15.821969627198582,17.265155688155044,14.921671603517462,40.76043738762794,26.550000000046566
312269.5347,11.706428034057469,14.997111796424576,11.330375888814368,33.9525258526449,26.551000000035856
312269.5357,7.353386739450628,12.491738702384175,7.452239148260492,26.51291446023098,26.552000000025146
312269.5367,2.921574630142322,9.841246607837144,3.419361734977954,18.686146076249262,26.553000000014435
312269.5377,-1.4452159683369168,7.125567907473135,-0.6470666644124491,10.709071308078094,26.554000000003725
312269.5387,-5.625128779926441,4.408175849444705,-4.642484290367053,2.8006399868196943,26.554999999993015
312269.5397,-9.522884417890175,1.7338811492488775,-8.482673568246597,-4.846036357174399,26.556000000040513
312269.5407,-13.071822066143328,-0.8712835052260726,-12.105289342883808,-12.069016075700826,26.557000000029802
312269.5417,-16.233354714244847,-3.3981940882723354,-15.469232480191517,-18.740169856893505,26.558000000019092
312269.5427,-18.994095839839353,-5.8510835113196356,-18.55211372924857,-24.765295254305812,26.559000000008382
312269.5437,-21.361128793261585,-8.242776124045784,-21.34623454648362,-30.082078394470045,26.55999999999767
312269.5447,-23.35605119368328,-10.5892931985334,-23.853645967591792,-34.65644170572177,26.56100000004517
312269.5457,-25.00852020846863,-12.904468890717062,-26.080920642153583,-38.47791572944876,26.56200000003446
312269.5467,-26.35004225759461,-15.195204128052488,-28.034279962508528,-41.554700104080794,26.56300000002375
312269.5477,-27.40869166896592,-17.457908418873075,-29.71565771603894,-43.90903338647497,26.56400000001304
312269.5487,-28.20531398685869,-19.676544697767305,-31.12016052873437,-45.57338061026347,26.56500000000233
312269.5497,-28.75158486121848,-21.822513818653626,-32.23521631777808,-46.58778511246629,26.565999999991618
312269.5507,-29.050074164197156,-23.856411446103266,-33.04150264509943,-46.99853611700794,26.567000000039116
312269.5517,-29.096230273300524,-25.731481773828968,-33.515537963350795,-46.85809801035722,26.568000000028405
312269.5527,-28.881975728814243,-27.39840115677954,-33.63362198770999,-46.22605428655172,26.569000000017695
312269.5537,-28.40041598406095,-28.81087020686248,-33.376647362177934,-45.17066042961379,26.570000000006985
312269.5547,-27.65102750977294,-29.93139138639175,-32.735190727752524,-43.7704934866715,26.570999999996275
312269.5557,-26.644624400001376,-30.73657159488995,-31.71423955345259,-42.1156441223049,26.572000000043772
312269.5567,-25.407411236736245,-31.22132025739231,-30.33692770897876,-40.30792499007028,26.573000000033062
312269.5577,-23.98351399164053,-31.401410681945272,-28.646736886491105,-38.459665260162694,26.57400000002235
312269.5587,-22.435532180038102,-31.314026967886353,-26.70776491073597,-36.69081571127208,26.57500000001164
312269.5597,-20.842859432314054,-31.01611568882669,-24.602851883076458,-35.124286121728666,26.57600000000093
312269.5607,-19.297755771751095,-30.580581726052714,-22.42957238428725,-33.87965614486141,26.57699999999022
312269.5617,-17.899399422875497,-30.09058926132343,-20.294325066588446,-33.06561905736049,26.57800000003772
312269.5627,-16.746374093172815,-29.63242995759551,-18.30495753261699,-32.77171100845836,26.57900000002701
312269.5637,-15.928235950008908,-29.287580486479545,-16.56253346018132,-33.06002503327391,26.580000000016298
312269.5647,-15.516933268627112,-29.124674360146052,-15.152962999441604,-33.95769179775277,26.581000000005588
312269.5657,-15.558906979366675,-29.19214752526081,-14.139264282460262,-35.45091660378396,26.581999999994878
312269.5667,-16.068675235616592,-29.5122789894694,-13.555197644792555,-37.48129070712684,26.583000000042375
312269.5677,-17.02460063531498,-30.077239530434106,-13.400916132742413,-39.944948388855785,26.584000000031665
312269.5687,-18.367363616084024,-30.847592751154828,-13.641114307447253,-42.694930878876626,26.585000000020955
312269.5697,-20.00143553185881,-31.753478782412188,-14.205946721818398,-45.54686203902351,26.586000000010245
312269.5707,-21.79958120061719,-32.6984716332385,-14.994747042315462,-48.28776136459128,26.586999999999534
312269.5717,-23.610147916872144,-33.56585893776944,-15.882330910420356,-50.687542719240874,26.587999999988824
312269.5727,-25.266641740003266,-34.2268704164998,-16.727433435119202,-52.512497909187246,26.58900000003632
312269.5737,-26.598876576394733,-34.55019973446179,-17.382637450109176,-53.53986619296634,26.59000000002561
312269.5747,-27.44482769085424,-34.41204075247284,-17.705009666044962,-53.57246318428944,26.5910000000149
312269.5757,-27.662243604323706,-33.70580512485134,-17.566591693453837,-52.45229820849313,26.59200000000419
312269.5767,-27.13907651333403,-32.35070892630308,-16.863898248700426,-50.07215347187649,26.59299999999348
312269.5777,-25.801881197419416,-30.29850959022808,-15.525655266298985,-46.3842289195033,26.594000000040978
312269.5787,-23.62149784609511,-27.53783219775833,-13.518158724446224,-41.40516320645249,26.595000000030268
312269.5797,-20.615560300404034,-24.09573142232658,-10.847837105525045,-35.21700683518909,26.596000000019558
312269.5807,-16.847637267936747,-20.036373058518155,-7.560838009534661,-27.96402603881637,26.597000000008848
312269.5817,-12.42309594778353,-15.456965242794265,-3.7397108374569066,-19.845530017413413,26.597999999998137
312269.5827,-7.482049704940683,-10.481301822804388,0.5025000926484342,-11.105213314052113,26.599000000045635
312269.5837,-2.189989554915678,-5.251477980737974,5.030225852492414,-2.0177644799171155,26.600000000034925
312269.5847,3.2731178164634214,0.08151627346894921,9.694718042199042,7.126309683503916,26.601000000024214
312269.5857,8.724370793856535,5.367538188880042,14.343981000829269,16.036574105490107,26.602000000013504
312269.5867,13.989185808433247,10.466573389496919,18.832475424884663,24.438165010725434,26.603000000002794
312269.5877,18.911386096998292,15.25682017729969,23.02982245339778,32.08584819767646,26.603999999992084
312269.5887,23.361375969969206,19.64096590031367,26.827849309988057,38.77572128742754,26.60500000003958
312269.5897,27.241839882637496,23.550220524164487,30.14548549650533,44.35385082215088,26.60600000002887
312269.5907,30.49064016326222,26.945883322522345,32.931225871565765,48.72139154218133,26.60700000001816
312269.5917,33.08084447053727,29.81844393985037,35.16310385442108,51.836019680247475,26.60800000000745
312269.5927,35.01806978476715,32.18443796649577,36.84634305923734,53.70979987921762,26.60899999999674
312269.5937,36.33556029317255,34.081469486677435,38.0090579493177,54.4038717647525,26.610000000044238
312269.5947,37.087600904770916,35.56196145604711,38.69653510625736,54.02056508726312,26.611000000033528
312269.5957,37.34198996759805,36.68628622990676,38.96473210456422,52.69371385803716,26.612000000022817
312269.5967,37.17234387370537,37.51595562509895,38.87367193507887,50.57802813374583,26.613000000012107
312269.5977,36.65097953936742,38.10751129147237,38.48138490101307,47.83839206256781,26.614000000001397
312269.5987,35.84302250470126,38.50765691604202,37.83896089443978,44.639890774241074,26.614999999990687
312269.5997,34.802229767349075,38.75002468971197,36.98713300624524,41.13923589610043,26.616000000038184
312269.6007,33.56881437432028,38.85378505975741,35.95463365496931,37.4780750901925,26.617000000027474
312269.6017,32.16933424485252,38.824109802787774,34.75836552447166,33.77845464254257,26.618000000016764
312269.6027,30.618483667276642,38.65430398462588,33.40523195887136,30.140477886334967,26.619000000006054
312269.6037,28.922425078622133,38.32925192144232,31.895295123418617,26.641988513126755,26.619999999995343
312269.6047,27.083141206785143,37.82969278514032,30.2257929178897,23.33992716478553,26.62100000004284
312269.6057,25.103188980790318,37.13676575610248,28.395460947934072,20.27287881009251,26.62200000003213
312269.6067,22.99020625147061,36.23624988639627,26.408582004646256,17.46425858083511,26.62300000002142
312269.6077,20.760562762035477,35.12197115897918,24.278224427614404,14.92557980509118,26.62400000001071
312269.6087,18.441653201234047,33.7979533677448,22.028227992725014,12.659307916695134,26.625
312269.6097,16.072491101336873,32.27903937682422,19.693641221209482,10.660919166274706,26.62599999998929
312269.6107,13.70246083796898,30.58988935728369,17.31949205476846,8.91993940959879,26.627000000036787
312269.6117,11.388300292739984,28.76245396955486,14.957966185914986,7.4199173575676785,26.628000000026077
312269.6127,9.189596401564915,26.832203180255426,12.66425403241062,6.137467936362381,26.629000000015367
312269.6137,7.163257929780782,24.83354628405018,10.491489001092031,5.040684072632297,26.630000000004657
312269.6147,5.357565213445457,22.79498925869023,8.485319359413198,4.087340501352133,26.630999999993946
312269.6157,3.8064707313308404,20.734629667815845,6.678720905559991,3.2233861989764105,26.632000000041444
312269.6167,2.5248287319194618,18.65658034343077,5.0876602616273665,2.3822333118537196,26.633000000030734
312269.6177,1.5051651479849082,16.54884064827689,3.70815768181538,1.4852969651334913,26.634000000020023
312269.6187,0.7164661834748703,14.383004149182952,2.5151786977377313,0.4441259127034218,26.635000000009313
312269.6197,0.10527732422312563,12.116015703583878,1.4636164492076074,-0.8357010258709598,26.635999999998603
312269.6207,-0.40081838478025483,9.69398564532485,0.4914267076008622,-2.4489374458914037,26.6370000000461
312269.6217,-0.8875118452952689,7.057853502339714,-0.4752357262012487,-4.483529683786705,26.63800000003539
312269.6227,-1.4462680657737903,4.150489390523695,-1.5152369170933713,-7.012420462467669,26.63900000002468
312269.6237,-2.165612969281245,0.924648195755927,-2.7045769156844357,-10.084917920762546,26.64000000001397
312269.6247,-3.1219532291740935,-2.6489323688121496,-4.108067347801417,-13.718378643100047,26.64100000000326
312269.6257,-4.370757636361014,-6.574060261013364,-5.77132016555333,-17.89101396472298,26.64199999999255
312269.6267,-5.93893487227773,-10.823005699841664,-7.713802212893311,-22.536613663967902,26.643000000040047
312269.6277,-7.819170687313809,-15.332486609763029,-9.923648283533634,-27.54188731263078,26.644000000029337
312269.6287,-9.966842203004932,-20.002256261152446,-12.354797473468741,-32.74695576535218,26.645000000018626
312269.6297,-12.29992018510863,-24.696623965106504,-14.926834097686713,-37.94929562591431,26.646000000007916
312269.6307,-14.702019468515529,-29.24899911737928,-17.527690847878098,-42.91116657241466,26.646999999997206
312269.6317,-17.028485453239302,-33.46929115814498,-20.019127801964878,-47.370258566615725,26.648000000044703
312269.6327,-19.115135329806446,-37.15374610011554,-22.24465817702952,-51.05300941478072,26.649000000033993
312269.6337,-20.789031162787264,-40.09657711775492,-24.039372404047292,-53.689789461456456,26.650000000023283
312269.6347,-21.880470718529896,-42.10257304784411,-25.240936447153963,-55.03095381249725,26.651000000012573
312269.6357,-22.235259209478254,-42.999761137670326,-25.70092482761328,-54.86264329804119,26.652000000001863
312269.6367,-21.726283108351105,-42.65116983570256,-25.295604776932635,-53.02118675329644,26.652999999991152
312269.6377,-20.263450733736,-40.964787831800955,-23.935320156356948,-49.4050244799582,26.65400000003865
312269.6387,-17.801190456279596,-37.90094357318934,-21.571730126113987,-43.98323261758214,26.65500000002794
312269.6397,-14.342895492976627,-33.476524652701706,-18.202329092156084,-36.799968669078034,26.65600000001723
312269.6407,-9.941956958676613,-27.76570211058662,-13.87189620132345,-27.974459991663565,26.65700000000652
312269.6417,-4.699311533521796,-20.897099397014983,-8.670774868207616,-17.696494120941065,26.65799999999581
312269.6427,1.2422789543317196,-13.047625307918358,-2.730142837111768,-6.2177131228785205,26.659000000043306
312269.6437,7.706728020522004,-4.433449880297963,3.785322379181757,6.1606663895546605,26.660000000032596
312269.6447,14.495191315869796,4.701180966852242,10.686771287111199,19.10281861116699,26.661000000021886
312269.6457,21.397825695293335,14.096441363863226,17.771741853113895,32.25487867129364,26.662000000011176
312269.6467,28.20578622426614,23.489801573173967,24.835108503725795,45.261937604514884,26.663000000000466
312269.6477,34.72251320500737,32.62835541497914,31.679574373289956,57.78428322485144,26.663999999989755
312269.6487,40.77345297169946,41.279751723588895,38.124931913179545,69.51180787285972,26.665000000037253
312269.6497,46.21352343389557,49.241034932175396,44.01545613423268,80.17569218956288,26.666000000026543
312269.6507,50.93186121888273,56.344907637429095,49.224987266948965,89.5567317169815,26.667000000015832
312269.6517,54.85364930855618,62.46317049571725,53.6594860988435,97.48997517198951,26.668000000005122
312269.6527,57.93909653276338,67.50734849677934,57.2570832420276,103.86566092513749,26.668999999994412
312269.6537,60.17989673559023,71.42675340631882,59.98586987872193,108.62674196710485,26.67000000004191
312269.6547,61.593711419895016,74.2044376319489,61.839870478300384,111.76355201496952,26.6710000000312
312269.6557,62.2173751638265,75.85164661496977,62.83377965666462,113.30636373554809,26.67200000002049
312269.6567,62.0996044360385,76.4014625021119,62.99712332115235,113.31670857871696,26.67300000000978
312269.6577,61.29399161929287,75.902345613474,62.36851272741546,111.8783589117192,26.67399999999907
312269.6587,59.852989228039725,74.41222370430661,60.990600405133925,109.08881825838313,26.675000000046566
312269.6597,57.823444392030225,71.99366079239411,58.90622727759288,105.0520340333508,26.676000000035856
312269.6607,55.244047218759846,68.71047188844604,56.156084789402165,99.87285586473705,26.677000000025146
312269.6617,52.14483001180254,64.62595613047884,52.778022898533315,93.65353323751623,26.678000000014435
312269.6627,48.54862144990561,59.80271968015816,48.80793520371899,86.4923033946409,26.679000000003725
312269.6637,44.474144763331815,54.303872470801124,44.281967307812,78.48388908711101,26.679999999993015
312269.6647,39.94027338741188,48.19522861048483,39.239642873025026,69.72152851560439,26.681000000040513
312269.6657,34.970838753873664,41.54803407455741,33.72739896641565,60.30001489283489,26.682000000029802
312269.6667,29.599333881923535,34.44169698246528,27.801978139037132,50.319142652638874,26.683000000019092
312269.6677,23.872877184640718,26.96600866852443,21.53314287073766,39.886946563210365,26.684000000008382
312269.6687,17.854889917088656,19.222414853780528,15.005255634582545,29.122176692253852,26.68499999999767
312269.6697,11.626087516284473,11.324016397597466,8.317395823435817,18.155567333653444,26.68600000004517
312269.6707,5.283573493633513,3.394134270701726,1.5818489283681456,7.129616991814932,26.68700000003446
312269.6717,-1.0619657384174863,-4.436553958155964,-5.079014158139544,-3.80321929295466,26.68800000002375
312269.6727,-7.290757901384153,-12.034127742949972,-11.53726858046329,-14.483835178680526,26.68900000001304
312269.6737,-13.27974047669045,-19.266457979503805,-17.66501778645594,-24.75101262489964,26.69000000000233
312269.6747,-18.909117620372847,-26.00871834681802,-23.340543383758376,-34.44679335901592,26.690999999991618
312269.6757,-24.06905382793068,-32.14886365156031,-28.454466426653312,-43.42218811713691,26.692000000039116
312269.6767,-28.66585814517798,-37.592554634602415,-32.91534908145122,-51.54269425092194,26.693000000028405
312269.6777,-32.6270585753201,-42.26705446757238,-36.65421029856986,-58.69311560073373,26.694000000017695
312269.6787,-35.90487468860264,-46.12371933080179,-39.627528724159376,-64.78125658295542,26.695000000006985
312269.6797,-38.47775588358788,-49.13884363377852,-41.81845029246229,-69.74018563630244,26.695999999996275
312269.6807,-40.349846681505156,-51.31278496178178,-43.23609185867393,-73.52891735712264,26.697000000043772
312269.6817,-41.548448808294516,-52.667467341114076,-43.91301795355976,-76.1315306645739,26.698000000033062
312269.6827,-42.11975119466863,-53.242525644701225,-43.901146196521324,-77.55490385091373,26.69900000002235
312269.6837,-42.12327275834588,-53.09049163363537,-43.266489815921744,-77.82538882594608,26.70000000001164
312269.6847,-41.62559115679383,-52.27151873218816,-42.08325746365798,-76.98485125104189,26.70100000000093
312269.6857,-40.6940004976603,-50.84818788376367,-40.427889661718886,-75.08655962890393,26.70199999999022
312269.6867,-39.39074509896885,-48.88092572691318,-38.373611717399385,-72.19140894294162,26.70300000003772
312269.6877,-37.7684142726061,-46.424499631877644,-35.98602466134055,-68.36491294616165,26.70400000002701
312269.6887,-35.8669608994262,-43.525938309789396,-33.32014449169138,-63.67529910986935,26.705000000016298
312269.6897,-33.71263644239196,-40.224073251440174,-30.419146862739787,-58.19290199030156,26.706000000005588
312269.6907,-31.318933983930954,-36.550720564624804,-27.31489464861376,-51.99088871809828,26.706999999994878
312269.6917,-28.689418971252035,-32.53334260994754,-24.03013751998965,-45.14718130697501,26.708000000042375
312269.6927,-25.822125835444897,-28.198862528477353,-20.582094656577368,-37.74728217928283,26.709000000031665
312269.6937,-22.715027786125383,-23.578169425264278,-16.986981869919717,-29.88757847646911,26.710000000020955
312269.6947,-19.37196419956012,-18.71076180472928,-13.264937893978466,-21.67861158714865,26.711000000010245
312269.6957,-15.8083478050546,-13.64894168601758,-9.444752375083073,-13.247761191190577,26.711999999999534
312269.6967,-12.055979146217961,-8.460996158294277,-5.567805847507891,-4.7408133506967225,26.712999999988824
312269.6977,-8.166368816115748,-3.2328856517445845,-1.6906995796233857,3.678040368554417,26.71400000003632
312269.6987,-4.212102410274256,1.9319081470432995,2.1138253405049037,11.82809681830066,26.71500000002561
312269.6997,-0.2859666707356091,6.914549156971433,5.757916164704239,19.516082743636037,26.7160000000149
312269.7007,3.502229286622718,11.58500742245274,9.141628995665991,26.542103243718874,26.71700000000419
312269.7017,7.030976895896421,15.807992298586464,12.157786331408213,32.7073540393998,26.71799999999348
312269.7027,10.174157873010214,19.450252357405716,14.698326085605412,37.82316349996443,26.719000000040978
312269.7037,12.809338137813551,22.38868416285511,16.661634931630605,41.720769996427165,26.720000000030268
312269.7047,14.826567599350494,24.51858844080322,17.960241813522376,44.26112668730598,26.721000000019558
312269.7057,16.136915094406966,25.76136771893183,18.5281869598807,45.343971807197875,26.722000000008848
312269.7067,16.67996662169107,26.070979662578583,18.32738444171591,44.91541518145094,26.722999999998137
312269.7077,16.42958634302913,25.438544481652645,17.352363071811688,42.973372208035386,26.724000000045635
312269.7087,15.397378006599542,23.894646263519544,15.632896071009538,39.57031972991199,26.725000000034925
312269.7097,13.633477447357972,21.5090547172859,13.234203640154565,34.81304280577013,26.726000000024214
312269.7107,11.224537243135279,18.387808983763993,10.254618924867655,28.859270962357403,26.727000000013504
312269.7117,8.289011286648915,14.66782934514735,6.82082811793582,21.911346956322557,26.728000000002794
312269.7127,4.9700870026597395,10.509435232902938,3.0810093245646177,14.20730839794831,26.728999999992084
312269.7137,1.4268235833743483,6.087329101365067,-0.8036176417718109,6.009971007647607,26.73000000003958
312269.7147,-2.175784157776901,1.5807384615150621,-4.6681749124829075,-2.405237690695179,26.73100000002887
312269.7157,-5.6770005232314595,-2.836520009750429,-8.353702521680177,-10.762849035270929,26.73200000001816
312269.7167,-8.929964910354721,-7.005286888458473,-11.716166492978356,-18.799459741985995,26.73300000000745
312269.7177,-11.809947333959617,-10.788914891309975,-14.634188743115786,-26.27455820994886,26.73399999999674
312269.7187,-14.220589871566016,-14.079158527053231,-17.014903170295433,-32.97937823629927,26.735000000044238
312269.7197,-16.097669143491956,-16.79970438742561,-18.797511522787037,-38.74327129318361,26.736000000033528
312269.7207,-17.41014661110077,-18.907162055364196,-19.95432084407028,-43.43731467806386,26.737000000022817
312269.7217,-18.158526065847084,-20.389564159501067,-20.4892719956151,-46.975120154465614,26.738000000012107
312269.7227,-18.370786952508944,-21.262645563843318,-20.434194419720534,-49.31105247983173,26.739000000001397
312269.7237,-18.096384009905183,-21.564365097484504,-19.843224354216737,-50.43628590925192,26.739999999990687
312269.7247,-17.398976503889518,-21.34828026479114,-18.78598266516372,-50.373298261032545,26.741000000038184
312269.7257,-16.348657113697346,-20.676472111835693,-17.34020887381409,-49.16950991736301,26.742000000027474
312269.7267,-15.014480758576962,-19.612735750438627,-15.584579996072451,-46.89080900444902,26.743000000016764
312269.7277,-13.458044292675902,-18.216700500827468,-13.592403348631814,-43.61566116216406,26.744000000006054
312269.7287,-11.728743946384458,-16.539427601354312,-11.426765459237249,-39.43038777132696,26.744999999995343
312269.7297,-9.861151052593389,-14.620864709733922,-9.137555381350358,-34.42602261510767,26.74600000004284
312269.7307,-7.874716688972438,-12.489331984987919,-6.760576551038579,-28.696942227794857,26.74700000003213
312269.7317,-5.775765586640719,-10.162994962215235,-4.318737466074393,-22.34123244257669,26.74800000002142
312269.7327,-3.5614943372166636,-7.653066802888382,-1.8250905995377196,-15.462527655195634,26.74900000001071
312269.7337,-1.225473479578236,-4.968298208718599,0.7127064914122526,-8.172864211106912,26.75
312269.7347,1.2360106054859412,-2.120175846069577,3.28708407782677,-0.5959460763074722,26.75099999998929
312269.7357,3.817533216816171,0.8718266924822917,5.885073073474662,7.129854837603839,26.752000000036787
312269.7367,6.498804387266903,3.9756099495331236,8.483323749882349,14.849441093385218,26.753000000026077
312269.7377,9.240350408917594,7.143025913434303,11.044265019842749,22.390475421197554,26.754000000015367
312269.7387,11.98117983246619,10.308152847892238,13.513921602007178,29.56486407885078,26.755000000004657
312269.7397,14.638813032643448,13.387575951378555,15.821735160201264,36.17249146087008,26.755999999993946
312269.7407,17.111817351450448,16.28277682288085,17.882528037833655,42.0072242849615,26.757000000041444
312269.7417,19.28473636981285,18.884517808899034,19.60052568200428,46.86495775095015,26.758000000030734
312269.7427,21.035057337795756,21.07890068256641,20.875138852181117,50.55324426681075,26.759000000020023
312269.7437,22.241649494399226,22.754603410514804,21.60802085688721,52.90185100442283,26.760000000009313
312269.7447,22.793948733836274,23.81067137177597,21.710776826133035,53.77345521756952,26.760999999998603
312269.7457,22.601076108132325,24.164172687001656,21.112624885633814,53.07361977640167,26.7620000000461
312269.7467,21.600067304080916,23.757027501388517,19.767300253841192,50.759202648210824,26.76300000003539
312269.7477,19.76245810434755,22.561387635599914,17.658553041391468,46.84444249185335,26.76400000002468
312269.7487,17.098609901371315,20.583068910214397,14.80371239684151,41.40412024222435,26.76500000001397
312269.7497,13.659355708675662,17.862710841862427,11.254961082671649,34.57340924362225,26.76600000000326
312269.7507,9.53478157236806,14.474540097864812,7.098168378112412,26.544274916664218,26.76699999999255
312269.7517,4.850208192874526,10.522825268263427,2.4493453074704914,17.558546855571496,26.768000000040047
312269.7527,-0.2403208459229544,6.136310756269692,-2.551006336297962,7.898038511159085,26.769000000029337
312269.7537,-5.5625271499813955,1.461087916700519,-7.745200537952433,-2.12768962596295,26.770000000018626
312269.7547,-10.931684208187743,-3.3475137143800264,-12.966744193523745,-12.195156714329276,26.771000000007916
312269.7557,-16.162928565938383,-8.133364082399,-18.049122098960158,-21.981504430798,26.771999999997206
312269.7567,-21.081296619605748,-12.747641679161658,-22.834311899419475,-31.178846438162612,26.773000000044703
312269.7577,-25.53073574648571,-17.05601074022658,-27.180398261723415,-39.5075510793284,26.774000000033993
312269.7587,-29.381451965915044,-20.94437127723642,-30.96775865713123,-46.72768668653607,26.775000000023283
312269.7597,-32.53512316016669,-24.322836306128345,-34.10344057506693,-52.648016922814435,26.776000000012573
312269.7607,-34.92770971419665,-27.127766101034368,-36.523526053772436,-57.13213112140156,26.777000000001863
312269.7617,-36.529812917834114,-29.321872563682806,-38.19346607577966,-60.10151308883511,26.777999999991152
312269.7627,-37.344744343252835,-30.892579536764664,-39.10654609710844,-61.53557175115807,26.77900000003865
312269.7637,-37.40465657822923,-31.84897034853318,-39.28079758333998,-61.46885971089911,26.78000000002794
312269.7647,-36.76523020569154,-32.217758512147384,-38.75478478637718,-59.98587520828798,26.78100000001723
312269.7657,-35.49950154488218,-32.03877230448567,-37.58276138290287,-57.213967093497445,26.78200000000652
312269.7667,-33.691444008790555,-31.360445272014765,-35.82970355648916,-53.314934098478666,26.78299999999581
312269.7677,-31.429882910860936,-30.235754562183043,-33.566685794951184,-48.4759271869381,26.784000000043306
312269.7687,-28.80323527484346,-28.718954707682638,-30.866979609214145,-42.900230543555516,26.785000000032596
312269.7697,-25.895434179798425,-26.863327929617096,-27.803134644380105,-36.79842093779735,26.786000000021886
312269.7707,-22.78323702814845,-24.720028160638414,-24.445160647720392,-30.380298409203785,26.787000000011176
312269.7717,-19.534946880496015,-22.33795131122124,-20.859783618185077,-23.84785727570811,26.788000000000466
312269.7727,-16.210414158998056,-19.76443501239041,-17.11061632462156,-17.389439779012463,26.788999999989755
312269.7737,-12.862049627506696,-17.046491337176814,-13.258976675292992,-11.175098725128615,26.790000000037253
312269.7747,-9.536482453111889,-14.232216475237104,-9.365018373626727,-5.353101403526795,26.791000000026543
312269.7757,-6.276448597458192,-11.372008037153153,-5.488813787587092,-0.04744262504960797,26.792000000015832
312269.7767,-3.122498575897981,-8.51925443047976,-1.6910508770784989,4.643796405674901,26.793000000005122
312269.7777,-0.1141678094639802,-5.730237208277223,1.9669288709141388,8.64940504418763,26.793999999994412
312269.7787,2.709650005054051,-3.063097406348582,5.423924199924154,11.925447832231896,26.79500000004191
312269.7797,5.311257821613394,-0.5758479675206459,8.620548400531584,14.455198480777996,26.7960000000312
312269.7807,7.655625670074698,1.6764485773290732,11.501700043323186,16.24862449687142,26.79700000002049
312269.7817,9.712620652193028,3.645090631432092,14.019619156170972,17.34138423249414,26.79800000000978
312269.7827,11.459715127864879,5.291386826054358,16.137212023792465,17.793250330619767,26.79899999999907
312269.7837,12.884798748567299,6.5901285851234945,17.83125563177731,17.685846671574442,26.800000000046566
312269.7847,13.988670908311295,7.532449835751905,19.09506361639086,17.119586509911983,26.801000000035856
312269.7857,14.786791723311204,8.127666539822645,19.940214304017303,16.209730546812498,26.802000000025146
312269.7867,15.309923186430492,8.403765790883583,20.397007931803902,15.081544240460893,26.803000000014435
312269.7877,15.603393432143195,8.406333278778266,20.513429257326898,13.864618746520502,26.804000000003725
312269.7887,15.724856585673201,8.195858076747792,20.35253364364052,12.686520932710923,26.804999999993015
312269.7897,15.740584555864087,7.843520421550302,19.988335711447068,11.666043573425856,26.806000000040513
312269.7907,15.720498406076029,7.425734638920487,19.50044363704352,10.906424128582632,26.807000000029802
312269.7917,15.73230725845252,7.017868187358892,18.967832052598027,10.488976247959101,26.808000000019092
312269.7927,15.835254186567926,6.687672649157721,18.462265942766297,10.467620394070604,26.809000000008382
312269.7937,16.07405569685064,6.489029904531673,18.041963035611133,10.864799532457418,26.80999999999767
312269.7947,16.473652665465185,6.456627481966232,17.746102986588035,11.669217422070517,26.81100000004517
312269.7957,17.03535977876892,6.602127341664253,17.59075324133014,12.835740164416817,26.81200000003446
312269.7967,17.73490754016263,6.9122841930124945,17.566684646329378,14.287661018264334,26.81300000002375
312269.7977,18.522722000469145,7.3493108391948105,17.639401297574363,15.921353735063137,26.81400000001304
312269.7987,19.32659468811923,7.853592228092651,17.751520783432873,17.61314478104207,26.81500000000233
312269.7997,20.05667577291163,8.348634236389014,17.82742925995276,19.22803683216176,26.815999999991618
312269.8007,20.61249763687069,8.747917629285212,17.779919973879142,20.62973342013802,26.817000000039116
312269.8017,20.891525521316968,8.963132704988945,17.518324339727446,21.69126586584643,26.818000000028405
312269.8027,20.79855788936809,8.913115153549217,16.95748111671147,22.305424865043324,26.819000000017695
312269.8037,20.255179979585247,8.532704782789622,16.02677857105858,22.39416272332088,26.820000000006985
312269.8047,19.208423531623254,7.780717375343275,14.678459322256334,21.916165555234368,26.820999999996275
312269.8057,17.637811577487618,6.646261464538588,12.894404720711675,20.87189896077064,26.822000000043772
312269.8067,15.560070252242422,5.15274504908286,10.690715408394766,19.305600478512694,26.823000000033062
312269.8077,13.030963232038395,3.3590943079831375,8.11957070718998,17.303915908354405,26.82400000002235
312269.8087,10.143935201364853,1.3579331874277643,5.268068801133052,14.991137326720777,26.82500000001164
312269.8097,7.025519396522699,-0.7292697329729327,2.254004080159695,12.521277071362144,26.82600000000093
312269.8107,3.8277472990326475,-2.759814839236017,-0.7811945929690899,10.06748059028556,26.82699999999022
312269.8117,0.7180704143143295,-4.57962292480131,-3.6818845104029196,7.8095180094281,26.82800000003772
312269.8127,-2.1324604942717724,-6.034589968153989,-6.289286659106119,5.920277689789647,26.82900000002701
312269.8137,-4.561836914371644,-6.98255739497116,-8.453352104565234,4.552297059735669,26.830000000016298
312269.8147,-6.429533290093332,-7.304930347662663,-10.044455267254621,3.8253945833548775,26.831000000005588
312269.8157,-7.62771331543149,-6.916979353960256,-10.963940675341135,3.816406939203276,26.831999999994878
312269.8167,-8.090246940449013,-5.775947566584364,-11.152623557401308,4.551890193212868,26.833000000042375
312269.8177,-7.798747508446848,-3.8862502154412595,-10.596498681172413,6.004423533058585,26.834000000031665
312269.8187,-6.785075044176278,-1.3012816523356139,-9.329133670560315,8.092876489448823,26.835000000020955
312269.8197,-5.1300404687085015,1.8783811009723188,-7.430493721768665,10.686688448901963,26.836000000010245
312269.8207,-2.9583611703045367,5.510294858248743,-5.0222405200371325,13.61388903080319,26.836999999999534
312269.8217,-0.4302328796580425,9.418613772041999,-2.2598429922027696,16.67228697038923,26.837999999988824
312269.8227,2.2698320065903643,13.40506772297344,0.6778950353203452,19.642999470887307,26.83900000003632
312269.8237,4.946019321660504,17.261617930473378,3.6010691482018884,22.30530567263729,26.84000000002561
312269.8247,7.405046471423681,20.78381816744204,6.321704161268763,24.451703172278346,26.8410000000149
312269.8257,9.469714591061573,23.783859159715995,8.666551221052744,25.902034291764448,26.84200000000419
312269.8267,10.991110215228767,26.10231004335625,10.488650997567378,26.51562977200241,26.84299999999348
312269.8277,11.85850957298473,27.617690144483817,11.676774636241097,26.200584285226835,26.844000000040978
312269.8287,12.006241592496684,28.25319534329485,12.162042106826501,24.919515689885305,26.845000000030268
312269.8297,11.417030445598135,27.98014804087734,11.921263163554748,22.69144729151305,26.846000000019558
312269.8307,10.12164072445285,26.818015808502665,10.97682678601523,19.589764401187956,26.847000000008848
312269.8317,8.194960712246345,24.83112624769477,9.393255273455605,15.73650625266834,26.847999999998137
312269.8327,5.748953698896923,22.12246939390618,7.270813181729065,11.29353550588136,26.849000000045635
312269.8337,2.923157930629656,18.825201321775776,4.736794982139183,6.451356721420852,26.850000000034925
312269.8347,-0.12639901400456044,15.092624876534009,1.9352887225345805,1.416513901404849,26.851000000024214
312269.8357,-3.238901128480604,11.087512961117513,-0.9836880362032056,-3.6014264579052475,26.852000000013504
312269.8367,-6.260073717802269,6.971650764373965,-3.8747662344245377,-8.402310815824203,26.853000000002794
312269.8377,-9.05222716468767,2.896407225813967,-6.606667024210342,-12.806350545293151,26.853999999992084
312269.8387,-11.50225076286833,-1.0049886164135022,-9.069793620334263,-16.662855359271255,26.85500000003958
312269.8397,-13.527007053313858,-4.622979431492685,-11.181455268260594,-19.856236294670268,26.85600000002887
312269.8407,-15.075833854947742,-7.87475623498795,-12.88844026742434,-22.30902425752152,26.85700000001816
312269.8417,-16.130135644318294,-10.70485338230394,-14.166906801930566,-23.981918839699656,26.85800000000745
312269.8427,-16.700312328769677,-13.083463121520175,-15.019805389842272,-24.87113722249046,26.85899999999674
312269.8437,-16.820507275591545,-15.002868567286145,-15.472262628309299,-25.003551898536113,26.860000000044238
312269.8447,-16.54183673880064,-16.472544119238762,-15.565523368353695,-24.430269906766934,26.861000000033528
312269.8457,-15.924874023821259,-17.5135625020649,-15.350153225494989,-23.219401988854127,26.862000000022817
312269.8467,-15.032195094028625,-18.15297125315967,-14.87923732311565,-21.448790843819015,26.863000000012107
312269.8477,-13.921746598667628,-18.418758625720006,-14.202273097683388,-19.199413898958753,26.864000000001397
312269.8487,-12.641678742630237,-18.33592586254857,-13.36035041236662,-16.550055123766334,26.864999999990687
312269.8497,-11.22710708980526,-17.924031601296328,-12.383052857302363,-13.57366597293056,26.866000000038184
312269.8507,-9.699047844344097,-17.196391137721953,-11.287316672169464,-10.335625977309485,26.867000000027474
312269.8517,-8.065532600943536,-16.160917472770468,-10.078268251394723,-6.893890276613588,26.868000000016764
312269.8527,-6.3246747207776375,-14.822402437172043,-8.751849114300493,-3.3007969534324038,26.869000000006054
312269.8537,-4.469253339009229,-13.185873602302319,-7.298849312134502,0.39387733169741274,26.869999999995343
312269.8547,-2.4922225670335694,-11.260542178493573,-5.709824648195595,4.139161099692678,26.87100000004284
312269.8557,-0.3924579125267261,-9.06379035326245,-3.9802836311579965,7.87905375230908,26.87200000003213
312269.8567,1.8199717531950101,-6.62463978811645,-2.1155049893349176,11.549242238477746,26.87300000002142
312269.8577,4.119668328702235,-3.986196545731468,-0.1343877251367022,15.074935619290404,26.87400000001071
312269.8587,6.4634479812169054,-1.2066758533451842,1.928161519975546,18.37026040314894,26.875
312269.8597,8.789932568098543,1.6412382923747932,4.020645203421112,21.33948627709094,26.87599999998929
312269.8607,11.021344052797362,4.472764054503903,6.076347872533436,23.880147125960015,26.877000000036787
312269.8617,13.067426063958763,7.194999236967856,8.016611871375765,25.887906887642472,26.878000000026077
312269.8627,14.83119144757348,9.712201582818317,9.75576072795164,27.262815850620964,26.879000000015367
312269.8637,16.21599751992677,11.931916521797167,11.207238072625037,27.9164314273439,26.880000000004657
312269.8647,17.13330154166187,13.771389342024012,12.290395008536304,27.779156075872535,26.880999999993946
312269.8657,17.51036281765915,15.163646686133923,12.937279761994574,26.807086825890696,26.882000000041444
312269.8667,17.29714372340356,16.062641944687567,13.098768339522364,24.98768251060104,26.883000000030734
312269.8677,16.4717217317857,16.44693058907571,12.749425643678542,22.343636120303085,26.884000000020023
312269.8687,15.043652751408274,16.32146861316698,11.890598366602013,18.934483563663605,26.885000000009313
312269.8697,13.054910606336112,15.717298247547477,10.551403223710015,14.855673194023723,26.885999999998603
312269.8707,10.578250516411138,14.689083638281783,8.787470911533331,10.23504443244704,26.8870000000461
312269.8717,7.713084350857366,13.31066593783954,6.677518290610225,5.226897244779797,26.88800000003539
312269.8727,4.579188866863897,11.669001848347106,4.318027843565846,0.004054603033088901,26.88900000002468
312269.8737,1.3087723164676368,9.857012627329935,1.816494066098041,-5.251493968348479,26.89000000001397
312269.8747,-1.962420266483191,7.965985331677943,-0.7161667404147757,-10.35864619889632,26.89100000000326
312269.8757,-5.104192283978189,6.078222611265334,-3.1733673425706206,-15.14714880474334,26.89199999999255
312269.8767,-8.000383284487777,4.260625441166816,-5.460070955324318,-19.466682249539378,26.893000000040047
312269.8777,-10.556028967592763,2.5598150422137524,-7.498845411679179,-23.19436039491056,26.894000000029337
312269.8787,-12.702590459375523,0.999262626917188,-9.234226351590502,-26.24007879011004,26.895000000018626
312269.8797,-14.400833945667097,-0.421288850341433,-10.635029871325399,-28.549339018346604,26.896000000007916
312269.8807,-15.641164822197224,-1.7240407573093548,-11.694453363736551,-30.103403660728336,26.896999999997206
312269.8817,-16.441460823501114,-2.949145710122825,-12.428016140866104,-30.916875568393586,26.898000000044703
312269.8827,-16.842682789787258,-4.148869543287125,-12.869597987069003,-31.0330236432727,26.899000000033993
312269.8837,-16.9027471809274,-5.380451273819898,-13.066013872095343,-30.51737366391151,26.900000000023283
312269.8847,-16.689301417278408,-6.698333181612097,-13.070699179547963,-29.45022841049582,26.901000000012573
312269.8857,-16.27213670659895,-8.146500175439574,-12.937158888931116,-27.918862857747413,26.902000000001863
312269.8867,-15.71599453310798,-9.751665919448598,-12.712848740947999,-26.01015006608197,26.902999999991152
312269.8877,-15.074470802468143,-11.517972670536457,-12.434105387423493,-23.804310980221423,26.90400000003865
312269.8887,-14.385601259077673,-13.423738849753997,-12.122631127653277,-21.370352864340262,26.90500000002794
312269.8897,-13.669535279236031,-15.420605340758485,-11.783878128483565,-18.763579031801253,26.90600000001723
312269.8907,-12.928489905170759,-17.435215351421796,-11.407482791500664,-16.02533438789904,26.90700000000652
312269.8917,-12.148943076885125,-19.373333412083877,-10.969692108505184,-13.18491801956671,26.90799999999581
312269.8927,-11.305797110564427,-21.126087878771926,-10.437520716655694,-10.263368001524674,26.909000000043306
312269.8937,-10.368042675800666,-22.577828475151797,-9.774199612515043,-7.278626461480487,26.910000000032596
312269.8947,-9.305299290129462,-23.614943513932996,-8.945342335327426,-4.251443801186136,26.911000000021886
312269.8957,-8.094515626122632,-24.134893698726895,-7.925175027433462,-1.2112943919417924,26.912000000011176
312269.8967,-6.726090747271894,-24.054698479742274,-6.702160950601175,1.7984391945611318,26.913000000000466
312269.8977,-5.208728024219436,-23.31815826190462,-5.283399558117612,4.716698220151454,26.913999999989755
312269.8987,-3.572452229213924,-21.901206484491617,-3.697290654541103,7.462954172847802,26.915000000037253
312269.8997,-1.8693959363626034,-19.814949057856804,-1.9941152786934235,9.93776366423367,26.916000000026543
312269.9007,-0.1721771816262104,-17.106149455035034,-0.24438164036209375,12.025821592011074,26.917000000015832
312269.9017,1.4300742056400102,-13.855137237652341,1.4650017816393734,13.60141825795032,26.918000000005122
312269.9027,2.837751595607898,-10.171335762950802,3.036453216273898,14.53596516918272,26.918999999994412
312269.9037,3.9483704442308856,-6.186801477255784,4.368884356120069,14.70703911862848,26.92000000004191
312269.9047,4.665071367208591,-2.0483249913874952,5.365700110482889,14.008225369055525,26.9210000000312
312269.9057,4.905266348100537,2.0912506455243216,5.942933280753786,12.358934758235725,26.92200000002049
312269.9067,4.608636653010962,6.081794998391033,6.036789001048701,9.713337005124252,26.92300000000978
312269.9077,3.7437349639512094,9.784058977488634,5.60991392337575,6.067597380818769,26.92399999999907
312269.9087,2.3125587759881956,13.076647976127516,4.655809148783317,1.4647229798165333,26.925000000046566
312269.9097,0.35263676614295136,15.861332037248912,3.2009644125493173,-4.003492087928413,26.926000000035856
312269.9107,-2.063611605530475,18.06639530290535,1.3044894048016398,-10.197702371381258,26.927000000025146
312269.9117,-4.832241045448066,19.647917207928757,-0.9447621194464793,-16.93544944444404,26.928000000014435
312269.9127,-7.823625123565059,20.589069832934413,-3.433359177528031,-23.99856307563792,26.929000000003725
312269.9137,-10.890315575890996,20.897690895460133,-6.030334317574442,-31.143043536284654,26.929999999993015
312269.9147,-13.876273743956329,20.60253341990473,-8.595519161598762,-38.110743340842966,26.931000000040513
312269.9157,-16.626714013824945,19.748688219852124,-10.98848724276148,-44.64202624620077,26.932000000029802
312269.9167,-18.99775201387397,18.392715872435634,-13.07737198643674,-50.48851263246802,26.933000000019092
312269.9177,-20.865077903938708,16.598008422179408,-14.746850524865874,-55.42502884692889,26.934000000008382
312269.9187,-22.130974252396864,14.430830993576635,-15.90467168422156,-59.25996185085167,26.93499999999767
312269.9197,-22.729158769371715,11.957378595929447,-16.486250020106844,-61.84337066230195,26.93600000004517
312269.9207,-22.627138639464395,9.242036906116061,-16.45703293066612,-63.07240760072074,26.93700000003446
312269.9217,-21.8259951109088,6.346874014973438,-15.81255642640768,-62.8938355397631,26.93800000002375
312269.9227,-20.357751716901856,3.3322306923589724,-14.576316711872025,-61.30366990175564,26.93900000001304
312269.9237,-18.280694261965795,0.2581368870445182,-12.795778824925652,-58.34420312755622,26.94000000000233
312269.9247,-15.673184851348346,-2.813823058795539,-10.5370015588014,-54.09886372732935,26.940999999991618
312269.9257,-12.626629284779389,-5.818633361463444,-7.878464859092932,-48.68550446818491,26.942000000039116
312269.9267,-9.238306376998619,-8.686401882292442,-4.904732133926898,-42.24879297224741,26.943000000028405
312269.9277,-5.604745345438647,-11.341745248160128,-1.700561870894147,-34.95238776685939,26.944000000017695
312269.9287,-1.8162466634402175,-13.704307393866461,1.6539964794041944,-26.971525466784517,26.945000000006985
312269.9297,2.0470070946535652,-15.690581793918934,5.087119159391494,-18.48652885439413,26.945999999996275
312269.9307,5.916994898251549,-17.217049887390505,8.537103924390452,-9.677585525446823,26.947000000043772
312269.9317,9.738012846932545,-18.204482490032497,11.952601470915395,-0.720961083419316,26.948000000033062
312269.9327,13.465111772376062,-18.58309508547794,15.291328753863812,8.21337956231729,26.94900000002235
312269.9337,17.061177019746182,-18.298118804495786,18.517580431215713,16.96294352511849,26.95000000001164
312269.9347,20.49315832958763,-17.315261169807712,21.598986982443122,25.373014035150383,26.95100000000093
312269.9357,23.728047773139146,-15.62549484169143,24.503048873776613,33.29651732684327,26.95199999999022
312269.9367,26.729226606025176,-13.248634055463228,27.193997033504566,40.59391367258223,26.95300000003772
312269.9377,29.453755286626155,-10.235236841179391,29.63048866107785,47.13354412424185,26.95400000002701
312269.9387,31.85106960273823,-6.6665002780497264,31.764548345953532,52.79277776481406,26.955000000016298
312269.9397,33.86338149326157,-2.6519844834878854,33.542018025742614,57.460170893244765,26.956000000005588
312269.9407,35.427882972899404,1.6748069296628147,34.90460090543791,61.03868497029497,26.956999999994878
312269.9417,36.48063663415003,6.162764973699886,35.79339296316903,63.44983313980518,26.958000000042375
312269.9427,36.96182924314418,10.651023906278231,36.15361143749299,64.63845590480732,26.959000000031665
312269.9437,36.82188801413638,14.97776148422278,35.940072453165605,64.57768455758642,26.960000000020955
312269.9447,36.02783133838822,18.989288888879315,35.122856753931885,63.27355296873601,26.961000000010245
312269.9457,34.569161236409485,22.548723863631132,33.69254600049838,60.76867659393598,26.961999999999534
312269.9467,32.46261140550115,25.54356003597004,31.664419160327906,57.144438589022855,26.962999999988824
312269.9477,29.75514307931104,27.89152793633128,29.0810696264858,52.52120685409943,26.96400000003632
312269.9487,26.524724381802752,29.54428193727777,26.013032824548446,47.05624632578352,26.96500000002561
312269.9497,22.878624218854387,30.488629810325765,22.557189269202727,40.93917571712907,26.9660000000149
312269.9507,18.94918047747754,30.745231136265616,18.832912665594662,34.385030290088025,26.96700000000419
312269.9517,14.887242383395328,30.364908029505507,14.976146987244961,27.62521218625878,26.96799999999348
312269.9527,10.853714964150223,29.4229163565087,11.131799636252861,20.89681623220119,26.969000000040978
312269.9537,7.00982729184935,28.011698783956444,7.44500984054132,14.43099174231608,26.970000000030268
312269.9547,3.5068862854229583,26.232766487083953,4.0519752564706195,8.44112225387429,26.971000000019558
312269.9557,0.47635009072583845,24.188422584982014,1.0710827282115258,3.111662442985563,26.972000000008848
312269.9567,-1.9789484259995576,21.974041346909804,-1.4049155482802498,-1.411542439756967,26.972999999998137
312269.9577,-3.791677428955725,19.671553086231473,-3.315012046603852,-5.028715032773502,26.974000000045635
312269.9587,-4.93438020412951,17.344661705747203,-4.6338066609824855,-7.690794246120855,26.975000000034925
312269.9597,-5.420953051523925,15.036151873915921,-5.372773877617502,-9.400890889087899,26.976000000024214
312269.9607,-5.305076783541994,12.767441975839704,-5.578804677442386,-10.212409667772508,26.977000000013504
312269.9617,-4.675711634674234,10.540326323387882,-5.330125634240943,-10.223954223484936,26.978000000002794
312269.9627,-3.6500171332254103,8.340645696469176,-4.729922062432655,-9.571382767640866,26.978999999992084
312269.9637,-2.36427873926598,6.14344833613984,-3.8981880525319843,-8.417604067254183,26.98000000003958
312269.9647,-0.9635914505057642,3.9190705571283018,-2.9624757641161255,-6.940877432646408,26.98100000002887
312269.9657,0.4088484287176899,1.6394894846496253,-2.0483056902518992,-5.322490579617943,26.98200000001816
312269.9667,1.6219678088079854,-0.7157130731530074,-1.2700206475939027,-3.734726100285316,26.98300000000745
312269.9677,2.565736399451169,-3.1543861212864157,-0.7228172690508372,-2.3299877330743386,26.98399999999674
312269.9687,3.158087726269844,-5.6683457241643955,-0.4765746454862444,-1.231845587155886,26.985000000044238
312269.9697,3.34933650667238,-8.231756601944227,-0.5719314679858315,-0.5285854929588761,26.986000000033528
312269.9707,3.1238187707283522,-10.80151479693415,-1.018856629188677,-0.26962791735656017,26.987000000022817
312269.9717,2.498733402674151,-13.319584789977679,-1.7977333524515169,-0.4649367247393769,26.988000000012107
312269.9727,1.520412958261375,-15.717048548135434,-2.862754775089354,-1.0872899906970475,26.989000000001397
312269.9737,0.2584741960081751,-17.91945374711502,-4.147230344886487,-2.0770566060491635,26.989999999990687
312269.9747,-1.201525999826556,-19.852920483078943,-5.5702457898669495,-3.3489339115224928,26.991000000038184
312269.9757,-2.766191719032116,-21.450392603341758,-7.044018965502867,-4.799969330516262,26.992000000027474
312269.9767,-4.3423696721750344,-22.65740833343705,-8.481258166691338,-6.318123517013005,26.993000000016764
312269.9777,-5.844471496912985,-23.436816008790636,-9.801860720579253,-7.790637877887819,26.994000000006054
312269.9787,-7.200403939553395,-23.771969058265668,-10.938383494256176,-9.111542498969461,26.994999999995343
312269.9797,-8.355639892516828,-23.66808887215392,-11.839862916483122,-10.187771989346558,26.99600000004284
312269.9807,-9.275170176658538,-23.151669175411662,-12.473744777501512,-10.943531535341625,26.99700000003213
312269.9817,-9.943302607747034,-22.267992358640672,-12.82588455550081,-11.322754571578141,26.99800000002142
312269.9827,-10.361498159234232,-21.07701708624767,-12.898776916043916,-11.289696010622086,26.99900000001071
312269.9837,-10.544631416494086,-19.648058427786317,-12.708348455733578,-10.82789017599977,27.0
312269.9847,-10.516214358143484,-18.053800498755173,-12.279783330702351,-9.93785198129537,27.00099999998929
312269.9857,-10.30321395759166,-16.364245258159084,-11.642933965194839,-8.633999140551754,27.002000000036787
312269.9867,-9.93111660492401,-14.641203340813103,-10.827890931328623,-6.941313470801983,27.003000000026077
312269.9877,-9.419844434780098,-12.933873430277103,-9.861245933296303,-4.8922382194566545,27.004000000015367
312269.9887,-8.781016045286579,-11.27594173181799,-8.76348458070653,-2.524229932407813,27.005000000004657
312269.9897,-8.016879133726718,-9.684474217085318,-7.547802088659252,0.12174215817387667,27.005999999993946
312269.9907,-7.121042901709986,-8.160687564511393,-6.220460705062411,3.00161380202587,27.007000000041444
312269.9917,-6.0809248528947855,-6.692489036076183,-4.782621175754875,6.067596193772515,27.008000000030734
312269.9927,-4.881622330985316,-5.258490783628356,-3.233401776257466,9.26669998863648,27.009000000020023
312269.9937,-3.5107453996743088,-3.833049087397113,-1.573766420172874,12.53875350519105,27.010000000009313
312269.9947,-1.9636228949121008,-2.3917696661402084,0.18926560338463658,15.814354249409874,27.010999999998603
312269.9957,-0.24823112520493393,-0.916867773301498,2.0386497373568133,19.013238265879092,27.0120000000461
312269.9967,1.610798170668054,0.5982180965504703,3.9441404591098586,22.043538039280886,27.01300000003539
312269.9977,3.569657397632767,2.1454881190275565,5.860395932713801,24.802327076372737,27.01400000002468
312269.9987,5.564758049795385,3.7007210480062036,7.7267262902971146,27.177724590737455,27.01500000001397
312269.9997,7.514281083214964,5.2237252399338505,9.4686833322324,29.052669257646208,27.01600000000326
312270.0007,9.321904712679608,6.660539041831659,11.001497873223153,30.310283582773316,27.01699999999255
312270.0017,10.882505050788732,7.947417730766473,12.235172678511017,30.84055950986039,27.018000000040047
312270.0027,12.089412694182329,9.016257052071971,13.080854152714734,30.547921658357843,27.019000000029337
312270.0037,12.842631857812892,9.800948962483847,13.45795371934128,29.359085858087045,27.020000000018626
312270.0047,13.057306125971248,10.244059025677794,13.301386135586245,27.230542983333606,27.021000000007916
312270.0057,12.671659303158712,10.30316787354713,12.568248107645159,24.154972164635918,27.021999999997206
312270.0067,11.653657705339771,9.956236272803718,11.243281957975404,20.16592798097873,27.023000000044703
312270.0077,10.005730897982145,9.205433367503124,9.34255480602985,15.340251431091364,27.024000000033993
312270.0087,7.767043640558473,8.079003192799252,6.914926491177295,9.797816213932723,27.025000000023283
312270.0097,5.013018563584891,6.630922743887833,4.041066386903704,3.6984263665474923,27.026000000012573
312270.0107,1.852047803106004,4.938308747633222,0.829993024890289,-2.764089458552298,27.027000000001863
312270.0117,-1.5804198099737596,3.0967403297604035,-2.5866689733936727,-9.370308530141374,27.027999999991152
312270.0127,-5.129994665282479,1.2138608903894912,-6.0623136153375965,-15.885674888352277,27.02900000003865
312270.0137,-8.633045051643156,-0.5982140845755507,-9.444285990060246,-22.072317328997904,27.03000000002794
312270.0147,-11.927213798242795,-2.231041482434215,-12.583425866195983,-27.701426631344802,27.03100000001723
312270.0157,-14.861911841067833,-3.58784978582732,-15.343465192650262,-32.5653352103449,27.03200000000652
312270.0167,-17.307946911618323,-4.590704502838338,-17.609529589243586,-36.48845503606629,27.03299999999581
312270.0177,-19.16552036914143,-5.186223987222969,-19.29506874236892,-39.336313144114264,27.034000000043306
312270.0187,-20.369968594588897,-5.349359379303348,-20.34667606415235,-41.02207107575296,27.035000000032596
312270.0197,-20.89482386149676,-5.084926378017708,-20.746441408681672,-41.5101120219132,27.036000000021886
312270.0207,-20.75200457122904,-4.4267783928020545,-20.51169492282964,-40.81650960638675,27.037000000011176
312270.0217,-19.98919420862343,-3.4347211668827726,-19.69222523678868,-39.006434537724125,27.038000000000466
312270.0227,-18.684709122130023,-2.1894683343775485,-18.365270233400658,-36.18878825275212,27.038999999989755
312270.0237,-16.940365032111988,-0.7861068896348429,-16.6287637199972,-32.50855572803558,27.040000000037253
312270.0247,-14.873011903428159,0.6733344893641051,-14.593459586180572,-28.13752542119306,27.041000000026543
312270.0257,-12.605502282111086,2.087554132880163,-12.374634168445505,-23.264120016377664,27.042000000015832
312270.0267,-10.257881427678607,3.3632182384283147,-10.084080982236019,-18.083110256726183,27.043000000005122
312270.0277,-7.939537558221702,4.421166465282893,-7.823059451976375,-12.785944982274172,27.043999999994412
312270.0287,-5.742933236442729,5.201088088075146,-5.67674677135557,-7.552329220879804,27.04500000004191
312270.0297,-3.7393666840605064,5.664332024249296,-3.7105812035054546,-2.543530173212525,27.0460000000312
312270.0307,-1.9770020549959548,5.794700024347569,-1.9686921053855957,2.102295899125832,27.04700000002049
312270.0317,-0.48118125337767204,5.59726841850295,-0.47440575114291506,6.272665668290885,27.04800000000978
312270.0327,0.7431910610588138,5.095470886013659,0.7673832945170586,9.881328201063809,27.04899999999907
312270.0337,1.7075916864711629,4.326834648766019,1.766358753102812,12.867106156252502,27.050000000046566
312270.0347,2.4347033415137,3.337879979342766,2.5419613774319734,15.191439152494947,27.051000000035856
312270.0357,2.952759724498835,2.178756937690742,3.118190110301963,16.835134246672695,27.052000000025146
312270.0367,3.290073623361749,0.8981981240138093,3.51863054309281,17.794854609791848,27.053000000014435
312270.0377,3.470364244421589,-0.4606878399872463,3.7622682136751378,18.079844611806333,27.054000000003725
312270.0387,3.5093908713996274,-1.8633643636671058,3.860540476357189,17.7093030115339,27.054999999993015
312270.0397,3.4132399839102683,-3.285287310760053,3.8159315092449035,16.710686617875563,27.056000000040513
312270.0407,3.1784189290731386,-4.711703379402504,3.6222360613720888,15.119069766649528,27.057000000029802
312270.0417,2.793701363499895,-6.135914922162403,3.2664272721323906,12.977518088254703,27.058000000019092
312270.0427,2.2434695011063552,-7.556271902727532,2.7318818997706975,10.338277045014804,27.059000000008382
312270.0437,1.5121264225477593,-8.972295457765116,2.002561302051816,7.264444253782991,27.05999999999767
312270.0447,0.589026129239882,-10.380437966859729,1.067634526316415,3.8317044502505357,27.06100000004517
312270.0457,-0.5266972349134252,-11.770031108660111,-0.074027440778641,0.12966743700546554,27.06200000003446
312270.0467,-1.8220194472858902,-13.119961035100749,-1.41005369790871,-3.7376326975009593,27.06300000002375
312270.0477,-3.2671872087447116,-14.396539468239382,-2.911974860275738,-7.652445643147611,27.06400000001304
312270.0487,-4.814574811051446,-15.552918099205346,-4.534208196063618,-11.485467617324717,27.06500000000233
312270.0497,-6.399486914121524,-16.530233308129365,-6.214849287814178,-15.099549543756059,27.065999999991618
312270.0507,-7.942953969932951,-17.260485161370717,-7.878305267335737,-18.354865738928172,27.067000000039116
312270.0517,-9.356354210681747,-17.670967550952682,-9.439609800971812,-21.115282315731204,27.068000000028405
312270.0527,-10.547496770831902,-17.689894440959954,-10.810078121230948,-23.25550760612177,27.069000000017695
312270.0537,-11.427635241713414,-17.25272828463284,-11.903810453090168,-24.668486453045112,27.070000000006985
312270.0547,-11.918767248200831,-16.308625345622918,-12.644450008364755,-25.27243018315621,27.070999999996275
312270.0557,-11.960525833049543,-14.826378732330202,-12.97155840336918,-25.016863340116632,27.072000000043772
312270.0567,-11.515988430814803,-12.799267512021602,-12.84599204326438,-23.887119656739074,27.073000000033062
312270.0577,-10.575817803848748,-10.24830719158736,-12.25374634828643,-21.906829646579105,27.07400000002235
312270.0587,-9.16029826255033,-7.223535007817689,-11.207872884920803,-19.13810082271555,27.07500000001164
312270.0597,-7.319025330670305,-3.803139527437303,-9.74825404477904,-15.679283919671363,27.07600000000093
312270.0607,-5.128228476449053,-0.09044079944064115,-7.939223080282312,-11.660425918377138,27.07699999999022
312270.0617,-2.6859324833361327,3.7910746482230624,-5.865223702690112,-7.236712670234068,27.07800000003772
312270.0627,-0.10537073059668413,7.704279915534024,-3.624892228978001,-2.580380308477413,27.07900000002701
312270.0637,2.492767961232262,11.505967263722068,-1.3240972206080703,2.1282923580842525,27.080000000016298
312270.0647,4.988565399925108,15.054820201751777,0.9314289116652075,6.710222187444516,27.081000000005588
312270.0657,7.270835727947761,18.219143778169677,3.043195135805379,10.9962912035367,27.081999999994878
312270.0667,9.244114595201749,20.883728316743937,4.926152800750065,14.835002522117135,27.083000000042375
312270.0677,10.834067011628267,22.955311509611608,6.513445664832536,18.09849364209379,27.084000000031665
312270.0687,11.990865037120582,24.36624453942503,7.759311442791841,20.68654302212564,27.085000000020955
312270.0697,12.69029107210669,25.076145585419358,8.639926654749715,22.528403609639987,27.086000000010245
312270.0707,12.932551272763908,25.071520777435815,9.152196850988526,23.582507575300195,27.086999999999534
312270.0717,12.739013458602853,24.363528544552448,9.310704254471908,23.83428863056499,27.087999999988824
312270.0727,12.147291484929566,22.98423855335435,9.143213058004429,23.292541455860515,27.08900000003632
312270.0737,11.205262196673154,20.98187328434794,8.685279624524542,21.984864305053158,27.09000000002561
312270.0747,9.96470479464789,18.41560484704066,7.974605276780734,19.95279782724601,27.0910000000149
312270.0757,8.475284752783026,15.350503260639815,7.045793444046344,17.247273638267124,27.09200000000419
312270.0767,6.779561485213,11.853192689934577,5.926127519305562,13.924920031579205,27.09299999999348
312270.0777,4.909584512481239,7.988673057318309,4.63287474988848,10.045646125332386,27.094000000040978
312270.0787,2.885467916921912,3.8186161906442795,3.1724554113782917,5.671752593441301,27.095000000030268
312270.0797,0.7161146350517417,-0.5987365231978296,1.5416116722486415,0.8686147844092335,27.096000000019558
312270.0807,-1.5979775977626838,-5.207145237640665,-0.2695126482302783,-4.293226424558319,27.097000000008848
312270.0817,-4.060133820205562,-9.949673381308658,-2.2726892404571313,-9.73492702348476,27.097999999998137
312270.0827,-6.671658037408931,-14.765147594779219,-4.475819531940359,-15.36567752222866,27.099000000045635
312270.0837,-9.425404045092437,-19.584325201750293,-6.876691596992171,-21.0791455536541,27.100000000034925
312270.0847,-12.299531354766811,-24.32638261493266,-9.457008085514456,-26.750694456291463,27.101000000024214
312270.0857,-15.252233582187431,-28.896336309656448,-12.177423554344454,-32.236017217236984,27.102000000013504
312270.0867,-18.21816238996959,-33.18393881180111,-14.974264039972532,-37.371721071852015,27.103000000002794
312270.0877,-21.10712902690125,-37.06446078422909,-17.75846507358492,-41.97822937553928,27.103999999992084
312270.0887,-23.80545976003183,-40.401588428636565,-20.41706820668772,-45.865148625236195,27.10500000003958
312270.0897,-26.180129772036466,-43.0524501028423,-22.817378177026352,-48.83899970237477,27.10600000002887
312270.0907,-28.08552604209826,-44.87455812840058,-24.81362526119996,-50.712957154444744,27.10700000001816
312270.0917,-29.37241968795182,-45.73423385535133,-26.255724685289167,-51.318003663531485,27.10800000000745
312270.0927,-29.898488732287444,-45.51589835507961,-26.999501796445557,-50.51471280591856,27.10899999999674
312270.0937,-29.539547360808267,-44.13147718476759,-26.917580293086214,-48.20474245624574,27.110000000044238
312270.0947,-28.20052674171956,-41.52910044044925,-25.910028887632848,-44.34106893196672,27.111000000033528
312270.0957,-25.82522788740691,-37.70028753919762,-23.913840728023406,-38.93602632503325,27.112000000022817
312270.0967,-22.403933276087745,-32.684891433726534,-20.91038360559837,-32.06633650609823,27.113000000012107
312270.0977,-17.978116789449924,-26.573233406807894,-16.930103295303347,-23.874514864242443,27.114000000001397
312270.0987,-12.641718380866616,-19.505074353136393,-12.05397545740249,-14.566299199314077,27.114999999990687
312270.0997,-6.538730935235193,-11.665322794617003,-6.411464842625177,-4.404052299343141,27.116000000038184
312270.1007,0.1428432444823977,-3.2766509094590135,-0.1750405628471639,6.303593663239371,27.117000000027474
312270.1017,7.180298302817737,5.410547278921544,6.448413391389054,17.215278798428375,27.118000000016764
312270.1027,14.328142506150781,14.130191172318632,13.228688987603938,27.972808032718014,27.119000000006054
312270.1037,21.331749007531016,22.613702026632097,19.925029274828855,38.21836103104968,27.119999999995343
312270.1047,27.94170850555494,30.60339941462514,26.29962735658809,47.611870739063384,27.12100000004284
312270.1057,33.927790164751734,37.86513709089088,32.13082895115743,55.84740025172472,27.12200000003213
312270.1067,39.091450717000555,44.199270077537804,37.22504746130845,62.66742224332612,27.12300000002142
312270.1077,43.27595817608283,49.44918398122889,41.42651583754167,67.87406937490204,27.12400000001071
312270.1087,46.37340436833156,53.50682291051531,44.62419022157139,71.33666343971039,27.125
312270.1097,48.32815027447368,56.31490516257159,46.755368627947895,72.9951243222104,27.12599999998929
312270.1107,49.136555079751645,57.865793019229464,47.805870781311334,72.8591812397039,27.127000000036787
