TimeStamp,ECR,FCR,ECU,FCU,time_index
312248.9837,-1.2289325111621945,4.411309745009732,1.4565323864460091,7.665175773012226,6.0
312248.9847,-1.4204221831197907,3.1536548098123025,1.3766530255832015,7.09947056272523,6.00099999998929
312248.9857,-1.7686245074086286,1.666657330466109,1.0986858494653122,6.256550689711791,6.002000000036787
312248.9867,-2.2897274825192553,-0.04373778720340437,0.5996904054190816,5.128119010456474,6.003000000026077
312248.9877,-2.9776373344688882,-1.9498398888576072,-0.1202473873577003,3.730039199655531,6.004000000015367
312248.9887,-3.8036970872531017,-4.002572205553942,-1.0373826167210767,2.1024308307224313,6.005000000004657
312248.9897,-4.7187209484118,-6.133944609334379,-2.1060105968653287,0.3074212251487739,6.005999999993946
312248.9907,-5.6571519857810495,-8.26143582376978,-3.2623304690680137,-1.5752491404724522,6.007000000041444
312248.9917,-6.542943178399231,-10.293895232391211,-4.430096136186108,-3.4543622649777164,6.008000000030734
312248.9927,-7.296593888947276,-12.138425981547321,-5.527505372320426,-5.234524947788904,6.009000000020023
312248.9937,-7.842661313241663,-13.707614758978751,-6.474659895928757,-6.823950591951296,6.010000000009313
312248.9947,-8.117020258917307,-14.926438721224057,-7.2008764596143955,-8.141987337940613,6.010999999998603
312248.9957,-8.073168966684198,-15.738209809977105,-7.651146452777766,-9.125684711858215,6.0120000000461005
312248.9967,-7.686971026029117,-16.109008093231186,-7.7911271397127235,-9.73478490944849,6.01300000003539
312248.9977,-6.9593745760171215,-16.03019974288614,-7.610192832427479,-9.954678029941473,6.01400000002468
312248.9987,-5.916845068613735,-15.51881766589166,-7.12226461648534,-9.797057899924145,6.01500000001397
312248.9997,-4.609467842301303,-14.615785786669294,-6.36435395230622,-9.29823719098778,6.01600000000326
312249.0007,-3.1069001991968626,-13.382171734373882,-5.392977304176966,-8.515305574494217,6.016999999992549
312249.0017,-1.4925579360766825,-11.893837417266486,-4.278804229280601,-7.520520684340268,6.018000000040047
312249.0027,0.14341146311200903,-10.235004801580176,-3.1000701188078357,-6.39448861465954,6.019000000029337
312249.0037,1.7117035505258082,-8.49135096466604,-1.9354007042246608,-5.2188023941596295,6.0200000000186265
312249.0047,3.131265685694625,-6.743283025239525,-0.8567474411956228,-4.06885264614682,6.021000000007916
312249.0057,4.335846704716426,-5.060016657958556,0.07688382009429116,-3.0075002548135603,6.021999999997206
312249.0067,5.279081873697922,-3.4949945848796213,0.8243119114932375,-2.0802089974342466,6.0230000000447035
312249.0077,5.937653041618739,-2.0830426126955452,1.3652098888113868,-1.312086061816243,6.024000000033993
312249.0087,6.312253004222924,-0.8394843690357231,1.7010135152569787,-0.7070851231686468,6.025000000023283
312249.0097,6.42629715459963,0.23876057229329736,1.8536485524657507,-0.2494093788453962,6.026000000012573
312249.0107,6.322543576611385,1.1702675560589568,1.8622328573811713,0.09306788083948994,6.027000000001863
312249.0117,6.0579835776805515,1.9847373220173148,1.7781088707426869,0.36374826448327297,6.027999999991152
312249.0127,5.69752876495942,2.717658613908225,1.6587255285184386,0.611163701932648,6.02900000003865
312249.0137,5.3071323072539185,3.4045871069662343,1.5609999399684034,0.8823941182114324,6.03000000002794
312249.0147,4.9470303472143895,4.075657362974254,1.5348375297065389,1.2167408214547613,6.0310000000172295
312249.0157,4.665770202094968,4.750914847168545,1.6174701288323856,1.6403213361672724,6.032000000006519
312249.0167,4.495607218863679,5.4369662616347485,1.829186775437014,2.162157080954539,6.032999999995809
312249.0177,4.449710539525184,6.1253075026781785,2.170890252402867,2.7721736880598633,6.0340000000433065
312249.0187,4.521433748951356,6.79251334065448,2.6237277655699973,3.4413398696436626,6.035000000032596
312249.0197,4.685697744714697,7.402278959299506,3.150834982967708,4.123953714581772,6.036000000021886
312249.0207,4.90232087036112,7.909110170237055,3.7010196661406534,4.761866618827745,6.037000000011176
312249.0217,5.120936401020202,8.263285803026621,4.21401545085292,5.290236384956581,6.038000000000466
312249.0227,5.2869791348393,8.416579888607945,4.6267773924676705,5.6442421216031935,6.0389999999897555
312249.0237,5.348116761114757,8.328146563914455,4.880184475067157,5.766090313342388,6.040000000037253
312249.0247,5.260458304943578,7.969945847389275,4.9254710047921995,5.611604262280779,6.041000000026543
312249.0257,4.993895537656893,7.331126367737655,4.72973304465616,5.155721993975266,6.0420000000158325
312249.0267,4.53602140911643,6.420878348849372,4.279945504245749,4.396327757163548,6.043000000005122
312249.0277,3.894213518358533,5.269417331587907,3.5850714209909054,3.355999894698592,6.043999999994412
312249.0287,3.095656071870468,3.9269419074104746,2.6760330056711057,2.0814578835831896,6.0450000000419095
312249.0297,2.185282236717299,2.4606091969485653,1.6035256250855516,0.6407142708012845,6.046000000031199
312249.0307,1.2218295265482866,0.9497701258361209,0.4338701413977381,-0.8818387234520947,6.047000000020489
312249.0317,0.272392856772774,-0.5201169701805256,-0.7567053047196286,-2.3919749892427133,6.048000000009779
312249.0327,-0.5939860074474096,-1.8643388851110603,-1.8888053269190586,-3.793217468486711,6.048999999999069
312249.0337,-1.3130531586283798,-3.005907031045936,-2.8869764839342027,-4.9947577155920895,6.050000000046566
312249.0347,-1.8317247706587871,-3.8820029723960143,-3.6864932311519056,-5.9189737461509315,6.051000000035856
312249.0357,-2.1134704497872567,-4.449271933624561,-4.239156797832492,-6.507841527312652,6.052000000025146
312249.0367,-2.1421462272128897,-4.687449798347906,-4.517537397426512,-6.727637586293498,6.0530000000144355
312249.0377,-1.9238760626393585,-4.600963695517023,-4.517240983901845,-6.571491020258159,6.054000000003725
312249.0387,-1.4867718171755502,-4.218337008852154,-4.2569744081082055,-6.059547154836753,6.054999999993015
312249.0397,-0.8784946901221684,-3.58943811674442,-3.776398412713718,-5.236732435093584,6.0560000000405125
312249.0407,-0.16187509286689772,-2.78081813532374,-3.131975232925916,-4.168338735804772,6.057000000029802
312249.0417,0.5909982962519813,-1.869566339824088,-2.3912152250969125,-2.933852887992822,6.058000000019092
312249.0427,1.3056551988757081,-0.9362548667020066,-1.6258854016779212,-1.6196236080374826,6.059000000008382
312249.0437,1.912421463219625,-0.05763274182650487,-0.9048463043760131,-0.3110669747161976,6.059999999997672
312249.0447,2.353198426047349,0.7002454929649173,-0.2872219655857016,0.9148474712507636,6.061000000045169
312249.0457,2.5871781914845093,1.2878118662857316,0.18342314463604836,1.9961189797102479,6.062000000034459
312249.0467,2.5949282296809932,1.6761556813903813,0.48332345662333637,2.890635107873796,6.063000000023749
312249.0477,2.3804337576716996,1.8591855155853794,0.6107453015675326,3.579036415294658,6.0640000000130385
312249.0487,1.9708823798057513,1.8535872376216171,0.5859870136640528,4.065276721741155,6.065000000002328
312249.0497,1.414193411267651,1.6965935499005396,0.4491384616524125,4.374855417837535,6.065999999991618
312249.0507,0.7745129768457811,1.4417897258620995,0.25581265022333327,4.550925928559106,6.0670000000391155
312249.0517,0.12609404861689383,1.1533675509902659,0.07126218824390655,4.648691291046948,6.068000000028405
312249.0527,-0.4538612846674245,0.899386902829826,-0.03654622326907721,4.728663723159585,6.069000000017695
312249.0537,-0.8927173146014933,0.7446977136060128,-0.004221355947448964,4.8494738643471935,6.070000000006985
312249.0547,-1.129560779512744,0.7442052998255426,0.22011568128946032,5.0609565174099655,6.070999999996275
312249.0557,-1.1213123421844033,0.9371263953923246,0.6709329733022147,5.398209303487176,6.072000000043772
312249.0567,-0.8472065735428261,1.3427852653979158,1.3610153718479232,5.877221777284472,6.073000000033062
312249.0577,-0.3112085340985977,1.9583486291335204,2.2792501542013293,6.492515054984574,6.074000000022352
312249.0587,0.45786820888591084,2.7587095079708184,3.3907047206585728,7.2170314389517465,6.0750000000116415
312249.0597,1.4085578551934566,3.6985219247231464,4.639008932495706,8.004289641265098,6.076000000000931
312249.0607,2.471047804636073,4.716180871808565,5.950831587335334,8.792596036307726,6.076999999990221
312249.0617,3.5631872351386162,5.7393552836573125,7.242037366192509,9.510898039418839,6.078000000037719
312249.0627,4.59763135288943,6.69153397016963,8.424947131725748,10.085702279215454,6.079000000027008
312249.0637,5.489447406293064,7.498949836721687,9.416016622271368,10.448373744101609,6.080000000016298
312249.0647,6.16346737757081,8.09721525980483,10.143206879716498,10.542092981862233,6.081000000005588
312249.0657,6.5607002153353475,8.437034142245215,10.552348253851271,10.327780542097642,6.081999999994878
312249.0667,6.643210678256392,8.488450504123277,10.611895800718992,9.7883980119392,6.083000000042375
312249.0677,6.3970229952149475,8.24324001456559,10.315628039098861,8.931193364060919,6.084000000031665
312249.0687,5.832800736173886,7.7152350823065765,9.683038394398988,7.787659355621318,6.085000000020955
312249.0697,4.984270565161735,6.938577785894699,8.757390087902763,6.41119764031913,6.0860000000102445
312249.0707,3.904575714390478,5.964097955491888,7.60162922658649,4.872706082108007,6.086999999999534
312249.0717,2.6609437240933276,4.854196141369611,6.292555670243887,3.254510391837062,6.087999999988824
312249.0727,1.3282128239829354,3.6767551139269425,4.913817020751564,1.6432236249845202,6.089000000036322
312249.0737,-0.018133276553695468,2.4986948619287435,3.5484017181891185,0.1222222993773804,6.090000000025611
312249.0747,-1.3087316614957922,1.3798159296747332,2.2713520357844295,-1.235534450229836,6.091000000014901
312249.0757,-2.4862446988983606,0.367541583826804,1.1433924520149956,-2.3736498999909186,6.092000000004191
312249.0767,-3.5098330910683715,-0.506925695982499,0.20607599273598343,-3.2568078230390665,6.092999999993481
312249.0777,-4.35777711849398,-1.23066397799936,-0.5211001800294011,-3.873232226148097,6.094000000040978
312249.0787,-5.028016175188987,-1.8091209862771842,-1.0413535591426442,-4.234859434565112,6.095000000030268
312249.0797,-5.536589331312219,-2.264246399785165,-1.3790124802902313,-4.375217871790658,6.096000000019558
312249.0807,-5.914173287755015,-2.630880141324416,-1.5758351114007352,-4.345236004122042,6.097000000008848
312249.0817,-6.201107425041573,-2.9517867739478882,-1.6856402520521063,-4.207402388263692,6.097999999998137
312249.0827,-6.441449417455727,-3.271864107306799,-1.767803832111055,-4.028863560798143,6.099000000045635
312249.0837,-6.676703714549777,-3.632138961540499,-1.880285011001818,-3.8741497081201515,6.100000000034925
312249.0847,-6.939899149799486,-4.064186198055992,-2.072890154707396,-3.798254368094964,6.101000000024214
312249.0857,-7.250657504622329,-4.585566171541293,-2.381457374304525,-3.8407592116055977,6.102000000013504
312249.0867,-7.611795298338583,-5.19677461089013,-2.8235512784689782,-4.021591621544713,6.103000000002794
312249.0877,-8.007846123581977,-5.880047503278743,-3.3961062735575465,-4.338841405314337,6.103999999992084
312249.0887,-8.405695758118704,-6.600176752448596,-4.075262016379183,-4.768859326179024,6.105000000039581
312249.0897,-8.757306345578447,-7.307288676186227,-4.818415637463772,-5.268634163733462,6.106000000028871
312249.0907,-9.00429057662399,-7.94133700191703,-5.568293656387528,-5.780218872820692,6.107000000018161
312249.0917,-9.083903478633806,-8.437884864024886,-6.258643943403314,-6.2367723087445395,6.108000000007451
312249.0927,-8.935867512509528,-8.734614132997722,-6.820984627501279,-6.569621003629952,6.10899999999674
312249.0937,-8.5093515551043,-8.777918971735891,-7.19173867798147,-6.715641600128915,6.110000000044238
312249.0947,-7.769395859497918,-8.528922232887345,-7.319040754880699,-6.624229097809528,6.111000000033528
312249.0957,-6.702116556251286,-7.968300407990363,-7.168531122351067,-6.263152687819044,6.112000000022817
312249.0967,-5.318131137294385,-7.099411109176326,-6.727547336219295,-5.622706239495521,6.113000000012107
312249.0977,-3.65381055118176,-5.949376261983389,-6.0072787851814455,-4.717724330173437,6.114000000001397
312249.0987,-1.7701683540397417,-4.567969013837449,-5.042646961551606,-3.5872412022921076,6.114999999990687
312249.0997,0.2505769366746697,-3.0243639480529545,-3.8898962495676512,-2.291799112351171,6.116000000038184
312249.1007,2.310505428706763,-1.4020179392713483,-2.622104333453099,-0.9086418786819518,6.117000000027474
312249.1017,4.303102691082201,0.20786742114372617,-1.3230260561224703,0.4747633555698673,6.118000000016764
312249.1027,6.121347936531528,1.7137095018541557,-0.07984959661436426,1.7682683273647954,6.119000000006054
312249.1037,7.666060730452326,3.0310568708888543,1.0244470716490175,2.8869357908090545,6.119999999995343
312249.1047,8.853750852015002,4.089552106047943,1.918409130693939,3.7585303971047277,6.121000000042841
312249.1057,9.623255207964545,4.838693793038816,2.548385651137187,4.329892804244582,6.122000000032131
312249.1067,9.940553325735117,5.251855788027376,2.883173559973674,4.571586677465848,6.12300000002142
312249.1077,9.801318834335307,5.328183812619462,2.9165764335166426,4.480372804474073,6.12400000001071
312249.1087,9.230972739002908,5.092188531237072,2.6676298074208202,4.079272593273751,6.125
312249.1097,8.282235343984066,4.591071362843161,2.178469355202373,3.4152145843111263,6.12599999998929
312249.1107,7.030405306676617,3.890033544438473,1.5100456865975969,2.554489840657502,6.127000000036787
312249.1117,5.566804372543853,3.066009768854258,0.7360975512351795,1.5764526234497847,6.128000000026077
312249.1127,3.9909947663526406,2.2004166709201995,-0.06403634069155195,0.5660711511025759,6.129000000015367
312249.1137,2.4024869286302044,1.3715991553057787,-0.8130742574291384,-0.39395689559375785,6.130000000004657
312249.1147,0.8926977694451523,0.6476850782551167,-1.443179096748108,-1.2307688140211872,6.130999999993946
312249.1157,-0.4621100836171086,0.08051843029610299,-1.9023647335050378,-1.8878584874701823,6.132000000041444
312249.1167,-1.6062764412583836,-0.2987632168970843,-2.1593040639213354,-2.32993492772865,6.133000000030734
312249.1177,-2.508105912363775,-0.48209959477481656,-2.2060765706604237,-2.545660107776697,6.134000000020023
312249.1187,-3.1608738303142307,-0.4846166285388652,-2.058592875745786,-2.548015249394521,6.135000000009313
312249.1197,-3.581432236696168,-0.34247982489575296,-1.7546588648558346,-2.372275637551956,6.135999999998603
312249.1207,-3.8066021893805164,-0.10871431924723715,-1.34987073481924,-2.071806568849801,6.1370000000461005
312249.1217,-3.8877489627070054,0.15259247822167127,-0.9117425598562485,-1.7121045806323723,6.13800000003539
312249.1227,-3.884107348122043,0.3731364264843248,-0.5126393160301637,-1.3636780761664102,6.13900000002468
312249.1237,-3.855538947553504,0.48762308120622566,-0.22220415323816023,-1.094473340314743,6.14000000001397
312249.1247,-3.855451242091066,0.4406740935707894,-0.10001785775141979,-0.962594875662718,6.14100000000326
312249.1257,-3.9245849769561265,0.1927466124570859,-0.18920618143712808,-1.0100388501257553,6.141999999992549
312249.1267,-4.0862845976467534,-0.2755032616740109,-0.5116192344836646,-1.2580582269999316,6.143000000040047
312249.1277,-4.343715310176048,-0.9608295026171462,-1.0650553673596328,-1.7046176711445584,6.144000000029337
312249.1287,-4.679294761597892,-1.837202278913666,-1.8228046653017274,-2.324191284866149,6.1450000000186265
312249.1297,-5.05638655490036,-2.8578230607410706,-2.7355635049675033,-3.0699266558690477,6.146000000007916
312249.1307,-5.423078425836528,-3.959147724130076,-3.7355432709396026,-3.8779670101789283,6.146999999997206
312249.1317,-5.717661804773452,-5.06652422391418,-4.742385413607326,-4.673512060371849,6.1480000000447035
312249.1327,-5.875261705297901,-6.100897956517286,-5.670321934109653,-5.378028013725816,6.149000000033993
312249.1337,-5.834952671110568,-6.985938172174045,-6.43590178129726,-5.916904720402005,6.150000000023283
312249.1347,-5.546648753200866,-7.65490215549179,-6.965550888408408,-6.2268140205110685,6.151000000012573
312249.1357,-4.9770776421448675,-8.056583634790579,-7.2022515895615875,-6.262052206269352,6.152000000001863
312249.1367,-4.114238768325746,-8.15978479542072,-7.110713974332225,-5.999248252407455,6.152999999991152
312249.1377,-2.9698934374039228,-7.955898012925004,-6.680558713607125,-5.439978360507045,6.15400000003865
312249.1387,-1.579827221616773,-7.459369433008238,-5.927223544952488,-4.61103081966897,6.15500000002794
312249.1397,-0.0018419604016866793,-6.706023479445555,-4.8905250617993055,-3.5622932802258767,6.1560000000172295
312249.1407,1.688344472304597,-5.749434969838984,-3.6310322790248097,-2.3624649626130374,6.157000000006519
312249.1417,3.4029096084879464,-4.655723481257915,-2.2246167676163227,-1.093006580104719,6.157999999995809
312249.1427,5.048902863866209,-3.4972946503080466,-0.7557157689556792,0.15908964875271167,6.1590000000433065
312249.1437,6.535729497194325,-2.346150710879892,0.6900369246270004,1.3090150631669517,6.160000000032596
312249.1447,7.782437590517433,-1.2674284491073615,2.0331036801455835,2.2816054024507886,6.161000000021886
312249.1457,8.724125536185012,-0.3137936528567955,3.206566273652287,3.017835854028321,6.162000000011176
312249.1467,9.316875918992864,0.47876979999031777,4.1612697785725175,3.47973575229094,6.163000000000466
312249.1477,9.540767630993393,1.0933816255045923,4.86911939874136,3.6532650210802613,6.1639999999897555
312249.1487,9.400707016103766,1.5326848231531474,5.324249545835075,3.5488952373234595,6.165000000037253
312249.1497,8.925032087205414,1.817252606787059,5.541997617583141,3.1998633256124713,6.166000000026543
312249.1507,8.162060324818242,1.9821739591119723,5.555833111654522,2.6582932311837566,6.1670000000158325
312249.1517,7.174948923454509,2.07219146092757,5.412594334037292,1.9895881422684967,6.168000000005122
312249.1527,6.035397104563232,2.135909405019914,5.166550142471765,1.2656626366159962,6.168999999994412
312249.1537,4.816827523075519,2.2196823764049975,4.872916663605649,0.5576942126136061,6.1700000000419095
312249.1547,3.5877274207136596,2.3618253524474806,4.581507740140155,-0.07088366001540368,6.171000000031199
312249.1557,2.405805915440405,2.5877528961691585,4.331178330907184,-0.570453611638743,6.172000000020489
312249.1567,1.3135342854474323,2.9065604960832663,4.145634316746315,-0.9097554314587127,6.173000000009779
312249.1577,0.33549039818246923,3.3094149000893465,4.0310388455030735,-1.0784559019651137,6.173999999999069
312249.1587,-0.5222587946193697,3.769936877409346,3.975658879698828,-1.0875062968666926,6.175000000046566
312249.1597,-1.2707127588580172,4.2465574004552,3.951584675430419,-0.9672689409408922,6.176000000035856
312249.1607,-1.934618659282198,4.686626859313449,3.9183406407562713,-0.7636180982564272,6.177000000025146
312249.1617,-2.54765847017984,5.031876629667956,3.828009858353412,-0.5324235140810206,6.1780000000144355
312249.1627,-3.146675527909716,5.224691093196022,3.6313361872995897,-0.3329870922130004,6.179000000003725
312249.1637,-3.7655735831493584,5.21456022280791,3.284163221548469,-0.22110840287135086,6.179999999993015
312249.1647,-4.429556702354351,4.964057038519678,2.7535290958951433,-0.24249257703278718,6.1810000000405125
312249.1657,-5.150345841806387,4.453723447477919,2.0227644322019467,-0.4271808949623684,6.182000000029802
312249.1667,-5.922910653041627,3.6853486360910463,1.0950350394651616,-0.7855832834811111,6.183000000019092
312249.1677,-6.72410260114454,2.6832766515213478,-0.00507781311894175,-1.3065329582319078,6.184000000008382
312249.1687,-7.513382825792587,1.4935693316417247,-1.2321734461363407,-1.9575822581118096,6.184999999997672
312249.1697,-8.235624421135583,0.18105886331837617,-2.5228016982607926,-2.687535164975259,6.186000000045169
312249.1707,-8.82575518163123,-1.1754693722579248,-3.800186260271769,-3.430988148230963,6.187000000034459
312249.1717,-9.214814645171638,-2.48953860653986,-4.980482835443503,-4.114448936767573,6.188000000023749
312249.1727,-9.336847709191943,-3.674117799941706,-5.9799950760294225,-4.663442590956584,6.1890000000130385
312249.1737,-9.135961500859919,-4.648974827091309,-6.722668281900445,-5.009911725250742,6.190000000002328
312249.1747,-8.572842384833486,-5.347559957791731,-7.147143845789833,-5.099183159826065,6.190999999991618
312249.1757,-7.63006937937195,-5.722773495613534,-7.212690386346914,-4.895810231792143,6.1920000000391155
312249.1767,-6.315665414152183,-5.751073580339944,-6.90342755625353,-4.387705020714055,6.193000000028405
312249.1777,-4.664488912746358,-5.434535042394836,-6.230416182203903,-3.5881376940368535,6.194000000017695
312249.1787,-2.7372697091588,-4.80066288321842,-5.231388541737238,-2.5353852064787663,6.195000000006985
312249.1797,-0.6173158791131536,-3.899975808031895,-3.9681158612140317,-1.290038691642649,6.195999999996275
312249.1807,1.594859874690031,-2.801585738208591,-2.5216348691121766,0.06979413195636784,6.197000000043772
312249.1817,3.7885456759322174,-1.5871879868889909,-0.9857596030889775,1.4549505696368064,6.198000000033062
312249.1827,5.850860770194729,-0.34402551986432395,0.5405312664145745,2.772735346786012,6.199000000022352
312249.1837,7.675102350768423,0.8425149264033708,1.9611335924251976,3.934796632753955,6.2000000000116415
312249.1847,9.168666344614728,1.8959862031091292,3.190544529251974,4.864613167166725,6.201000000000931
312249.1857,10.259835879485452,2.754990359586074,4.160568168278417,5.503886712154237,6.201999999990221
312249.1867,10.90283464633435,3.3777594815986727,4.82538947087488,5.817239414426557,6.203000000037719
312249.1877,11.080703196380282,3.7448040041324493,5.164562770363529,5.794779417231292,6.204000000027008
312249.1887,10.805758929979914,3.8594142437856327,5.183661379555273,5.452304276767412,6.205000000016298
312249.1897,10.117625632009828,3.7460100722004492,4.912559094591905,4.829140304896139,6.206000000005588
312249.1907,9.07904419472486,3.4465420633037827,4.401540837110837,3.983844567518758,6.206999999994878
312249.1917,7.769880884730512,3.015334753524868,3.715646308601326,2.9882025763312345,6.208000000042375
312249.1927,6.2799134474313,2.5129106048983085,2.927817254494572,1.9201185394416407,6.209000000031665
312249.1937,4.701082764469883,1.9994274772332206,2.111529556251647,0.8561003372370326,6.210000000020955
312249.1947,3.1199384604642724,1.5283937958707343,1.3336351743093928,-0.13592217181144484,6.2110000000102445
312249.1957,1.6109770764309634,1.141291212759244,0.6481117743764273,-1.0027429405221424,6.211999999999534
312249.1967,0.2314743431824062,0.8636379246914146,0.09132245351815946,-1.710392052570102,6.212999999988824
312249.1977,-0.9817415812394139,0.7028765729406433,-0.3207662085054873,-2.2465807452747537,6.214000000036322
312249.1987,-2.0133259649156905,0.6482836174787192,-0.5931573026188247,-2.620851750339557,6.215000000025611
312249.1997,-2.868232219454233,0.672890797394993,-0.7501593155344304,-2.8624364738086974,6.216000000014901
312249.2007,-3.568496113291432,0.7372042090432853,-0.8316798645917148,-3.0160494281510952,6.217000000004191
312249.2017,-4.148380366500166,0.7943230113120121,-0.8878771140209809,-3.1360566829312466,6.217999999993481
312249.2027,-4.648430465485674,0.7959160626290364,-0.972732810643597,-3.2796185561944795,6.219000000040978
312249.2037,-5.109096475961244,0.6984252683552913,-1.1372189633557581,-3.4995111306955127,6.220000000030268
312249.2047,-5.564613378944334,0.4688381108503176,-1.4227713953995789,-3.8373660134271828,6.221000000019558
312249.2057,-6.037800362148273,0.08941156376766983,-1.855753584961363,-4.318029428608611,6.222000000008848
312249.2067,-6.536340822755737,-0.4391683461885088,-2.4434962185025877,-4.945633780968877,6.222999999998137
312249.2077,-7.050949417789537,-1.0965525495269466,-3.172341258240277,-5.701807629252934,6.224000000045635
312249.2087,-7.555635800196747,-1.8435898589542494,-4.007919393370432,-6.54623979418272,6.225000000034925
312249.2097,-8.01005627614574,-2.6252417603812,-4.8976661101402215,-7.4195805830968915,6.226000000024214
312249.2107,-8.363726272814679,-3.3753018651268922,-5.775356254029964,-8.248430607691521,6.227000000013504
312249.2117,-8.56167002448453,-4.022485516180683,-6.567232065349024,-8.951958209814704,6.228000000002794
312249.2127,-8.55092897566561,-4.497311050791784,-7.199135495586034,-9.44952071326485,6.228999999992084
312249.2137,-8.287252723941801,-4.739106017613149,-7.603948471457607,-9.668558995446176,6.230000000039581
312249.2147,-7.741265942619337,-4.702448284781082,-7.728605447459644,-9.551999803304268,6.231000000028871
312249.2157,-6.903445086932983,-4.3623961845992065,-7.539975256830621,-9.06443953115381,6.232000000018161
312249.2167,-5.7873462813355,-3.7179697346129865,-7.029011093716376,-8.196493292459852,6.233000000007451
312249.2177,-4.430690445908696,-2.7935064126348084,-6.212728833627538,-6.966863596769555,6.23399999999674
312249.2187,-2.894117611910074,-1.6377145239700233,-5.133779383423448,-5.421897426993546,6.235000000044238
312249.2197,-1.2576495277433393,-0.3204656780000677,-3.857610558243494,-3.6326383292537288,6.236000000033528
312249.2207,0.38487409630706276,1.072415830566716,-2.467445896587883,-1.6896183081560447,6.237000000022817
312249.2217,1.9329172023899712,2.4459158359353865,-1.0575193642411869,0.30415016252533095,6.238000000012107
312249.2227,3.2872983362208945,3.703543258454711,0.27482449822524674,2.2413496902122345,6.239000000001397
312249.2237,4.358441450626081,4.75529669987442,1.4374423981773845,4.01895686510746,6.239999999990687
312249.2247,5.074065411389237,5.525159696029765,2.3513491292653224,5.546479336513083,6.241000000038184
312249.2257,5.3855922239339655,5.957440045439962,2.9575812257396805,6.753079758107747,6.242000000027474
312249.2267,5.272664477529765,6.021374141315981,3.222328502959869,7.592940676542354,6.243000000016764
312249.2277,4.745332030927747,5.713577791890723,3.139854910939731,8.048391088999958,6.244000000006054
312249.2287,3.8436805277101773,5.058125240669327,2.7329362354539115,8.1305271761736,6.244999999995343
312249.2297,2.6349097130471355,4.10425879295043,2.0507742832296834,7.877296160872684,6.246000000042841
312249.2307,1.2081052572827091,2.921951459941485,1.164583022189498,7.3492505523299965,6.247000000032131
312249.2317,-0.33283866788686195,1.5957432855207667,0.16125910623716005,6.623397301024832,6.24800000002142
312249.2327,-1.8775179028301179,0.21742959879826,-0.8642734668439164,5.785741804143646,6.24900000001071
312249.2337,-3.31779780789144,-1.1217186192458097,-1.8173340443884094,4.923243581205472,6.25
312249.2347,-4.556291383279871,-2.338485303229828,-2.611608029777605,4.115947820144502,6.25099999998929
312249.2357,-5.513784952279161,-3.364305497299823,-3.176378282575885,3.430030683044497,6.252000000036787
312249.2367,-6.1349622005631845,-4.1503385256141225,-3.4622124508179235,2.9123992195203874,6.253000000026077
312249.2377,-6.391939821218396,-4.670581492832704,-3.444605608642826,2.5873287704196146,6.254000000015367
312249.2387,-6.285335381145273,-4.9227788311173235,-3.1252763058738995,2.45541753009563,6.255000000004657
312249.2397,-5.842820308264941,-4.92709750038617,-2.531040066148618,2.4949094728304266,6.255999999993946
312249.2407,-5.11534576660948,-4.722752029385754,-1.7104155337386129,2.665205504772642,6.257000000041444
312249.2417,-4.171444130279922,-4.362958049338165,-0.7283324903842563,2.9121710245506693,6.258000000030734
312249.2427,-3.090183287821483,-3.9087485674297087,0.34051276716961787,3.1746765948119844,6.259000000020023
312249.2437,-1.9534685969136618,-3.4222890777504102,1.418987521896078,3.391693663262086,6.260000000009313
312249.2447,-0.8384370375249456,-2.9603661495612994,2.434815396605976,3.5092201346572858,6.260999999998603
312249.2457,0.1893343236550263,-2.568696033646197,3.3271243167880433,3.4863353351045627,6.2620000000461005
312249.2467,1.0811753269984616,-2.2776082891213147,4.051626531976675,3.299777722413138,6.26300000003539
312249.2477,1.808746823124442,-2.099513860054332,4.583952097411748,2.946592015115445,6.26400000002468
312249.2487,2.3652601834556823,-2.0283820927013134,4.9208473856686155,2.444589863958759,6.26500000001397
312249.2497,2.7644324126029147,-2.0412453631302667,5.079166973421697,1.8305901099484814,6.26600000000326
312249.2507,3.0373423255892473,-2.1015437574025277,5.092809086796789,1.1566290460422395,6.266999999992549
312249.2517,3.2275597976429458,-2.163936067727556,5.00794973749088,0.4845357191183798,6.268000000040047
312249.2527,3.385087760534242,-2.1800556635801107,4.877098539925957,-0.12056804197455202,6.269000000029337
312249.2537,3.5597691583557745,-2.1045951531153335,4.752613500812073,-0.5971747527006352,6.2700000000186265
312249.2547,3.7948577222198923,-1.901071482767455,4.680361698387065,-0.893995896906484,6.271000000007916
312249.2557,4.1214279344414875,-1.5466563617823805,4.694193034109748,-0.9755838241759675,6.271999999997206
312249.2567,4.554208604506228,-1.0355522820383587,4.811807342623751,-0.8263881631081353,6.2730000000447035
312249.2577,5.089275385400314,-0.3805424110765131,5.032449938382677,-0.45281984640149325,6.274000000033993
312249.2587,5.7038453396108215,0.38747147272080484,5.336681780500288,0.11690533063064194,6.275000000023283
312249.2597,6.358200555275437,1.2219235650850482,5.68825678802718,0.835149559693179,6.276000000012573
312249.2607,6.999549365450346,2.0648075008670457,6.0379218110289665,1.6392447461346449,6.277000000001863
312249.2617,7.567434677798442,2.8522622870344296,6.328756055614515,2.457472899951507,6.277999999991152
312249.2627,8.000139067875713,3.520971222268008,6.502506246690617,3.216053191012401,6.27900000003865
312249.2637,8.241431519899033,4.014735329855096,6.506267576358925,3.8464488746158714,6.28000000002794
312249.2647,8.246961451170264,4.290556971524684,6.298819238081962,4.2922700052075795,6.2810000000172295
312249.2657,7.989635888186781,4.32360942174275,5.855951363183705,4.515081959019763,6.282000000006519
312249.2667,7.463412468079073,4.110570599487407,5.174214876868607,4.49853215260415,6.282999999995809
312249.2677,6.6850948377940815,3.6709540626671426,4.272677991924324,4.250368131774606,6.2840000000433065
312249.2687,5.693912893840834,3.0462627625707785,3.1924678740825594,3.8021238165697917,6.285000000032596
312249.2697,4.548888871458195,2.2970022019107397,1.9940943188128557,3.206477291673717,6.286000000021886
312249.2707,3.3242100167268425,1.4977989199440065,0.7527725898127677,2.5325110030437656,6.287000000011176
312249.2717,2.103027775214925,0.7310571506359971,-0.44783685033535875,1.8593113053161576,6.288000000000466
312249.2727,0.9702624063457279,0.0797327094606865,-1.5228929857137548,1.2685087951373861,6.2889999999897555
312249.2737,0.005094903222340769,-0.38010576034044485,-2.3939591258879096,0.8364675861794575,6.290000000037253
312249.2747,-0.7261352452691582,-0.586231184452606,-2.9961846498828297,0.6268700711553454,6.291000000026543
312249.2757,-1.1759413883236853,-0.4960712767209849,-3.284391343126657,0.6844098670528898,6.2920000000158325
312249.2767,-1.320025635449305,-0.09082729680253131,-3.2374707315114892,1.0302026850687753,6.293000000005122
312249.2777,-1.159512859376265,0.6224978925614433,-2.8606557162521393,1.6593626783651823,6.293999999994412
312249.2787,-0.7208564410232818,1.6113632115691796,-2.185429869544139,2.5409860488899016,6.2950000000419095
312249.2797,-0.05341232735769922,2.820229790931395,-1.2670616554346312,3.6205542412703045,6.296000000031199
312249.2807,0.7750980591112014,4.175149960948653,-0.17997692444022648,4.8245381299821695,6.297000000020489
312249.2817,1.684812308518204,5.589983922927534,0.9886106200069401,6.066774572345591,6.298000000009779
312249.2827,2.591052515467373,6.973671009930694,2.1462246925453674,7.256017875624953,6.298999999999069
312249.2837,3.412059178220148,8.237885017592397,3.2031104854003476,8.30395741825377,6.300000000046566
312249.2847,4.076401527695772,9.304369730949162,4.079936599845843,9.132949579843874,6.301000000035856
312249.2857,4.529363620650071,10.11128456085905,4.714500942674207,9.682741342365263,6.302000000025146
312249.2867,4.737704522624504,10.617987703169488,5.066822068851736,9.915561471024809,6.3030000000144355
312249.2877,4.692347971125059,10.80783585816043,5.122151987782681,9.819113385711212,6.304000000003725
312249.2887,4.40875678829506,10.68877049576294,4.89164517273045,9.407206235265667,6.304999999993015
312249.2897,3.9249705804844734,10.291672356454763,4.410642183690209,8.71798756916314,6.3060000000405125
312249.2907,3.297510225066241,9.666677816964146,3.7347532933319285,7.80997031228677,6.307000000029802
312249.2917,2.5955574540778894,8.877842446503582,2.934135856115226,6.756256253822924,6.308000000019092
312249.2927,1.8939826277582177,7.996690090851361,2.086528781207957,5.637527710588246,6.309000000008382
312249.2937,1.265902590595279,7.095285530670759,1.2697220498441693,4.534492122564998,6.309999999997672
312249.2947,0.7754928286348094,6.239505788644141,0.5541878214195437,3.5205103249797753,6.311000000045169
312249.2957,0.47174999937831874,5.4831562695166385,-0.003422201523902593,2.655113934248979,6.312000000034459
312249.2967,0.38380516017259175,4.863486311655274,-0.36529846695460594,1.9790234744113493,6.313000000023749
312249.2977,0.5182341430227231,4.398513724717598,-0.515548753365098,1.5111260327447942,6.3140000000130385
312249.2987,0.8586146387054816,4.086383989230021,-0.4610547646626118,1.247674591417679,6.315000000002328
312249.2997,1.3673589634264904,3.906785259812105,-0.23005693318048398,1.1637502050672413,6.315999999991618
312249.3007,1.989628776093004,3.824235362881164,0.13136300436650675,1.2168046809413269,6.3170000000391155
312249.3017,2.6589349564214797,3.7928718033732616,0.5645272018649349,1.3518973557010106,6.318000000028405
312249.3027,3.303862252372036,3.762228577498506,1.0045931892451023,1.5080749683977606,6.319000000017695
312249.3037,3.8552500798131493,3.683388726010485,1.3875172441184653,1.625234587350263,6.320000000006985
312249.3047,4.253118486539872,3.51486825612856,1.6568473190585298,1.6507666371279726,6.320999999996275
312249.3057,4.452655795153781,3.227618420381741,1.7696647651282873,1.545302327562372,6.322000000043772
312249.3067,4.428678986534086,2.808626088866389,1.7010828304691479,1.2869843158085912,6.323000000033062
312249.3077,4.178130086056657,2.2627367498876003,1.4468568931604886,0.8738317009631724,6.324000000022352
312249.3087,3.7203666383707317,1.612507048869628,1.0238519726944553,0.32396522747025025,6.3250000000116415
312249.3097,3.09522261092789,0.89609554414686,0.4683283460245633,-0.326323566718911,6.326000000000931
312249.3107,2.3590362789656307,0.16340142042446004,-0.16777524638515026,-1.0264562820613905,6.326999999990221
312249.3117,1.579042167557109,-0.529158782087405,-0.8221809137941424,-1.717002916573441,6.328000000037719
312249.3127,0.8266852586756437,-1.1247047946220934,-1.4286912234493594,-2.3361082059279554,6.329000000027008
312249.3137,0.17052158992808397,-1.572156341228471,-1.9240386709965995,-2.8262464343021985,6.330000000016298
312249.3147,-0.3305903171015385,-1.8320599712197754,-2.254471204709511,-3.1406061699820604,6.331000000005588
312249.3157,-0.6333320021859499,-1.8813700775878686,-2.3814057608776174,-3.248440599030772,6.331999999994878
312249.3167,-0.7142222915786316,-1.716674483346236,-2.2855741556629248,-3.1388202815673814,6.333000000042375
312249.3177,-0.571943029457344,-1.3555059394784694,-1.969235588276629,-2.822383370982742,6.334000000031665
312249.3187,-0.22746240873756976,-0.8355687698719096,-1.4562226511435428,-2.330878066410131,6.335000000020955
312249.3197,0.2780568145065691,-0.21191630347202123,-0.789804087235031,-1.7145136025480885,6.3360000000102445
312249.3207,0.8873573096738059,0.44768065403046037,-0.02856618786892475,-1.0373574833145056,6.336999999999534
312249.3217,1.5327890279261855,1.0687514411943533,0.7592859728173137,-0.37121593475221826,6.337999999988824
312249.3227,2.143047055598258,1.5769638854831924,1.5026461088225638,0.21140821198372334,6.339000000036322
312249.3237,2.6502757287998406,1.9051298645579633,2.134576693197566,0.6445866261895213,6.340000000025611
312249.3247,2.996831411877981,1.99969977667084,2.5990255669951305,0.8757406756930481,6.341000000014901
312249.3257,3.1410283508478827,1.826108957130423,2.8565138896937214,0.871236091602802,6.342000000004191
312249.3267,3.061290900846875,1.3724429178123965,2.888217686609282,0.6202208252685161,6.342999999993481
312249.3277,2.758291629780976,0.6510448556099785,2.6980205399341997,0.13629603750570102,6.344000000040978
312249.3287,2.254853105827876,-0.30211677253468366,2.312312942162857,-0.5431817172564203,6.345000000030268
312249.3297,1.5936122022856805,-1.4302893573731776,1.7775351791169427,-1.3601391675641121,6.346000000019558
312249.3307,0.8326678374181963,-2.6607427298648574,1.1556836663069467,-2.240908661277949,6.347000000008848
312249.3317,0.03963438315662202,-3.9111081307302578,0.5182035137522036,-3.102970763865967,6.347999999998137
312249.3327,-0.7153163299240886,-5.096667038398578,-0.06114727016941295,-3.8626908728354827,6.349000000045635
312249.3337,-1.3667373485315448,-6.1379130175959595,-0.5137702482530473,-4.4433202528141305,6.350000000034925
312249.3347,-1.8607890810202252,-6.967679824250645,-0.7833047737694513,-4.782498460248172,6.351000000024214
312249.3357,-2.1610315379012985,-7.537166564845701,-0.8316130028389097,-4.838534249646424,6.352000000013504
312249.3367,-2.252537666529526,-7.820292341303045,-0.6430731295620684,-4.594852230207004,6.353000000002794
312249.3377,-2.1438991310041096,-7.815968903710259,-0.22674160473035848,-4.062162440337594,6.353999999992084
312249.3387,-1.866898815128432,-7.548075499701691,0.38385188173548135,-3.2781234582114473,6.355000000039581
312249.3397,-1.4738505640648238,-7.063136632781742,1.1332857286409754,-2.3045062243015506,6.356000000028871
312249.3407,-1.032834296199817,-6.42592007772675,1.9489838300513473,-1.2221026796789292,6.357000000018161
312249.3417,-0.6212614822239585,-5.713368485316326,2.7476795972919965,-0.12383780090838965,6.358000000007451
312249.3427,-0.3183719359361062,-5.0074344668322555,3.4430083102037567,0.89328504752826,6.35899999999674
312249.3437,-0.19737165153561465,-4.387491213078768,3.953517549223711,1.7366638594695327,6.360000000044238
312249.3447,-0.31796232998650337,-3.923028757698505,4.210341322709988,2.3262200492775293,6.361000000033528
312249.3457,-0.719982100146355,-3.66731641270364,4.163811597276946,2.601413298421594,6.362000000022817
312249.3467,-1.41877656861918,-3.6526176791386993,3.7883786777335877,2.526504155805148,6.363000000012107
312249.3477,-2.4027592376220324,-3.8873942823156087,3.0853699417211704,2.093585039192627,6.364000000001397
312249.3487,-3.6334158039293563,-4.355745430647395,2.083319651846458,1.323111175712525,6.364999999990687
312249.3497,-5.04777748085694,-5.019115379475912,0.8358314232094305,0.26189881876436705,6.366000000038184
312249.3507,-6.563156251093938,-5.820087430380166,-0.5828325702971932,-1.0212038851487286,6.367000000027474
312249.3517,-8.083722107699648,-6.687886256781111,-2.084027730650927,-2.441550574536867,6.368000000016764
312249.3527,-9.508329232743458,-7.5450516745924485,-3.572285911350681,-3.9062360633873414,6.369000000006054
312249.3537,-10.7388812034524,-8.314640731042447,-4.953455588839188,-5.322224736061757,6.369999999995343
312249.3547,-11.688475768158058,-8.92727118220317,-6.1426701323326505,-6.604302599153418,6.371000000042841
312249.3557,-12.288592063201616,-9.327341903749415,-7.071411077191772,-7.68211259781532,6.372000000032131
312249.3567,-12.49467498669925,-9.477851933398151,-7.69302308267694,-8.505628581924531,6.37300000002142
312249.3577,-12.289623766654673,-9.363380928941883,-7.986187807955427,-9.048580293412408,6.37400000001071
312249.3587,-11.684889734957189,-8.990975817426364,-7.956060539496625,-9.309544433614768,6.375
312249.3597,-10.719112787232378,-8.388893390815838,-7.632996925460597,-9.310645381883658,6.37599999998929
312249.3607,-9.454455347367348,-7.603356518317026,-7.069025969097718,-9.094041170074,6.377000000036787
312249.3617,-7.971004876640446,-6.693672265967653,-6.332437434240623,-8.71658331538266,6.378000000026077
312249.3627,-6.359790848965174,-5.726215103438336,-5.501026673901318,-8.243212461489207,6.379000000015367
312249.3637,-4.715083152809092,-4.767882680198485,-4.65466095031961,-7.739768802140075,6.380000000004657
312249.3647,-3.1266948773994163,-3.8796755264626888,-3.867887209520402,-7.265945843659712,6.380999999993946
312249.3657,-1.6729985638080231,-3.1110315920734783,-3.203287025088204,-6.869093707185358,6.382000000041444
312249.3667,-0.4152832265438285,-2.4954642053395513,-2.706201898122434,-6.579486424768117,6.383000000030734
312249.3677,0.6060616609407248,-2.0479162952299657,-2.4013097959863803,-6.407515869864665,6.384000000020023
312249.3687,1.3732351922763657,-1.764068261446087,-2.2913460220329913,-6.343078256564403,6.385000000009313
312249.3697,1.8904996859717238,-1.6216392347215138,-2.358046896413307,-6.357197072202534,6.385999999998603
312249.3707,2.181571670530713,-1.583521300111972,-2.5651744950486943,-6.405700839779809,6.3870000000461005
312249.3717,2.285261959049976,-1.6024033971565677,-2.863276495246332,-6.434567486435067,6.38800000003539
312249.3727,2.2498639037179284,-1.6263941298137807,-3.1956670002829437,-6.3863796706452245,6.38900000002468
312249.3737,2.126903420702534,-1.6050551340399692,-3.5049984272801753,-6.207223652237344,6.39000000001397
312249.3747,1.9649161654811715,-1.4952185023817524,-3.7397422894728036,-5.853319134036558,6.39100000000326
312249.3757,1.8039016949397508,-1.265986678989365,-3.859912830724343,-5.296693350354082,6.391999999992549
312249.3767,1.6710236454853948,-0.90239857354704,-3.841450058568883,-4.529306918565441,6.393000000040047
312249.3777,1.5779874211454326,-0.40738275678487507,-3.678819293614653,-3.565192264736469,6.394000000029337
312249.3787,1.5203467575121636,0.19820628805994886,-3.3855687173624482,-2.440362629731711,6.3950000000186265
312249.3797,1.478786125457532,0.8774773254213477,-2.992796064550917,-1.210471286142889,6.396000000007916
312249.3807,1.4222179380642115,1.5811289799581456,-2.5456896067473433,0.05357522699153014,6.396999999997206
312249.3817,1.3123428994792976,2.252448206442201,-2.098505550905969,1.2716414428518632,6.3980000000447035
312249.3827,1.109167775173794,2.8331739674567555,-1.7085042840593678,2.3614516466411186,6.399000000033993
312249.3837,0.7768728708954514,3.269629150083487,-1.4294755419957033,3.246060912869012,6.400000000023283
312249.3847,0.2893818595756045,3.5184932798678625,-1.3055268083038307,3.860984618806343,6.401000000012573
312249.3857,-0.36498667270206275,3.5516211256649357,-1.3657855990733465,4.160291718716476,6.402000000001863
312249.3867,-1.1803160826968981,3.359404727408881,-1.620577033135929,4.121064516412818,6.402999999991152
312249.3877,-2.131721748975183,2.9523196517611976,-2.0594920164577153,3.745783922724634,6.40400000003865
312249.3887,-3.176013575411652,2.3604762496707457,-2.651572917629686,3.0623989558839764,6.40500000002794
312249.3897,-4.254382709121121,1.6311955432933933,-3.347631438757913,2.1220629800782076,6.4060000000172295
312249.3907,-5.296895804302536,0.8248273823289017,-4.0844985355619645,0.9947449617718356,6.407000000006519
312249.3917,-6.228391565618331,0.00920599353311885,-4.790810062874226,-0.23687027273530115,6.407999999995809
312249.3927,-6.975224562380313,-0.7467227012386495,-5.393773867560705,-1.4846133343769297,6.4090000000433065
312249.3937,-7.4722056136815675,-1.3794805687073866,-5.826260138680928,-2.6625046782317,6.410000000032596
312249.3947,-7.669056287826718,-1.8371961040571512,-6.033517475161303,-3.6941418125829166,6.411000000021886
312249.3957,-7.535730817378477,-2.084693040791698,-5.978846521692523,-4.519098367010525,6.412000000011176
312249.3967,-7.066058912705441,-2.1070174196759246,-5.647658565630252,-5.097731768897849,6.413000000000466
312249.3977,-6.279318088592061,-1.9110410725072553,-5.049499070000477,-5.413952694829916,6.4139999999897555
312249.3987,-5.21953926355004,-1.5249652604832653,-4.217810989820763,-5.4757092422069915,6.415000000037253
312249.3997,-3.952565608820186,-0.9957523994757338,-3.2074309300336696,-5.313162294527538,6.416000000026543
312249.4007,-2.5611008232496877,-0.38471643425003704,-2.090031454933177,-4.9747538960492985,6.4170000000158325
312249.4017,-1.1381780208541534,0.2383163860861278,-0.9479235902032077,-4.521575504552864,6.418000000005122
312249.4027,0.22036493006245794,0.8017226602740001,0.13320493982486964,-4.020607653520992,6.418999999994412
312249.4037,1.4237187659503951,1.2390306311151678,1.071933847944439,-3.5375107014261435,6.4200000000419095
312249.4047,2.3935265491538344,1.4954338911049914,1.7984142728803911,-3.12968740815573,6.421000000031199
312249.4057,3.070214960207809,1.5332397708068772,2.2606393631956467,-2.8403080837560233,6.422000000020489
312249.4067,3.4176517133958915,1.3357221031217748,2.429084701092035,-2.6938910135503105,6.423000000009779
312249.4077,3.4257051190696663,0.9089998307876567,2.2992763330426285,-2.693874475124944,6.423999999999069
312249.4087,3.110480243675645,0.28175190745843604,1.8920418143084394,-2.8224173608932537,6.425000000046566
312249.4097,2.5122263025215124,-0.497213176378245,1.251421299778718,-3.042442858887777,6.426000000035856
312249.4107,1.6911305082002006,-1.3633083247766846,0.44043982524384007,-3.3017157675649487,6.427000000025146
312249.4117,0.7214131713185765,-2.242029116485852,-0.46485324557005375,-3.5385409051436274,6.4280000000144355
312249.4127,-0.3157019753459133,-3.055769575348813,-1.3825059901203263,-3.688507762108772,6.429000000003725
312249.4137,-1.339464933896786,-3.7309444826590368,-2.232264943352856,-3.6916010724137442,6.429999999993015
312249.4147,-2.2768093099409836,-4.204740852531516,-2.942929057477516,-3.498958795351531,6.4310000000405125
312249.4157,-3.068612063958409,-4.430857312213389,-3.4587562791118804,-3.078591941281055,6.432000000029802
312249.4167,-3.674418450565416,-4.383688299600056,-3.744316155186767,-2.4194815782959638,6.433000000019092
312249.4177,-4.075202082416552,-4.06056065198198,-3.78733422374351,-1.5336273690379782,6.434000000008382
312249.4187,-4.273925964314826,-3.4818186311635952,-3.599270038060179,-0.45582352253327274,6.434999999997672
312249.4197,-4.293888274849212,-2.688761338775752,-3.213591395881445,0.7588376842612939,6.436000000045169
312249.4207,-4.175055226247745,-1.7396435562461994,-2.6819311917695723,2.039509711442129,6.437000000034459
312249.4217,-3.968781057634509,-0.7041371186728567,-2.0685184782074466,3.3057543124593134,6.438000000023749
312249.4227,-3.7314727158511145,0.3432031161001646,-1.4434418413932217,4.474732355953242,6.4390000000130385
312249.4237,-3.5178586107291534,1.3298310967752847,-0.8754148818443992,5.468728112632758,6.440000000002328
312249.4247,-3.3745570281805466,2.191790516271463,-0.42475960694436216,6.2222758943761525,6.440999999991618
312249.4257,-3.334606824459779,2.879350485382086,-0.1372994743707814,6.6881933705072845,6.4420000000391155
312249.4267,-3.4135241853021268,3.361157825978942,-0.039762096615580195,6.841929783750992,6.443000000028405
312249.4277,-3.6072942699115464,3.626516535380553,-0.13714125741930694,6.683799627347441,6.444000000017695
312249.4287,-3.892510753089718,3.685591396567816,-0.4122736543785943,6.238877348534046,6.445000000006985
312249.4297,-4.22865894107333,3.567538534267423,-0.827666705420368,5.554556312661574,6.445999999996275
312249.4307,-4.562320720083829,3.3167706941379134,-1.3293913030505655,4.696003326410144,6.447000000043772
312249.4317,-4.832883592155055,2.987748988384032,-1.8526493622362314,3.739946115018792,6.448000000033062
312249.4327,-4.979180882970581,2.6388377084946075,-2.328460379942399,2.7673950128421287,6.449000000022352
312249.4337,-4.946391318322244,2.325850299432085,-2.690800248369801,1.8560055832040612,6.4500000000116415
312249.4347,-4.69249351126034,2.0959437089615496,-2.883480139485855,1.0728254387986984,6.451000000000931
312249.4357,-4.193607953857221,1.9824821934578758,-2.866077894705884,0.4681324163261035,6.451999999990221
312249.4367,-3.447662508500705,2.001393820610788,-2.618326646435427,0.07096580320411174,6.453000000037719
312249.4377,-2.475977273127944,2.149392981035732,-2.142516376838498,-0.11321235047852334,6.454000000027008
312249.4387,-1.3225656226153937,2.4042549641124276,-1.4636590408758972,-0.10249672753432186,6.455000000016298
312249.4397,-0.05117071306506788,2.7271225205708256,-0.6273876883552097,0.06383909118823686,6.456000000005588
312249.4407,1.259720879714959,3.066619661473045,0.30421679704228305,0.3298444376813251,6.456999999994878
312249.4417,2.5234461439550495,3.364364954763723,1.2584730268549642,0.6290746000040658,6.458000000042375
312249.4427,3.6527118853147633,3.5613334032443604,2.159056054401955,0.8918455905334466,6.459000000031665
312249.4437,4.5674169233258,3.604426868799871,2.9333882363915738,1.0528434048347468,6.460000000020955
312249.4447,5.202012225422022,3.4525869114303402,3.5197429102981093,1.0583325369465155,6.4610000000102445
312249.4457,5.511697240810828,3.0818236332759277,3.873364787879029,0.8722441618395707,6.461999999999534
312249.4467,5.476854688510197,2.4886359998612986,3.9710040244023372,0.48053043602323076,6.462999999988824
312249.4477,5.105287977317682,1.6914533908538987,3.813413049905552,-0.10666230959207784,6.464000000036322
312249.4487,4.43202986828393,0.7299198886947664,3.42555167114107,-0.8552381064591993,6.465000000025611
312249.4497,3.516718370699243,-0.337946585575341,2.8544675602629788,-1.7098156957118287,6.466000000014901
312249.4507,2.438764381706735,-1.4404792596393303,2.1650444567509717,-2.5985790023275945,6.467000000004191
312249.4517,1.2907432932689806,-2.4985437692756314,1.434017278854306,-3.4398659411164196,6.467999999993481
312249.4527,0.170609745367087,-3.432601433647528,0.7428217104444558,-4.149876118017127,6.469000000040978
312249.4537,-0.826555126721976,-4.169988728063582,0.16995929455291545,-4.65076554828482,6.470000000030268
312249.4547,-1.616511769324433,-4.651719538648181,-0.21639341906610668,-4.878354283365363,6.471000000019558
312249.4557,-2.13282197899032,-4.838156073593955,-0.3648261661160386,-4.788705040292254,6.472000000008848
312249.4567,-2.332173819596995,-4.712996912330649,-0.24557251470844652,-4.362934573086918,6.472999999998137
312249.4577,-2.197601318147875,-4.285186872922438,0.14663985155713638,-3.6097847051439866,6.474000000045635
312249.4587,-1.73932868080471,-3.5885482314747756,0.7920343360277685,-2.5656907842116627,6.475000000034925
312249.4597,-0.9931934580306775,-2.679147631421058,1.6475734604568413,-1.292321537094979,6.476000000024214
312249.4607,-0.016830658848296248,-1.6306271201484754,2.6509121266299345,0.12819684793473302,6.477000000013504
312249.4617,1.1159916420300677,-0.5279205442276189,3.726131379183941,1.5999410712841449,6.478000000002794
312249.4627,2.322325142581694,0.5400705250406517,4.790698718178247,3.021126971089464,6.478999999992084
312249.4637,3.517608186440628,1.4881687712496083,5.762986046130347,4.2925942083328605,6.480000000039581
312249.4647,4.623123801083014,2.2422740254363163,6.569626642419636,5.3260625352190445,6.481000000028871
312249.4657,5.572647733826252,2.745702848477785,7.152012747222175,6.051407461279166,6.482000000018161
312249.4667,6.317674598226015,2.963937287320679,7.471323175698171,6.422299195340601,6.483000000007451
312249.4677,6.830757939820456,2.887356511555407,7.511617034203056,6.419706641647736,6.48399999999674
312249.4687,7.106691318954435,2.5317161160592248,7.28072051530312,6.052972458701644,6.485000000044238
312249.4697,7.161473373403069,1.936352351165636,6.808850069637709,5.358395827309449,6.486000000033528
312249.4707,7.02921893382449,1.1603019536195902,6.145135731874347,4.3954942372652255,6.487000000022817
312249.4717,6.757379074830594,0.2767221289036597,5.35241142719542,3.2413316360439577,6.488000000012107
312249.4727,6.400795847658137,-0.6338489180434081,4.500804903703034,1.9834769691700576,6.489000000001397
312249.4737,6.015226533163329,-1.4907474286967106,3.6607724482353605,0.7122777058567399,6.489999999990687
312249.4747,5.651017115873073,-2.2202712953640438,2.896271960429246,-0.48681382993946115,6.491000000038184
312249.4757,5.347581224975167,-2.7619398898486742,2.2587478249114707,-1.540142202880925,6.492000000027474
312249.4767,5.1292516864592965,-3.0733553997562435,1.7825146248737989,-2.3913477385145465,6.493000000016764
312249.4777,5.002926226186711,-3.1332365416231975,1.481982875360998,-3.004980009614445,6.494000000006054
312249.4787,4.957741457668339,-2.942377334416822,1.350983034936114,-3.367937057262368,6.494999999995343
312249.4797,4.966798878958096,-2.5224873444610605,1.3642326822945217,-3.488660924590915,6.496000000042841
312249.4807,4.990754226331,-1.9130755198400338,1.480776872486215,-3.394243564298361,6.497000000032131
312249.4817,4.982888386843709,-1.166727412971473,1.6490345544003626,-3.1258026296922936,6.49800000002142
312249.4827,4.895123430681513,-0.3432771108072225,1.8129239749015194,-2.7326539147432016,6.49900000001071
312249.4837,4.684346639381182,0.49652395370712576,1.9184329471663313,-2.2659199879099066,6.5
312249.4847,4.318368789790119,1.2971984327073558,1.9199562095837144,-1.7722620447330535,6.50099999998929
312249.4857,3.780874185316436,2.01397487176091,1.785746072096608,-1.288399868385716,6.502000000036787
312249.4867,3.0748160810549474,2.6169240711858537,1.5019116972164845,-0.8369956263964229,6.503000000026077
312249.4877,2.2238628856707487,3.093400603823957,1.0745478344299972,-0.4243302665282967,6.504000000015367
312249.4887,1.2716929959814882,3.448565168625843,0.529761221379779,-0.04001142760297101,6.505000000004657
312249.4897,0.2791504365037155,3.7039597058752634,-0.08842633650132432,0.3412618108048802,6.505999999993946
312249.4907,-0.6805114573374097,3.8943051178321464,-0.7221058172455441,0.7560678968673961,6.507000000041444
312249.4917,-1.5278764853318434,4.062871417857767,-1.3050524997488857,1.2471525668541976,6.508000000030734
312249.4927,-2.184525505409671,4.2559143696572335,-1.76929679672929,1.8573839075142078,6.509000000020023
312249.4937,-2.5804335684529667,4.516766924303962,-2.052046347576512,2.623419752076689,6.510000000009313
312249.4947,-2.6608936979697138,4.880208710869019,-2.1022713630096366,3.569771653649956,6.510999999998603
312249.4957,-2.3922915001984673,5.367709042448476,-1.8862931424030445,4.703917655593408,6.5120000000461005
312249.4967,-1.7661556071833302,5.984051122502033,-1.3918089646077234,6.013017749237373,6.51300000003539
312249.4977,-0.8010663853762672,6.715706075201929,-0.6299362274617668,7.462630783989827,6.51400000002468
312249.4987,0.4577956223172429,7.531148867565927,0.364949742150863,8.997634832876518,6.51500000001397
312249.4997,1.9414585273088185,8.383111670224535,1.537595046989032,10.545333945375674,6.51600000000326
312249.5007,3.5620995568690326,9.212573264095807,2.8162576741612706,12.020514440516614,6.516999999992549
312249.5017,5.219689275656994,9.954105377170734,4.118705191053717,13.33201516176873,6.518000000040047
312249.5027,6.809749502044554,10.542056110258205,5.3592566727741895,14.390218200815571,6.519000000029337
312249.5037,8.231528463526141,10.91696104458975,6.456201094531189,15.114765335423453,6.5200000000186265
312249.5047,9.395856527263904,11.031543347116136,7.338884546818864,15.441771152595253,6.521000000007916
312249.5057,10.231975781536471,10.855698380030024,7.953787785716272,15.329840347470636,6.521999999997206
312249.5067,10.692733988820741,10.379952876491213,8.269011201130638,14.764300885197752,6.5230000000447035
312249.5077,10.757688600328764,9.617034569884364,8.276737131430139,13.759226836621897,6.524000000033993
312249.5087,10.433864605684457,8.601371056667416,7.993434783304057,12.357029300581639,6.525000000023283
312249.5097,9.754131814119212,7.38653871416024,7.457791826749698,10.625621255974986,6.526000000012573
312249.5107,8.773391252881847,6.040883811100524,6.7265776625397615,8.653390504508566,6.527000000001863
312249.5117,7.5629650518417435,4.641718670742895,5.868844769437875,6.5424219753583275,6.527999999991152
312249.5127,6.203749703421078,3.2686379691504945,4.959036649710996,4.400576472980416,6.52900000003865
312249.5137,4.778803031226027,1.9965898068641084,4.069677721850626,2.333141331301208,6.53000000002794
312249.5147,3.366080052790876,0.8893640540246214,3.2643614531703404,0.43480880745203676,6.5310000000172295
312249.5157,2.032008085273112,-0.005876346085494408,2.591723906701635,-1.2172935952071968,6.532000000006519
312249.5167,0.826499634985689,-0.6624935558729053,2.0809933763671733,-2.5688973629678484,6.532999999995809
312249.5177,-0.22014791103429301,-1.0763249842003442,1.7395521898036723,-3.591748291831956,6.5340000000433065
312249.5187,-1.0982091298192163,-1.2654953042831787,1.5527490698738395,-4.284363378700029,6.535000000032596
312249.5197,-1.817303433320929,-1.2681068790826848,1.4859789189529948,-4.6703579627542355,6.536000000021886
312249.5207,-2.4031620752126197,-1.1380307832186665,1.4888231570065182,-4.794542180248457,6.537000000011176
312249.5217,-2.89276697374968,-0.9392052296358231,1.5008397021724778,-4.71719613315393,6.538000000000466
312249.5227,-3.328399948346478,-0.7389937266263917,1.4584273505210943,-4.507103185747855,6.5389999999897555
312249.5237,-3.751247464307737,-0.6012474342076851,1.3020808712701886,-4.234034149498276,6.540000000037253
312249.5247,-4.195247662477769,-0.57974587524724,0.9833113406171179,-3.9614209712407527,6.541000000026543
312249.5257,-4.68183931069097,-0.712654383616618,0.4705353620929284,-3.7399326462808897,6.5420000000158325
312249.5267,-5.216179115509682,-1.0185388145699645,-0.24666577771580295,-3.6025711568089696,6.543000000005122
312249.5277,-5.785243834066257,-1.4943275302713575,-1.1553595992718524,-3.561750713318298,6.543999999994412
312249.5287,-6.358041668671934,-2.115422073141572,-2.219390883888333,-3.6086246632132553,6.5450000000419095
312249.5297,-6.887942481119359,-2.8379495416660703,-3.381842636225407,-3.7147006371727533,6.546000000031199
312249.5307,-7.316919669788914,-3.602941722543303,-4.569619628234538,-3.835557738905777,6.547000000020489
312249.5317,-7.581299543270576,-4.342038721325505,-5.699736541767418,-3.91627201935169,6.548000000009779
312249.5327,-7.618456226257229,-4.98416639254166,-6.686724357547431,-3.897988385170613,6.548999999999069
312249.5337,-7.373787256058812,-5.462541756123624,-7.450456401905194,-3.724964870130142,6.550000000046566
312249.5347,-6.807267420996438,-5.72132808085963,-7.923650379476343,-3.3513697651983554,6.551000000035856
312249.5357,-5.898910025355117,-5.721294615039753,-8.058329304086193,-2.7471378301758342,6.552000000025146
312249.5367,-4.652562830937981,-5.443931845979238,-7.830620053732721,-1.9022860899066116,6.5530000000144355
312249.5377,-3.097621096960729,-4.893622374804746,-7.243424160122947,-0.82924321772046,6.554000000003725
312249.5387,-1.2884374738121076,-4.097655506108684,-6.3266964036323134,0.437055923105427,6.554999999993015
312249.5397,0.6985711117797062,-3.104082190891599,-5.135293443604977,1.841336858387781,6.5560000000405125
312249.5407,2.7698974363417617,-1.977615733537064,-3.7445851936531604,3.3122146586674894,6.557000000029802
312249.5417,4.82157469419107,-0.793972356012493,-2.2442336994098855,4.7680818170370625,6.558000000019092
312249.5427,6.7468776010786735,0.3668040658750789,-0.7307174279752837,6.1240854704246255,6.559000000008382
312249.5437,8.444401015266035,1.427391641380531,0.7007035519554111,7.299515214090958,6.559999999997672
312249.5447,9.825782895700913,2.319938415167573,1.9638353190986897,8.224880383766862,6.561000000045169
312249.5457,10.82236842054612,2.991863818864999,2.988485556707652,8.84798454680133,6.562000000034459
312249.5467,11.390209656930466,3.410162832798003,3.7258519513719,9.138402276764754,6.563000000023749
312249.5477,11.512950970430314,3.563809616623186,4.151879811349979,9.089919553224583,6.5640000000130385
312249.5487,11.202349372608415,3.4640439769163893,4.268302042811811,8.720698974402655,6.565000000002328
312249.5497,10.496401984305985,3.1425314161214675,4.101298102196154,8.071154722768247,6.565999999991618
312249.5507,9.45527814806173,2.6475953267315897,3.697936896576171,7.199747826205591,6.5670000000391155
312249.5517,8.155459617672712,2.038907792710699,3.120779659711175,6.177117440065217,6.568000000028405
312249.5527,6.682658738126938,1.3811750287833455,2.4411921535612975,5.079128347045797,6.569000000017695
312249.5537,5.1241954963062115,0.7374500819869255,1.7320344247959665,3.9795223212266584,6.570000000006985
312249.5547,3.561559080302616,0.16273959507834324,1.0604494271599234,2.9429007100833084,6.570999999996275
312249.5557,2.0638539065131565,-0.30146012498628716,0.4814542009411741,2.01873348978607,6.572000000043772
312249.5567,0.682736613608531,-0.631156633080346,0.032951000187115255,1.236989146368764,6.573000000033062
312249.5577,-0.5507014414300752,-0.8219907989936382,-0.26737048950751224,0.6058198127665191,6.574000000022352
312249.5587,-1.6268471252890746,-0.8892947077577267,-0.42296031308123766,0.11153276529382773,6.5750000000116415
312249.5597,-2.5562345966708806,-0.8660771223537543,-0.45710324509033545,-0.27914742447652463,6.576000000000931
312249.5607,-3.366153612498903,-0.7991422699466625,-0.40954290965001444,-0.6147497962791285,6.576999999990221
312249.5617,-4.095583441830558,-0.7437340456383401,-0.3314020135876132,-0.9530914411528378,6.578000000037719
312249.5627,-4.789002912178503,-0.7572453778457712,-0.2789340490349618,-1.3542710441037096,6.579000000027008
312249.5637,-5.4897360823617305,-0.8926268986666539,-0.3067563313804408,-1.8733241487523327,6.580000000016298
312249.5647,-6.233536172308948,-1.1921608776913386,-0.4612637198375727,-2.5532810478348336,6.581000000005588
312249.5657,-7.043083513783848,-1.682232428884866,-0.7749020750487264,-3.419333719725518,6.581999999994878
312249.5667,-7.923979133118523,-2.3696335747501642,-1.2618925838745194,-4.474714100809652,6.583000000042375
312249.5677,-8.862663472147451,-3.239786282088561,-1.9158513395551244,-5.698722160592491,6.584000000031665
312249.5687,-9.826494732145312,-4.257082719567323,-2.7095576168672224,-7.047134555635618,6.585000000020955
312249.5697,-10.766002648401052,-5.36733315794862,-3.596908091751307,-8.454993237188816,6.5860000000102445
312249.5707,-11.61911276605613,-6.502104536161563,-4.516874270930157,-9.841540801424758,6.586999999999534
312249.5717,-12.316935303241294,-7.58454611142639,-5.3990784350063,-11.116858295454648,6.587999999988824
312249.5727,-12.790551343224896,-8.536151124389644,-6.170439491380579,-12.189592272383237,6.589000000036322
312249.5737,-12.978123403572669,-9.283809529982308,-6.762230555988043,-12.975047699401857,6.590000000025611
312249.5747,-12.831617945528498,-9.766475802484754,-7.116845746434125,-13.402882742464891,6.591000000014901
312249.5757,-12.32245817586296,-9.94081068642931,-7.193599042904193,-13.423674589951945,6.592000000004191
312249.5767,-11.445523722275297,-9.785253138077051,-6.972970740653077,-13.0137292684934,6.592999999993481
312249.5777,-10.221069970259471,-9.302129063734247,-6.458867911003855,-12.177672893101898,6.594000000040978
312249.5787,-8.694338866834912,-8.517592102641691,-5.6786595776507545,-10.948571106563636,6.595000000030268
312249.5797,-6.932855435579836,-7.479400176976318,-4.680965870923088,-9.385557350746918,6.596000000019558
312249.5807,-5.021628396826713,-6.252739470108558,-3.5314016964805828,-7.569186426761322,6.597000000008848
312249.5817,-3.0566772424763298,-4.914494606160053,-2.3066776054317963,-5.59494470515761,6.597999999998137
312249.5827,-1.1374719279501344,-3.5465118686211845,-1.0876235997642352,-3.5655215469254555,6.599000000045635
312249.5837,0.641021022522399,-2.228496946492043,0.04819059774674368,-1.5825612686638795,6.600000000034925
312249.5847,2.195951300327112,-1.0312208209755513,1.0335234579125174,0.26133968739255864,6.601000000024214
312249.5857,3.463151659994844,-0.010674028337173881,1.8175307794866031,1.8896540779581517,6.602000000013504
312249.5867,4.402051775995727,0.796285907240115,2.370245004784489,3.247326482939891,6.603000000002794
312249.5877,4.998488241135011,1.3743970843892261,2.6850278253182553,4.304080055389747,6.603999999992084
312249.5887,5.265159264496227,1.7303550504977212,2.7787565060445067,5.055355412369774,6.605000000039581
312249.5897,5.239695923734526,1.8910686345991008,2.689725543884817,5.520839924070109,6.606000000028871
312249.5907,4.9805473308854875,1.9000096969860638,2.4734686641922536,5.740778445626586,6.607000000018161
312249.5917,4.561082942698731,1.8120412576550857,2.1969098460103638,5.770469173602104,6.608000000007451
312249.5927,4.062481601289971,1.6872544509766227,1.931416063733183,5.673520136452233,6.60899999999674
312249.5937,3.566087735229247,1.5844379887909945,1.7454326213124283,5.514556235809461,6.610000000044238
312249.5947,3.145959933709763,1.5548353123398668,1.697423669154615,5.352112800209227,6.611000000033528
312249.5957,2.8623117337152832,1.636811455585306,1.8298115643858308,5.232425076309119,6.612000000022817
312249.5967,2.756451679602923,1.8519572511766356,2.164511901071199,5.184726867058331,6.613000000012107
312249.5977,2.847678829260797,2.2030123059374858,2.700505680096258,5.2185153537351185,6.614000000001397
312249.5987,3.1323958252408173,2.673804643425651,3.413691319968977,5.323038583091003,6.614999999990687
312249.5997,3.5854835169726345,3.231202188924345,4.259036397343965,5.469037049077907,6.616000000038184
312249.6007,4.163760291029393,3.8288693546323724,5.174823884857068,5.61254349393304,6.617000000027474
312249.6017,4.811147313028128,4.412440773668022,6.088582206738147,5.700337911379245,6.618000000016764
312249.6027,5.464997465421024,4.925581592681846,6.924122745086068,5.676488147205374,6.619000000006054
312249.6037,6.062936708180143,5.3163137368421145,7.608998728638683,5.489296833141719,6.619999999995343
312249.6047,6.549522353481091,5.542959114223455,8.081656503773575,5.097933415818811,6.621000000042841
312249.6057,6.88204741002429,5.5790866980646046,8.297578305531752,4.47805984731349,6.622000000032131
312249.6067,7.034911029687839,5.416947363831853,8.233812170670722,3.6258571232744217,6.62300000002142
312249.6077,7.00212299863146,5.069028826500551,7.891440246455203,2.5600175631787994,6.62400000001071
312249.6087,6.797700393046347,4.567548516908116,7.295736356101305,1.321468994337371,6.625
312249.6097,6.453928072708368,3.961906593856028,6.493987884519998,-0.02917798484557873,6.62599999998929
312249.6107,6.0176704460648525,3.3143244647923753,5.551184025719748,-1.4162418769262335,6.627000000036787
312249.6117,5.545118546629578,2.694076207019065,4.543980071279279,-2.7552176203291676,6.628000000026077
312249.6127,5.095514453229624,2.1708631913379737,3.5535154675194565,-3.960070849322673,6.629000000015367
312249.6137,4.724498823876184,1.8079718414095474,2.657775421751112,-4.950882984397434,6.630000000004657
312249.6147,4.477766509555837,1.6558818225855632,1.9242309416311592,-5.661111483984055,6.630999999993946
312249.6157,4.385685958481527,1.7469541214062656,1.4034659211179101,-6.043762005749164,6.632000000041444
312249.6167,4.459443266590445,2.091728901464843,1.1244047837223425,-6.075870579765996,6.633000000030734
312249.6177,4.689120620348155,2.6772112052202077,1.091599523612997,-5.760854361329139,6.634000000020023
312249.6187,5.043926433499765,3.4673331551451265,1.2848358313816477,-5.128493471802035,6.635000000009313
312249.6197,5.474579730476413,4.405572649869199,1.661093780242014,-4.2325339362989185,6.635999999998603
312249.6207,5.917635540967346,5.4195009390496365,2.1586711456116054,-3.146130546997967,6.6370000000461005
312249.6217,6.301342644346178,6.426845127418591,2.7030689980197597,-1.9555562397182569,6.63800000003539
312249.6227,6.552469362127554,7.342504799587847,3.214070032573629,-0.7527709468530223,6.63900000002468
312249.6237,6.603432763683244,8.08586894511894,3.613326603954942,0.37244838512078776,6.64000000001397
312249.6247,6.399031708405365,8.58774933361198,3.831728586181837,1.340074464783727,6.64100000000326
312249.6257,5.902118238759042,8.796282440114018,3.815845403946998,2.0863825873918276,6.641999999992549
312249.6267,5.097641797923784,8.681250513671646,3.5328293675593705,2.5688801589669232,6.643000000040047
312249.6277,3.994656904562358,8.236423874345816,2.97331957278643,2.7691630076352283,6.644000000029337
312249.6287,2.6260820495386534,7.479716301899503,2.1520821057549773,2.693451946465824,6.6450000000186265
312249.6297,1.0462163940046771,6.451154993339402,1.1063438225294313,2.3707897767867827,6.646000000007916
312249.6307,-0.673760117968831,5.208875635605218,-0.10799815649021142,1.8491068664380117,6.646999999997206
312249.6317,-2.4518798941913102,3.8235413429982485,-1.4219028798441198,1.189570265365241,6.6480000000447035
312249.6327,-4.202493800963996,2.3717332705274363,-2.759892133113347,0.45979677949040104,6.649000000033993
312249.6337,-5.84370932940412,0.9289561878983574,-4.047268994525902,-0.2733816678973507,6.650000000023283
312249.6347,-7.304445595893847,-0.4370650227280707,-5.2171338379180066,-0.9508722247846018,6.651000000012573
312249.6357,-8.530425500143581,-1.6721551695265457,-6.216507217325569,-1.527298767502098,6.652000000001863
312249.6367,-9.488527477129791,-2.7399777690956655,-7.010960916157617,-1.9754077178093596,6.652999999991152
312249.6377,-10.169078131533412,-3.6244449233710254,-7.587309026177537,-2.2884662119017545,6.65400000003865
312249.6387,-10.585867238070525,-4.330036827853013,-7.954105349516819,-2.4804193091217432,6.65500000002794
312249.6397,-10.773888656067376,-4.880026834849624,-8.139912517120685,-2.5837984632089457,6.6560000000172295
312249.6407,-10.785032992304833,-5.312814850173219,-8.189530409731058,-2.645599826650495,6.657000000006519
312249.6417,-10.682158637858196,-5.676758128634875,-8.158574880835967,-2.7215557992802424,6.657999999995809
312249.6427,-10.532127442762226,-6.02403601156307,-8.106962392299947,-2.8693863389742598,6.6590000000433065
312249.6437,-10.398494093829457,-6.404179391024984,-8.091965769315674,-3.1417217740418826,6.660000000032596
312249.6447,-10.33457405478569,-6.857927486895896,-8.161550045140395,-3.5794257037774933,6.661000000021886
312249.6457,-10.377580054183591,-7.4120408035552225,-8.348670937096722,-4.20601125019071,6.662000000011176
312249.6467,-10.544414782064184,-8.075603234593187,-8.667124397114577,-5.023739709392003,6.663000000000466
312249.6477,-10.829547470179042,-8.838197642932384,-9.109383075823823,-6.011827588543468,6.6639999999897555
312249.6487,-11.205199799646534,-9.670152467566973,-9.646659337832274,-7.126981938461488,6.665000000037253
312249.6497,-11.62384165565121,-10.52485034598294,-10.23121386660691,-8.306254889981027,6.666000000026543
312249.6507,-12.022771420730557,-11.342883689807946,-10.800705514807252,-9.471978756437114,6.6670000000158325
312249.6517,-12.330350678649623,-12.057656869109731,-11.284173808073506,-10.538335468513745,6.668000000005122
312249.6527,-12.473299296754588,-12.601888387148295,-11.609080476675372,-11.418948867308734,6.668999999994412
312249.6537,-12.38434983340092,-12.914373596540583,-11.708726847411478,-12.034781817535846,6.6700000000419095
312249.6547,-12.00952055441175,-12.946338334617137,-11.529320759240282,-12.321582848888605,6.671000000031199
312249.6557,-11.314298003751182,-12.666749430231427,-11.035994287992121,-12.236162987209749,6.672000000020489
312249.6567,-10.288120126050755,-12.066046013534839,-10.217169493868626,-11.760889367161047,6.673000000009779
312249.6577,-8.946709833982426,-11.157906488622599,-9.086824488969505,-10.90594806801623,6.673999999999069
312249.6587,-7.332011411886411,-9.978855255783671,-7.684411428051345,-9.709138471981841,6.675000000046566
312249.6597,-5.509708793575169,-8.5857223759205,-6.072402290334965,-8.233195085520306,6.676000000035856
312249.6607,-3.5645337620173154,-7.051177962848191,-4.3316658228154745,-6.5608676171224145,6.677000000025146
312249.6617,-1.593781487900089,-5.457750797300148,-2.555087694133177,-4.788203448483532,6.6780000000144355
312249.6627,0.30037953842802,-3.890889118959057,-0.8400155092905611,-3.0166478121036584,6.679000000003725
312249.6637,2.0191024558117214,-2.4317162190315833,0.7197756105299592,-1.344689415863988,6.679999999993015
312249.6647,3.474814240183201,-1.1501650126376521,2.041853752422384,0.14017795355257914,6.6810000000405125
312249.6657,4.598201773768659,-0.09914105836864283,3.06191792179775,1.3684382944388278,6.682000000029802
312249.6667,5.343601192196758,0.6897341789640764,3.738976162332379,2.2938428904001285,6.683000000019092
312249.6677,5.692312186341379,1.2083991985063167,4.058440186385479,2.8965312009069435,6.684000000008382
312249.6687,5.6535557855182486,1.4724368298301225,4.032860417872587,3.183715561214073,6.684999999997672
312249.6697,5.263016476377187,1.5189667841316328,3.7002491050325026,3.187894722033257,6.686000000045169
312249.6707,4.579135818540564,1.402556280575379,3.120167207513091,2.962796288440279,6.687000000034459
312249.6717,3.677533213458019,1.1895482754323432,2.3679610601357286,2.5774628390780396,6.688000000023749
312249.6727,2.644100204652731,0.951357472502991,1.527707093848022,2.109070210151024,6.6890000000130385
312249.6737,1.5674314364093787,0.7573813580198332,0.6845406245959179,1.6351824317505048,6.690000000002328
312249.6747,0.5313073012911642,0.6682076296629554,-0.08290327768177824,1.2261950715055159,6.690999999991618
312249.6757,-0.39207414288778936,0.7297673826628768,-0.709227308509321,0.9386929501567194,6.6920000000391155
312249.6767,-1.1475029374506225,0.9689885432865807,-1.1475651446177806,0.8103521454621067,6.693000000028405
312249.6777,-1.7003304324796966,1.3913557007445223,-1.3729540841715433,0.8568595306953933,6.694000000017695
312249.6787,-2.037926360096152,1.980595284272718,-1.3835022845436422,1.0711213196740876,6.695000000006985
312249.6797,-2.1689480440395283,2.7004973281738245,-1.1992833428784044,1.4248050845111955,6.695999999996275
312249.6807,-2.120566074252548,3.4986771890290376,-0.8591132868021926,1.8720297528846037,6.697000000043772
312249.6817,-1.9339897500907055,4.311892819023402,-0.41557035622860355,2.3548076798165134,6.698000000033062
312249.6827,-1.6587980133248497,5.072383833850898,0.07121374633866866,2.809672550228338,6.699000000022352
312249.6837,-1.3466916902973782,5.714602120558855,0.5403474849818162,3.174813150624942,6.7000000000116415
312249.6847,-1.045330129765165,6.181669381429285,0.9368637091181752,3.3969869117889515,6.701000000000931
312249.6857,-0.7928955127845173,6.430927974403338,1.2176185322790487,3.43751288242869,6.701999999990221
312249.6867,-0.613943638396951,6.438044458930852,1.355814169363105,3.2767387028629735,6.703000000037719
312249.6877,-0.5169596700486897,6.19927108664091,1.343698430847683,2.9165306890102833,6.704000000027008
312249.6887,-0.4938554916670408,5.731654634375692,1.193180752914075,2.3805349579476727,6.705000000016298
312249.6897,-0.5214403830389522,5.071186276568879,0.9343169398248502,1.7121809525952874,6.706000000005588
312249.6907,-0.5646893538491695,4.269090499638973,0.6118311128558133,0.9706246893956729,6.706999999994878
312249.6917,-0.5814445592638618,3.3866352607210684,0.280042243523455,0.22503526679127098,6.708000000042375
312249.6927,-0.5280337897607557,2.4889915649964496,-0.0032756096019960334,-0.4522057009647293,6.709000000031665
312249.6937,-0.3651913816918748,1.6387640218884,-0.18346166735213887,-0.992712405111885,6.710000000020955
312249.6947,-0.06363107967930755,0.8898455512447427,-0.21528307187157233,-1.3389892439580284,6.7110000000102445
312249.6957,0.39134880768008445,0.28221612741457597,-0.06833723955098249,-1.4503187833380171,6.711999999999534
312249.6967,0.996753025550959,-0.16178946760781215,0.2690267721553817,-1.307048592284673,6.712999999988824
312249.6977,1.7306456755928816,-0.43936713486853163,0.7876894358601865,-0.9128392088328967,6.714000000036322
312249.6987,2.5529620938341706,-0.5670894925085492,1.4578760875835186,-0.2946361253577097,6.715000000025611
312249.6997,3.408353045486047,-0.5787243915174045,2.231424083099657,0.49964670469979505,6.716000000014901
312249.7007,4.230827644303866,-0.5212418882682192,3.0460025974244394,1.4055178447781715,6.717000000004191
312249.7017,4.949771963258707,-0.4494089033549615,3.8308876629214734,2.3479537837897353,6.717999999993481
312249.7027,5.49677088850764,-0.4195150826450994,4.513735146612228,3.248513428727912,6.719000000040978
312249.7037,5.812566665881525,-0.4828642934747745,5.027688793708017,4.032828171513339,6.720000000030268
312249.7047,5.853458709168173,-0.679694543078567,5.318119900784352,4.637733765717403,6.721000000019558
312249.7057,5.59648911321982,-1.0341518287973948,5.348323950948585,5.0173420350039,6.722000000008848
312249.7067,5.042863712262189,-1.5508438950225607,5.103595160647909,5.1474513334836045,6.722999999998137
312249.7077,4.2192197358119525,-2.2133475867335566,4.5932532885444886,5.02785497594251,6.724000000045635
312249.7087,3.176552873189097,-2.984853178754534,3.85039346712027,4.682310997320497,6.725000000034925
312249.7097,1.9868395042751328,-3.8109192392985913,2.929350187123979,4.156164701165964,6.726000000024214
312249.7107,0.7376124160560165,-4.624102759753888,1.9010894222340964,3.5118452420954065,6.727000000013504
312249.7117,-0.47505118513548783,-5.350041938775575,0.8469464302247874,2.822666470492683,6.728000000002794
312249.7127,-1.5545118173916936,-5.914421614153586,-0.14870898041765482,2.16552994879754,6.728999999992084
312249.7137,-2.4118012303790155,-6.250158520097653,-1.006189191864473,1.6132379236609997,6.730000000039581
312249.7147,-2.973354981740721,-6.304114658719378,-1.6578546304822723,1.2271652194710672,6.731000000028871
312249.7157,-3.1875297617069087,-6.042685248662299,-2.0544242488244002,1.0510073087114962,6.732000000018161
312249.7167,-3.029297415471085,-5.45570955005997,-2.1696228713889267,1.106220125996761,6.733000000007451
312249.7177,-2.5026723761426304,-4.558308739815406,-2.002713529041142,1.3896052737068842,6.73399999999674
312249.7187,-1.6406369720709038,-3.3904500033642204,-1.5786630459603481,1.8732877583482057,6.735000000044238
312249.7197,-0.5025600921178232,-2.0142513452431188,-0.9459142691767971,2.507102310160822,6.736000000033528
312249.7207,0.8306630513385473,-0.5092565010889749,-0.17196671118077497,3.223171108620497,6.737000000022817
312249.7217,2.2633110442571964,1.0338970410834087,0.6628230794748634,3.942243032962285,6.738000000012107
312249.7227,3.692767205215451,2.5208403011585565,1.4726396926459249,4.581193072721785,6.739000000001397
312249.7237,5.017959734074923,3.861190067448192,2.1741090946343165,5.060966965507587,6.739999999990687
312249.7247,6.147545263548874,4.975911718509501,2.6939564935731575,5.314211549036901,6.741000000038184
312249.7257,7.007098307824369,5.803651852759634,2.975700913779441,5.291860087152994,6.742000000027474
312249.7267,7.544667144443117,6.305463247781887,2.984758296858366,4.968041189026448,6.743000000016764
312249.7277,7.734214937288342,6.467498019361385,2.7114779378518112,4.34284026043998,6.744000000006054
312249.7287,7.5766680978842516,6.301438419251477,2.1718355058028007,3.4426481588584896,6.744999999995343
312249.7297,7.098522355950481,5.842649762713974,1.4057305839743632,2.3180629188839625,6.746000000042841
312249.7307,6.348188717325945,5.146255714830224,0.4730658533889181,1.0395446613415473,6.747000000032131
312249.7317,5.390474098449461,4.281531756805112,-0.5520034323159473,-0.3087615897479781,6.74800000002142
312249.7327,4.2997644995942474,3.325169259552827,-1.588087610247079,-1.6364462400184783,6.74900000001071
312249.7337,3.1525955422686054,2.3540651915328286,-2.55416774208411,-2.8547926503958907,6.75
312249.7347,2.0203449543482828,1.4383313355263234,-3.3770546627716755,-3.884517319496327,6.75099999998929
312249.7357,0.9627595941550828,0.6351884528048846,-3.997987649535822,-4.6625626115627465,6.752000000036787
312249.7367,0.02293830203887754,-0.01568187272976378,-4.377746342935138,-5.147306813698046,6.753000000026077
312249.7377,-0.7757595634568714,-0.49490269759581346,-4.4997979318176995,-5.321712290018012,6.754000000015367
312249.7387,-1.4306065861248436,-0.8040476245434173,-4.371195860730046,-5.1941342641653625,6.755000000004657
312249.7397,-1.9581496830809233,-0.9641403787950171,-4.021167392627579,-4.796740565098085,6.755999999993946
312249.7407,-2.3907774582744925,-1.0121927409640579,-3.497553630610093,-4.181724269405856,6.757000000041444
312249.7417,-2.771595287123829,-0.9961576878372215,-2.861474959508067,-3.415703987370082,6.758000000030734
312249.7427,-3.1481598978212273,-0.9688287355798302,-2.180766882149123,-2.5728798578938012,6.759000000020023
312249.7437,-3.5657389144176164,-0.9813176308468469,-1.5228491443447725,-1.7276303148390968,6.760000000009313
312249.7447,-4.060808108389006,-1.0767809365195504,-0.9477434304201864,-0.9472840673959494,6.760999999998603
312249.7457,-4.65547537140771,-1.2850381132652853,-0.5019367634269495,-0.28577883165751106,6.7620000000461005
312249.7467,-5.3534280458270604,-1.6186323129725293,-0.21370097717360723,0.22117442619721914,6.76300000003539
312249.7477,-6.137848341035613,-2.0707393947480144,-0.09033188638529013,0.5589563643992924,6.76400000002468
312249.7487,-6.971545076449267,-2.615145080849351,-0.11757959043969424,0.734666694673655,6.76500000001397
312249.7497,-7.799328255558678,-3.2083030149440255,-0.26132267904191514,0.7754721859277229,6.76600000000326
312249.7507,-8.552427802406823,-3.793278189251947,-0.4713155234603566,0.7248614568445056,6.766999999992549
312249.7517,-9.154551338865348,-4.3051912819721485,-0.6866313588163817,0.6372020652246801,6.768000000040047
312249.7527,-9.52900847821614,-4.677628482342673,-0.842254817063481,0.57116514541637,6.769000000029337
312249.7537,-9.606217269795632,-4.849383224548424,-0.8761625872431483,0.5826962813499219,6.7700000000186265
312249.7547,-9.330863227871534,-4.770860552233037,-0.7361812625321514,0.7182572154926768,6.771000000007916
312249.7557,-8.668007373867999,-4.409505099607099,-0.3859320508164583,1.009036814821011,6.771999999997206
312249.7567,-7.607534509405084,-3.75370692793637,0.19073916363129867,1.4667339762096152,6.7730000000447035
312249.7577,-6.16648738698038,-2.8147865363064573,0.9872996597631823,2.0813592449256157,6.774000000033993
312249.7587,-4.389031593385131,-1.626846828903089,1.9742957483755466,2.821301168614377,6.775000000023283
312249.7597,-2.344020480846058,-0.2444873621304546,3.1013877964189343,3.635677576813669,6.776000000012573
312249.7607,-0.12035757152324494,1.2614155532931468,4.3014721809382035,4.458763317176129,6.777000000001863
312249.7617,2.1794366202484454,2.8094707847157294,5.49650218863917,5.216077054252406,6.777999999991152
312249.7627,4.446875777710175,4.314533895930413,6.604451928199966,5.831541191753506,6.77900000003865
312249.7637,6.5756841964781145,5.6948283837112745,7.5467536821958205,6.235017516940491,6.78000000002794
312249.7647,8.46975693270774,6.878751781656592,8.255490961933942,6.36947789965174,6.7810000000172295
312249.7657,10.050184611653682,7.810722617400899,8.67965158502422,6.197098737957413,6.782000000006519
312249.7667,11.260715044595631,8.455517788310516,8.789835228196255,5.703667134520244,6.782999999995809
312249.7677,12.071174808527044,8.80069701142581,8.580959297960526,4.900846457993688,6.7840000000433065
312249.7687,12.478569914690404,8.856897135795327,8.072700982364053,3.8260535108876543,6.785000000032596
312249.7697,12.505806464134247,8.655985998164274,7.307632999149285,2.5399290969014374,6.786000000021886
312249.7707,12.19819813370445,8.247272864647377,6.347234331614115,1.1216160010713434,6.787000000011176
312249.7717,11.618135485359447,7.69216002621472,5.266163237120734,-0.33772936559302047,6.788000000000466
312249.7727,10.838462285964,7.057769480480065,4.145347867662181,-1.742593841005987,6.7889999999897555
312249.7737,9.935219884127948,6.410175290435399,3.0645635259590702,-3.0012209307035564,6.790000000037253
312249.7747,8.980471211730663,5.807906816566181,2.0952137989792488,-4.033423174875339,6.791000000026543
312249.7757,8.03589659910694,5.296357334310333,1.2940108906281405,-4.77736324399096,6.7920000000158325
312249.7767,7.147766626534026,4.903639749626968,0.6981606218185592,-5.194671259062596,6.793000000005122
312249.7777,6.343751621478074,4.638285475131561,0.3225086429939565,-5.273424386945902,6.793999999994412
312249.7787,5.631837824849634,4.488998457195868,0.1589110609697505,-5.028718740058424,6.7950000000419095
312249.7797,5.001405639393236,4.42647201894878,0.1778739136852269,-4.500793197204531,6.796000000031199
312249.7807,4.426307088316475,4.4070717230437815,0.3322832079450049,-3.7508976774530343,6.797000000020489
312249.7817,3.8695792932639645,4.378002952844368,0.562842413543485,-2.855312073849254,6.798000000009779
312249.7827,3.289268227434096,4.283435458216635,0.8046674592277161,-1.898095832806939,6.798999999999069
312249.7837,2.64472822176818,4.0709630461043815,0.9943767413767332,-0.9632653168532359,6.800000000046566
312249.7847,1.9027183464116006,3.6977440897498366,1.0769664379277466,-0.1271454301249423,6.801000000035856
312249.7857,1.0426410962275667,3.13570070587275,1.0117841084955455,0.5483810361014041,6.802000000025146
312249.7867,0.060359199950181124,2.375248078603766,0.7770038879461959,1.0210957594877348,6.8030000000144355
312249.7877,-1.029826288483947,1.4271712367186908,0.37215564131318873,1.2716617924433755,6.804000000003725
312249.7887,-2.1952639581288302,0.3224502431564147,-0.18154642132472412,1.3045566509863031,6.804999999993015
312249.7897,-3.387120724216755,-0.8899618486403607,-0.8431119574708049,1.1466677912788144,6.8060000000405125
312249.7907,-4.544431292358586,-2.1472007957958428,-1.5557339712144995,0.8437250015772575,6.807000000029802
312249.7917,-5.599633462131291,-3.37800239345679,-2.252410321862281,0.4549539763508302,6.808000000019092
312249.7927,-6.485038460703987,-4.509128214200849,-2.8626725514765434,0.04650604314102812,6.809000000008382
312249.7937,-7.139584460447051,-5.472078886943476,-3.3197563334354983,-0.31566588595118844,6.809999999997672
312249.7947,-7.51518549323258,-6.209437511219606,-3.5675022868900945,-0.5727666349409212,6.811000000045169
312249.7957,-7.582020941687575,-6.680220049669331,-3.5663003003350435,-0.6792575848447047,6.812000000034459
312249.7967,-7.332209638826721,-6.863705167184116,-3.2974825230341223,-0.6074906051895141,6.813000000023749
312249.7977,-6.78146776744366,-6.76136365693042,-2.765720840002311,-0.3504234830501112,6.8140000000130385
312249.7987,-5.968546032092311,-6.3966928583008915,-1.9991792097432606,0.07784167486596683,6.815000000002328
312249.7997,-4.952459673071591,-5.81296617162271,-1.04739066367227,0.6437356061514139,6.815999999991618
312249.8007,-3.8077432803191353,-5.069111826113039,0.022948455881335098,1.297930112195174,6.8170000000391155
312249.8017,-2.618159428720456,-4.234118423256336,1.1338701435920426,1.9806888076204852,6.818000000028405
312249.8027,-1.469446319307621,-3.3805094316347497,2.203149605976465,2.628307081827743,6.819000000017695
312249.8037,-0.44178927386198047,-2.577520507828379,3.151769705228876,3.179978678375181,6.820000000006985
312249.8047,0.39726598394849655,-1.8846432005540121,3.911116008204341,3.5843833330547175,6.820999999996275
312249.8057,0.9987773721190902,-1.346163276360291,4.4292083422255155,3.8053174970030708,6.822000000043772
312249.8067,1.3366707693742337,-0.9872249724808583,4.675367406177337,3.8257855739218223,6.823000000033062
312249.8077,1.4098882876546575,-0.8118033692922879,4.642866388639798,3.6501228856749113,6.824000000022352
312249.8087,1.2422062696179135,-0.8027803408317838,4.349312928681701,3.303918540273328,6.8250000000116415
312249.8097,0.8797326210916443,-0.9241134501726275,3.834727038271473,2.831727025213122,6.826000000000931
312249.8107,0.3863168646325693,-1.1248818874053361,3.1575042684303396,2.292779840872928,6.826999999990221
312249.8117,-0.16269184390916314,-1.3448092232236182,2.3886585909685625,1.755110764969425,6.828000000037719
312249.8127,-0.6877433266931436,-1.5207174621777628,1.6049061341361603,1.288670301681154,6.829000000027008
312249.8137,-1.1127434723149932,-1.5932749133772115,0.8812627682703902,0.9581103611567484,6.830000000016298
312249.8147,-1.3723364915762997,-1.5133708315379628,0.28387465807136497,0.8159586177506226,6.831000000005588
312249.8157,-1.4181150260497022,-1.2474855937716918,-0.13622322060825798,0.8968692816578282,6.831999999994878
312249.8167,-1.2231645690687787,-0.781522942792517,-0.34781759391987727,1.213536161835834,6.833000000042375
312249.8177,-0.7845102078043525,-0.12272104856109453,-0.34224428964077525,1.7546945918143644,6.834000000031665
312249.8187,-0.1232373540006712,0.7005528279400126,-0.1338753476708027,2.48543650775986,6.835000000020955
312249.8197,0.7177159027338537,1.641111810147635,0.2416713431971179,3.3498374536762445,6.8360000000102445
312249.8207,1.677870921360168,2.63714413899808,0.7314135907944682,4.275667624253018,6.836999999999534
312249.8217,2.6851967258464478,3.6178887513640454,1.2705862639204342,5.180753498672095,6.837999999988824
312249.8227,3.663183174571566,4.510241058000119,1.7893645441070418,5.980392416007606,6.839000000036322
312249.8237,4.538302866261739,5.245645724842292,2.220059413441428,6.595115841676119,6.840000000025611
312249.8247,5.24712846859063,5.7666035492292265,2.5040698404146773,6.958058719658924,6.841000000014901
312249.8257,5.74240673105409,6.032155668485112,2.5979006181500015,7.021226184496307,6.842000000004191
312249.8267,5.997493390948512,6.021806922563969,2.4776473337171194,6.760051945605294,6.842999999993481
312249.8277,6.008714518970187,5.737501678904367,2.1415014834793307,6.175805003284992,6.844000000040978
312249.8287,5.795423881220499,5.203455085234489,1.6100244773234396,5.295607333748134,6.845000000030268
312249.8297,5.397752724714856,4.463852049853179,0.9241600159630533,4.170054809005541,6.846000000019558
312249.8307,4.872275870078081,3.578634801830617,0.1411784158491639,2.86866455919788,6.847000000008848
312249.8317,4.286023860515718,2.617787234059939,-0.6710481356297264,1.4735817277832823,6.847999999998137
312249.8327,3.7094349814769116,1.654671992837266,-1.4408739237952595,0.072146629542877,6.849000000045635
312249.8337,3.208947085591054,0.7590698999056382,-2.100135065185963,-1.2509667504277324,6.850000000034925
312249.8347,2.8399668163340075,-0.00939850099064052,-2.591110608664934,-2.4212889773613715,6.851000000024214
312249.8357,2.640919173392735,-0.6068257784369087,-2.872494392480042,-3.3810501719267094,6.852000000013504
312249.8367,2.6289766129621515,-1.0090007178537215,-2.923777519054685,-4.094013827511992,6.853000000002794
312249.8377,2.79790399687654,-1.2134304570453947,-2.7475955729190247,-4.54819350671174,6.853999999992084
312249.8387,3.118249465023112,-1.2392019218458465,-2.3697933875761,-4.756202841527517,6.855000000039581
312249.8397,3.5398817469812194,-1.1246943177385158,-1.837183876696029,-4.753219838611241,6.856000000028871
312249.8407,3.9966439157000804,-0.9233652540522195,-1.2132043019252103,-4.592778808690257,6.857000000018161
312249.8417,4.412684627581394,-0.6980226170680176,-0.5718811192422579,-4.34081463494739,6.858000000007451
312249.8427,4.709860947660572,-0.514143997659048,0.009317180429904337,-4.068553934155807,6.85899999999674
312249.8437,4.815498333263181,-0.43290061126023394,0.457047623928298,-3.844959357245599,6.860000000044238
312249.8447,4.66975399455941,-0.5045738205396841,0.7093440954582045,-3.729475899947472,6.861000000033528
312249.8457,4.231863700672657,-0.763016410362762,0.721842640500008,-3.765797462643423,6.862000000022817
312249.8467,3.4846560706215635,-1.2217110427795903,0.47236704256534207,-3.9772709737329124,6.863000000012107
312249.8477,2.4368825638036777,-1.8718244339032677,-0.03658274632390113,-4.364393999000091,6.864000000001397
312249.8487,1.1231199732717325,-2.68246263764248,-0.7776954171275494,-4.904655636738068,6.864999999990687
312249.8497,-0.3987649128408776,-3.603119135575517,-1.7010955854825875,-5.554739759256488,6.866000000038184
312249.8507,-2.052364214508851,-4.568093985645541,-2.738772385692775,-6.254876839230453,6.867000000027474
312249.8517,-3.749253557527941,-5.502469844875801,-3.8107767122547824,-6.9349184492708815,6.868000000016764
312249.8527,-5.3966826237787,-6.329077999549317,-4.8326024036785755,-7.521537801336008,6.869000000006054
312249.8537,-6.90570847719517,-6.9757895033753305,-5.723050856739869,-7.94584712872379,6.869999999995343
312249.8547,-8.199004541645513,-7.382432724439622,-6.411830296606528,-8.15067937342409,6.871000000042841
312249.8557,-9.217607963586216,-7.506672373143888,-6.8461649551763255,-8.096811842339177,6.872000000032131
312249.8567,-9.925968908039057,-7.328283189472354,-6.99578344040469,-7.76751037696791,6.87300000002142
312249.8577,-10.314827378691987,-6.851404412389385,-6.8558105144724175,-7.1709343780213946,6.87400000001071
312249.8587,-10.401650745327846,-6.1045541067222295,-6.447287311140933,-6.340150018307479,6.875
312249.8597,-10.228598208142015,-5.138396666718686,-5.815272221722413,-5.330731018563571,6.87599999998929
312249.8607,-9.858214368926015,-4.0214715739331135,-5.024706212233628,-4.216160847306427,6.877000000036787
312249.8617,-9.36727008717061,-2.834285950736425,-4.154439740612249,-3.0814642819607987,6.878000000026077
312249.8627,-8.839344005587614,-1.662328806183144,-3.289993046750765,-2.0156690624770954,6.879000000015367
312249.8637,-8.356855654615485,-0.5886661329585569,-2.51574051803238,-1.1038130321879047,6.880000000004657
312249.8647,-7.993309641150422,0.3131865181936839,-1.907261667289684,-0.419257516390513,6.880999999993946
312249.8657,-7.8064855677808955,0.9854471649119966,-1.5245811375785665,-0.01703932170093047,6.882000000041444
312249.8667,-7.833212645690944,1.3907334020631703,-1.4069302355695927,0.07110557621188919,6.883000000030734
312249.8677,-8.086210976155323,1.5147873612221492,-1.5695117649251666,-0.1604258375809611,6.884000000020023
312249.8687,-8.55327864904519,1.3670248236971532,-2.0025532713178724,-0.6906819847067077,6.885000000009313
312249.8697,-9.198875035529174,0.9788845553826122,-2.672710558761366,-1.4741801678087063,6.885999999998603
312249.8707,-9.967918304586929,0.40016594426297986,-3.5266553765280735,-2.445175072970875,6.8870000000461005
312249.8717,-10.791401921790031,-0.3062644544936518,-4.496470789958006,-3.523757351722324,6.88800000003539
312249.8727,-11.593261416825383,-1.0708624977119179,-5.506305435780776,-4.623193119938586,6.88900000002468
312249.8737,-12.297805804986533,-1.824255877618404,-6.479620334128246,-5.657798495431336,6.89000000001397
312249.8747,-12.836978906939537,-2.5038785119629416,-7.346310479431119,-6.550595292758927,6.89100000000326
312249.8757,-13.156738956893678,-3.059742645333068,-8.049002843566123,-7.240019203565665,6.891999999992549
312249.8767,-13.221937758163095,-3.458792268214795,-8.547920513585787,-7.685047574600929,6.893000000040047
312249.8777,-13.019233851093425,-3.6874264069073748,-8.823850532702716,-7.868270744834464,6.894000000029337
312249.8787,-12.557772428547423,-3.751965448000282,-8.87894584821103,-7.796633378877021,6.8950000000186265
312249.8797,-11.8675884182277,-3.677039674171533,-8.735310436872533,-7.499800483240707,6.896000000007916
312249.8807,-10.995916156182355,-3.502086296451563,-8.431539519456067,-7.026334491981823,6.896999999997206
312249.8817,-10.001797036694816,-3.2763291105036196,-8.017591762620258,-6.4380823485187895,6.8980000000447035
312249.8827,-8.949544995618352,-3.0527650576173277,-7.548537260042651,-5.8033442000896045,6.899000000033993
312249.8837,-7.901742143525079,-2.8817797485683108,-7.077837422265489,-5.189511406045928,6.900000000023283
312249.8847,-6.91248232311165,-2.805049891117934,-6.65085960949197,-4.655909852874372,6.901000000012573
312249.8857,-6.021554437623124,-2.8503611210820496,-6.299305806466311,-4.24756052961535,6.902000000001863
312249.8867,-5.250162724441436,-3.0278779612310793,-6.037143174793613,-3.9904754922580574,6.902999999991152
312249.8877,-4.598627129191687,-3.3282576268229507,-5.858473926164657,-3.888953102369122,6.90400000003865
312249.8887,-4.046308798321467,-3.7228154840523238,-5.737587446308011,-3.925137026638517,6.90500000002794
312249.8897,-3.5537830091261564,-4.1657452802052335,-5.631218124597783,-4.060878585595169,6.9060000000172295
312249.8907,-3.067056559677912,-4.598191963036975,-5.482809544961083,-4.241713758302149,6.907000000006519
312249.8917,-2.523420961255519,-4.953789204344993,-5.228381562847338,-4.4025568940784625,6.907999999995809
312249.8927,-1.8583669971112824,-5.165125921027194,-4.803431523305135,-4.474543457170604,6.9090000000433065
312249.8937,-1.0128766992896425,-5.1705107065703535,-4.1501908785537704,-4.392340530570499,6.910000000032596
312249.8947,0.059633607146962184,-4.920369560306994,-3.224514758852976,-4.101197394472852,6.911000000021886
312249.8957,1.3874165758667008,-4.382643977324974,-2.001709178845944,-3.5630337288420897,6.912000000011176
312249.8967,2.9761432114310638,-3.54665029341702,-0.48069613370380176,-2.7609572883019835,6.913000000000466
312249.8977,4.806741359611779,-2.425008032100327,1.3139282377708708,-1.70175690858202,6.9139999999897555
312249.8987,6.835565658329417,-1.053430548401596,3.332187887049828,-0.41611522910971166,6.915000000037253
312249.8997,8.996916264894471,0.511622604735662,5.501394439535616,1.043490987898285,6.916000000026543
312249.9007,11.207696235565875,2.1972255688318514,7.730981189586088,2.607008561365684,6.9170000000158325
312249.9017,13.37378975445709,3.9198054207650563,9.919087434798193,4.19274196277164,6.918000000005122
312249.9027,15.397575732604247,5.591958893318111,11.960307043628264,5.714434361079378,6.918999999994412
312249.9037,17.18587996086571,7.1296282025054305,13.753900780089127,7.088814449280733,6.9200000000419095
312249.9047,18.65762484282909,8.458962955020121,15.211724371932387,8.242882896056006,6.921000000031199
312249.9057,19.750463049501633,9.522225662377062,16.265148291132952,9.12023845584647,6.922000000020489
312249.9067,20.425777560866802,10.282191143688296,16.870338464845705,9.685838449239318,6.923000000009779
312249.9077,20.671586133011505,10.724635987705115,17.011420678241386,9.928742110997867,6.923999999999069
312249.9087,20.50308812222658,10.85869902261115,16.70125044788655,9.862583024984463,6.925000000046566
312249.9097,19.9608163834003,10.715099381543993,15.9797354112074,9.523739058880233,6.926000000035856
312249.9107,19.106584814433702,10.342405202022915,14.909887035601294,8.967393031013303,6.927000000025146
312249.9117,18.01763094523005,9.801733140476184,13.571990523983708,8.261882704284542,6.9280000000144355
312249.9127,16.779522553807944,9.16040849687144,12.056455745292705,7.4819044556158625,6.929000000003725
312249.9137,15.478511266293653,8.485213281164125,10.456031138335975,6.701244867262972,6.929999999993015
312249.9147,14.194063534500575,7.8358855596312225,8.858115465206371,5.985757781503229,6.9310000000405125
312249.9157,12.992275856598205,7.259504460563779,7.337884118932457,5.387276858008484,6.932000000029802
312249.9167,11.920789110210192,6.786304216249373,5.9528594379539586,4.939058142756772,6.933000000019092
312249.9177,11.005665574908356,6.427316564372204,4.7394068904591595,4.653193059752129,6.934000000008382
312249.9187,10.25049657643709,6.174057913376951,3.7114456733321535,4.520234797002564,6.934999999997672
312249.9197,9.63778793812503,6.000273886267446,2.861442266350692,4.511059770631525,6.936000000045169
312249.9207,9.132446245175265,5.865549234646367,2.1635304042670773,4.580762565651934,6.937000000034459
312249.9217,8.686983280786384,5.720405780616833,1.578392841658699,4.674179527599858,6.938000000023749
312249.9227,8.247888990806278,5.512363228138234,1.0593695431316783,4.732473114420346,6.9390000000130385
312249.9237,7.762511264417419,5.192341935783057,0.5591401869623215,4.7001023722221875,6.940000000002328
312249.9247,7.185734554967821,4.720752495762107,0.03627744246702619,4.531465098226715,6.940999999991618
312249.9257,6.485773303368884,4.07264761353163,-0.5390137513527522,4.196528440483346,6.9420000000391155
312249.9267,5.64848776011069,3.241404342189166,-1.1805687528005586,3.6848639058056913,6.943000000028405
312249.9277,4.6797799742642585,2.240550118486955,-1.883799140263522,3.007660342186602,6.944000000017695
312249.9287,3.605821526303408,1.103529990234273,-2.625352346209835,2.1974889955981025,6.945000000006985
312249.9297,2.4710828455043123,-0.1185831699472535,-3.364938385917086,1.3058185174581396,6.945999999996275
312249.9307,1.3343551002545724,-1.3612289216001332,-4.049145811771702,0.39850279072727873,6.947000000043772
312249.9317,0.26315783881659305,-2.551958525848556,-4.616865441519647,-0.4503315463173027,6.948000000033062
312249.9327,-0.6729111766406288,-3.6169549343121146,-5.005774700154497,-1.1654081510472585,6.949000000022352
312249.9337,-1.4092192862326571,-4.4878409760057805,-5.159224046298085,-1.6777393693634086,6.9500000000116415
312249.9347,-1.8928282860112302,-5.108110969430636,-5.032821031368797,-1.931647158974667,6.951000000000931
312249.9357,-2.0882302409885796,-5.4385540040342235,-4.6000317156819595,-1.890668017242457,6.951999999990221
312249.9367,-1.9815050517686672,-5.461132302185406,-3.8562111787033886,-1.5417464339738598,6.953000000037719
312249.9377,-1.5824680011473153,-5.180926163146818,-2.8206257581010443,-0.8972833453517194,6.954000000027008
312249.9387,-0.924571509157309,-4.625943570990491,-1.5362246696376647,0.00518871103050602,6.955000000016298
312249.9397,-0.06254516812453523,-3.844799393258357,-0.06713867311640867,1.1057034562553054,6.956000000005588
312249.9407,0.9320197669385547,-2.9024759757260234,1.505893145782555,2.326701749291926,6.956999999994878
312249.9417,1.976732707041676,-1.8745636001560468,3.0917625738678645,3.5795770332646417,6.958000000042375
312249.9427,2.985541063697407,-0.8405274325457388,4.596325445048909,4.7723200479284635,6.959000000031665
312249.9437,3.8762632028509763,0.1233572746216212,5.930145807708583,5.817548595186331,6.960000000020955
312249.9447,4.5777961966385226,0.9507271911792139,7.015923245013493,6.640167879308543,6.9610000000102445
312249.9457,5.036306406646912,1.5908684291635882,7.794901315497953,7.183939368790529,6.961999999999534
312249.9467,5.21980735399166,2.012923142846827,8.231649184411399,7.416338219555,6.962999999988824
312249.9477,5.120683983913887,2.208167206868769,8.316761870488325,7.3312412602561485,6.964000000036322
312249.9487,4.755920281021987,2.1901480923867673,8.06722229837615,6.9491937449779035,6.965000000025611
312249.9497,4.165008971244869,1.99267963305375,7.524391338235032,6.315233594987354,6.966000000014901
312249.9507,3.4057461460874476,1.6658981590690516,6.749818571664724,5.494484379732659,6.967000000004191
312249.9517,2.5483182160049056,1.2707722280185871,5.8192746276326375,4.5659403302198776,6.967999999993481
312249.9527,1.6682536929897176,0.8726076070754722,4.815575352168298,3.6150377290519877,6.969000000040978
312249.9537,0.8389218148499658,0.5341857194963907,3.820882341819695,2.725720561851979,6.970000000030268
312249.9547,0.1243032715246017,0.3092080793410429,2.9092123823872487,1.97275342024618,6.971000000019558
312249.9557,-0.42726894379385555,0.2366879977920223,2.139865442157445,1.4150070495545484,6.972000000008848
312249.9567,-0.7877956047220036,0.3368371436277297,1.5523893294586073,1.0903444373867404,6.972999999998137
312249.9577,-0.952274917968671,0.6088475619700975,1.1635478810611313,1.0125775391793381,6.974000000045635
312249.9587,-0.9390916668524353,1.0307838755450214,0.9665633590362473,1.170762085876899,6.975000000034925
312249.9597,-0.788101261930563,1.5615937767723607,0.9326817338403028,1.530870216659639,6.976000000024214
312249.9607,-0.5566024123334767,2.145037747984853,1.0148833657436676,2.039650138822015,6.977000000013504
312249.9617,-0.31359727676493643,2.7151514469596982,1.153353309612387,2.6302710963271045,6.978000000002794
312249.9627,-0.1329039570006663,3.202704661676419,1.2821553522989972,3.229181141114448,6.978999999992084
312249.9637,-0.08579687934421054,3.5420237506706362,1.3364385085898325,3.763491112921571,6.980000000039581
312249.9647,-0.23389519517468116,3.6775094810851927,1.2594552638386218,4.168151848088174,6.981000000028871
312249.9657,-0.6229935022616417,3.569212529636248,1.0086921297115414,4.392217325936686,6.982000000018161
312249.9667,-1.278435506399594,3.196921603416924,0.5605029365794761,4.403581536876883,6.983000000007451
312249.9677,-2.2024789024424605,2.5623650518539147,-0.0872151142617594,4.191731844041831,6.98399999999674
312249.9687,-3.3739036843849544,1.6893116577318859,-0.9145679454808984,3.7682611762333944,6.985000000044238
312249.9697,-4.749895502781558,0.6215618912192087,-1.881478288139648,3.1651058456709444,6.986000000033528
312249.9707,-6.270012183212672,-0.5809728637907043,-2.931586155342289,2.4307030156556433,6.987000000022817
312249.9717,-7.861837000511866,-1.8477189501511353,-3.997848330439983,1.624469478269838,6.988000000012107
312249.9727,-9.447756817977513,-3.103883982566571,-5.009279713520328,0.8101710012057829,6.989000000001397
312249.9737,-10.952192984453175,-4.277265942230931,-5.898164598605943,0.04886256192070434,6.989999999990687
312249.9747,-12.30856876825671,-5.304763893906896,-6.607017080862235,-0.6078766444888503,6.991000000038184
312249.9757,-13.465323463144008,-6.137956991336763,-7.0945916734792736,-1.1237177846178794,6.992000000027474
312249.9767,-14.390377597733812,-6.747211142840111,-7.3403357950863155,-1.4817682503760599,6.993000000016764
312249.9777,-15.073606729964501,-7.123918380106328,-7.346826308497915,-1.6867274166938715,6.994000000006054
312249.9787,-15.527078162553195,-7.28065826485506,-7.139928131914578,-1.7647720246630214,6.994999999995343
312249.9797,-15.783026317715178,-7.2492754482489,-6.7666350543327995,-1.7611565327360268,6.996000000042841
312249.9807,-15.889766775748532,-7.077072629422264,-6.290779643109898,-1.7357417394124728,6.997000000032131
312249.9817,-15.905954119635894,-6.821503478960926,-5.787008442232163,-1.756872897865286,6.99800000002142
312249.9827,-15.89375458534394,-6.543897393349371,-5.333590120950489,-1.8941959628573657,6.99900000001071
312249.9837,-15.911614757956434,-6.302842765603472,-5.004741116028034,-2.211111023028799,7.0
312249.9847,-16.00735125538914,-6.147888500282809,-4.863204193929115,-2.757604427790344,7.00099999998929
312249.9857,-16.21225907035829,-6.114191551142044,-4.953795234706096,-3.5641713016589236,7.002000000036787
312249.9867,-16.536840490339102,-6.2186444921531425,-5.298544299657321,-4.637440790606286,7.003000000026077
312249.9877,-16.968601465619102,-6.457870798921282,-5.893907292682539,-5.957957034695348,7.004000000015367
312249.9887,-17.47216292457773,-6.8082910313584275,-6.7103287297169825,-7.480364896250394,7.005000000004657
312249.9897,-17.991710158159787,-7.228258624895648,-7.6942132129437955,-9.136020633819482,7.005999999993946
312249.9907,-18.45557578351992,-7.662059625170652,-8.772134694640496,-10.83781616506669,7.007000000041444
312249.9917,-18.782543057178806,-8.045386524596596,-9.856900548489499,-12.486793733848229,7.008000000030734
312249.9927,-18.88928673191332,-8.3117504661028,-10.854912252947214,-13.979956190438351,7.009000000020023
312249.9937,-18.698254740836116,-8.399202786129614,-11.674142933059782,-15.218563290813586,7.010000000009313
312249.9947,-18.14524685637665,-8.256705319507699,-12.231995674997355,-16.116157471875923,7.010999999998603
312249.9957,-17.185970751699156,-7.8495221622374185,-12.462320652063875,-16.605587916529934,7.0120000000461005
312249.9967,-15.800949311627285,-7.163100402518271,-12.320952080230672,-16.644396816363365,7.01300000003539
312249.9977,-13.998306631962132,-6.205054370489339,-11.789269594269692,-16.218087242509288,7.01400000002468
312249.9987,-11.81415912519704,-5.005052793002106,-10.875478701346475,-15.340992781659198,7.01500000001397
312249.9997,-9.310563351907746,-3.6126127448216683,-9.613522971256161,-14.054695568928528,7.01600000000326
312250.0007,-6.571201935817711,-2.0930084176700046,-8.059765364305163,-12.424169595870016,7.016999999992549
312250.0017,-3.6952010953491476,-0.5216864862443965,-6.287785808598238,-10.53203793510526,7.018000000040047
312250.0027,-0.7896475586540447,1.0222747559648313,-4.381816593257003,-8.471505416048347,7.019000000029337
312250.0037,2.0385077571711996,2.4630325139783853,-2.4294596286359655,-6.338645771965582,7.0200000000186265
312250.0047,4.690418299511286,3.734511737680141,-0.5143885553648898,-4.224773272155286,7.021000000007916
312250.0057,7.082458997522017,4.785974907637772,1.290271274502345,-2.209608789395033,7.021999999997206
312250.0067,9.151854652777416,5.58609667302046,2.927269350472245,-0.35586151716784514,7.0230000000447035
312250.0077,10.860329138434262,6.125157598165392,4.358784380178953,1.2943007703751568,7.024000000033993
312250.0087,12.195477780422571,6.415155835766642,5.567910300213332,2.7206130469261263,7.025000000023283
312250.0097,13.169785285509722,6.487839613976475,6.557987644923214,3.923844597942262,7.026000000012573
312250.0107,13.817437284533492,6.390866980466476,7.349910426089791,4.922861826754434,7.027000000001863
312250.0117,14.189283046925643,6.182482316320851,7.977740174499405,5.749987557922335,7.027999999991152
312250.0127,14.346479920434291,5.92524374995007,8.483125455074042,6.4451881224455825,7.02900000003865
312250.0137,14.353469913113432,5.679427566542264,8.90914058442173,7.049731035792861,7.03000000002794
312250.0147,14.270994167769347,5.496765983227485,9.294210161742319,7.600002239487265,7.0310000000172295
312250.0157,14.14983683949186,5.415140255860011,9.666771302857136,8.122148293617158,7.032000000006519
312250.0167,14.025907864601377,5.454755360456007,10.04124479336166,8.628118119524315,7.032999999995809
312250.0177,13.917132736073928,5.616174836616523,10.415747952027724,9.113530100305693,7.0340000000433065
312250.0187,13.822430907496315,5.8804092891978055,10.771799757322471,9.557598507328679,7.035000000032596
312250.0197,13.72285145469743,6.21104771150661,11.07606103102355,9.925137567545436,7.036000000021886
312250.0207,13.584716299516579,6.5582173277505635,11.283940029669543,10.170443631492132,7.037000000011176
312250.0217,13.364419271527195,6.8639751089157715,11.344697983610837,10.242657700403306,7.038000000000466
312250.0227,13.014363507356865,7.068590525727785,11.207529630375731,10.092051957563061,7.0389999999897555
312250.0237,12.489406484730713,7.117088698594452,10.8279867174235,9.676580962366312,7.040000000037253
312250.0247,11.75313244219163,6.965394919013233,10.174068721716283,8.968001353648749,7.041000000026543
312250.0257,10.78329080459931,6.5854584818928865,9.231329303004959,7.9568972743259,7.0420000000158325
312250.0267,9.575824493613501,5.96883241496416,8.006437186730148,6.656049318383641,7.043000000005122
312250.0277,8.147055050324555,5.128336476444696,6.528777625628433,5.10174297737961,7.043999999994412
312250.0287,6.53377801387613,4.0976190190984525,4.849870971589468,3.3528129410931995,7.0450000000419095
312250.0297,4.791233366104318,2.9286405680767684,3.0405995483045496,1.4874425524182864,7.046000000031199
312250.0307,2.989130992692776,1.6873078862322874,1.1864518184531767,-0.4020387271456269,7.047000000020489
312250.0317,1.2061085798059177,0.447671624735163,-0.618807749436429,-2.2159149410120547,7.048000000009779
312250.0327,-0.47684053426684575,-0.7147548437663298,-2.2804735090527837,-3.8547950261051884,7.048999999999069
312250.0337,-1.9833252962535746,-1.729907508472997,-3.7105617102688537,-5.227567944081544,7.050000000046566
312250.0347,-3.248213745758847,-2.5396398078766267,-4.835083753352609,-6.258859058865117,7.051000000035856
312250.0357,-4.223327550074801,-3.103111002348711,-5.60023967568251,-6.895282855459805,7.052000000025146
312250.0367,-4.8816049066154505,-3.400560933587656,-5.976937454844839,-7.10989353078607,7.0530000000144355
312250.0377,-5.219311267587711,-3.435091983221675,-5.963197711839823,-6.904400278117062,7.054000000003725
312250.0387,-5.256068531396909,-3.2322716822338142,-5.58420115146462,-6.308922433848947,7.054999999993015
312250.0397,-5.032688028917083,-2.83758125820441,-4.889958524441418,-5.379290984902056,7.0560000000405125
312250.0407,-4.607009564209855,-2.311945761062623,-3.9508084893645954,-4.192134856249343,7.057000000029802
312250.0417,-4.048146440240842,-1.7257696809561343,-2.8511555607106818,-2.838200393518021,7.058000000019092
312250.0427,-3.4296951697511022,-1.1520496641852276,-1.6820281865470421,-1.4145200875292447,7.059000000008382
312250.0437,-2.822572613417053,-0.6592284640788625,-0.5331494878031546,-0.01615550254534987,7.059999999997672
312250.0447,-2.2881821613883186,-0.30448241018315014,0.514740743556468,1.2717210957346958,7.061000000045169
312250.0457,-1.8725802652823864,-0.1280954916700832,1.3965991419974466,2.380675687962582,7.062000000034459
312250.0467,-1.6022179510198584,-0.14947025520747287,2.068206959061557,3.2641651756115486,7.063000000023749
312250.0477,-1.4816782740546386,-0.3651689719637582,2.5092466488433636,3.9005308913212704,7.0640000000130385
312250.0487,-1.4936350355403125,-0.7491830695217436,2.724058256854216,4.293578230593598,7.065000000002328
312250.0497,-1.6010396461566327,-1.255413594277212,2.740030692521561,4.470719920819257,7.065999999991618
312250.0507,-1.751323270037422,-1.822131368731559,2.6038104639659934,4.478894229848851,7.0670000000391155
312250.0517,-1.8822019397695449,-2.3779933541208482,2.3757196667798115,4.378682116214539,7.068000000028405
312250.0527,-1.9285128793244357,-2.8490402245296846,2.1229456239877202,4.237218355295307,7.069000000017695
312250.0537,-1.8294065810046019,-3.1660040637431517,1.9121800280567587,4.1206045221684455,7.070000000006985
312250.0547,-1.5351815767625554,-3.271223786183655,1.8024345896655403,4.086575523914286,7.070999999996275
312250.0557,-1.0130811703836078,-3.1245024351797572,1.8387383885220732,4.178142025549386,7.072000000043772
312250.0567,-0.25147064141728925,-2.70734140482783,2.0473316227319684,4.418831598812908,7.073000000033062
312250.0577,0.7380299919564212,-2.025142093324599,2.4328202490093327,4.809991560605676,7.074000000022352
312250.0587,1.920683882037502,-1.1071604569769977,2.9775609059237147,5.330411940851012,7.0750000000116415
312250.0597,3.2410507556034474,-0.004215500724624025,3.643324697033637,5.93829784301117,7.076000000000931
312250.0607,4.627458139042652,1.215631965177132,4.375063550411537,6.575389028274901,7.076999999990221
312250.0617,5.998110922723726,2.473019781081979,5.106396001695006,7.1728134543232445,7.078000000037719
312250.0627,7.268258446353348,3.68427925207574,5.766260613198228,7.6580913104604615,7.079000000027008
312250.0637,8.357733272014219,4.768819854549219,6.286071312799333,7.962593376625458,7.080000000016298
312250.0647,9.19813747747602,5.656204012835509,6.606660802023262,8.028713229627211,7.081000000005588
312250.0657,9.738984499580642,6.292244306697098,6.684320468205434,7.816041168844086,7.081999999994878
312250.0667,9.952204243971444,6.643551922249798,6.495335654885506,7.305925876205966,7.083000000042375
312250.0677,9.834576709763315,6.700116380687929,6.038564729455886,6.503968083183105,7.084000000031665
312250.0687,9.407859448023371,6.47568777777549,5.335804369856551,5.440193342418654,7.085000000020955
312250.0697,8.716597300034817,6.0059453004273005,4.429902755218449,4.16687849717984,7.0860000000102445
312250.0707,7.823827291268914,5.344648981053524,3.3808052963044264,2.7542363097273674,7.086999999999534
312250.0717,6.8050953869818,4.55816481231403,2.259922229770641,1.2843724305155495,7.087999999988824
312250.0727,5.741365134201979,3.718907773155863,1.1433736690941716,-0.1559020747514162,7.089000000036322
312250.0737,4.7115050508404535,2.8983481179216115,0.10477916906857046,-1.4827076227126212,7.090000000025611
312250.0747,3.785081508075802,2.160263811871359,-0.7916954854766535,-2.6224437915547223,7.091000000014901
312250.0757,3.016152851547154,1.55489279951544,-1.4973462556847632,-3.5181379488759763,7.092000000004191
312250.0767,2.4386616073491445,1.1145459190394797,-1.9833982619386508,-4.134183404271382,7.092999999993481
312250.0777,2.0638644441048752,0.8510939845181277,-2.2434889199537627,-4.459014012955194,7.094000000040978
312250.0787,1.8800394378564458,0.7555553998809468,-2.2939187711561146,-4.505464913570137,7.095000000030268
312250.0797,1.8544866461700065,0.7998020652638548,-2.1716425315785766,-4.3087963546052634,7.096000000019558
312250.0807,1.9376128791273575,0.940191773529869,-1.930196628346446,-3.922587046531948,7.097000000008848
312250.0817,2.0686868671298675,1.1227453209906797,-1.633964410338907,-3.412912640353078,7.097999999998137
312250.0827,2.1826868003816196,1.2893347750954767,-1.3513461058753178,-2.8513932264307087,7.099000000045635
312250.0837,2.217554548749437,1.3842505945825037,-1.1475110509228605,-2.307804612253363,7.100000000034925
312250.0847,2.121130349123146,1.3604792155628966,-1.0774537352552949,-1.8429906341485216,7.101000000024214
312250.0857,1.8570724073272507,1.185052782327812,-1.1800483183091746,-1.502783639497218,7.102000000013504
312250.0867,1.4091647911530638,0.8429259093828275,-1.4737009059861077,-1.3135404118679808,7.103000000002794
312250.0877,0.7835746072093563,0.33898151530421355,-1.9540442263460358,-1.2797409121547347,7.103999999992084
312250.0887,0.008820432031752194,-0.30204561652142536,-2.5939203966470497,-1.3838928826858687,7.105000000039581
312250.0897,-0.8665612693958687,-1.037731178043974,-3.3456736053837877,-1.5887565934509438,7.106000000028871
312250.0907,-1.7784383782959992,-1.8120048176075811,-4.145547588290582,-1.8416732110046667,7.107000000018161
312250.0917,-2.6531742893099777,-2.5606814495250836,-4.919774948360635,-2.0805700879226996,7.108000000007451
312250.0927,-3.41480236950401,-3.2179369337796837,-5.591777022553204,-2.241047370743897,7.10899999999674
312250.0937,-3.992588841896392,-3.723087744231838,-6.089780678533384,-2.2638393698052917,7.110000000044238
312250.0947,-4.328247433440253,-4.027000151787653,-6.3541132394074475,-2.101902148808569,7.111000000033528
312250.0957,-4.382098944214296,-4.09748664551475,-6.343463257598318,-1.7264100745924433,7.112000000022817
312250.0967,-4.137567521508859,-3.923142763831937,-6.039490680857334,-1.1310457646259777,7.113000000012107
312250.0977,-3.603563354299463,-3.515226974908593,-5.449325908030136,-0.33413024459456325,7.114000000001397
312250.0987,-2.8145034535272644,-2.9073751976309543,-4.605698285661537,0.6216524949033803,7.114999999990687
312250.0997,-1.8279485720243451,-2.1531515809798587,-3.5646613077853195,1.671950065920945,7.116000000038184
312250.1007,-0.7200631799465921,-1.3216477703980811,-2.401112193566897,2.7356342482915386,7.117000000027474
312250.1017,0.4206854625107143,-0.49153351827814207,-1.2025152961103833,3.7214562209060085,7.118000000016764
312250.1027,1.5010039937651958,0.2558864905300885,-0.061411403497609394,4.535856210760027,7.119000000006054
312250.1037,2.430727579970717,0.8439562057465337,0.9325883084717843,5.0912045256937395,7.119999999995343
312250.1047,3.1305093044996695,1.2076034171183385,1.7005754315281592,5.3137054834402395,7.121000000042841
312250.1057,3.5385274448958293,1.2992691543942734,2.181158860159181,5.150224094616573,7.122000000032131
312250.1067,3.6155891087319785,1.0932688312336591,2.335687261952872,4.573394795857088,7.12300000002142
312250.1077,3.3481637358685914,0.5881721592278517,2.151399089554252,3.5845324501576945,7.12400000001071
312250.1087,2.7490795557962326,-0.19302169613653639,1.642218656734582,2.214072654940518,7.125
312250.1097,1.855840747957179,-1.2049262451545568,0.8471422325297853,0.5195010961873239,7.12599999998929
312250.1107,0.7267509047812318,-2.3838275778879523,-0.17361185144642896,-1.4190322637574178,7.127000000036787
312250.1117,-0.5647627242650826,-3.6533700702585388,-1.344302759059688,-3.505001797749865,7.128000000026077
312250.1127,-1.9370601058645702,-4.931321739774499,-2.580656005829812,-5.633109043058189,7.129000000015367
312250.1137,-3.307756361162465,-6.136772159915812,-3.7974622836656446,-7.697492248470914,7.130000000004657
312250.1147,-4.6010213925302175,-7.197077902639787,-4.916054451025925,-9.599784839559701,7.130999999993946
312250.1157,-5.754009544307651,-8.053899136572998,-5.870949801731787,-11.256287931765582,7.132000000041444
