TimeStamp,ECR,FCR,ECU,FCU,time_index
312278.9837,40.9841407370715,29.727803802742596,59.67885052269089,32.089921195333204,36.0
312278.9847,47.07366381282785,34.510473405981884,69.26865479937996,36.94410148924383,36.00099999998929
312278.9857,51.545382744103726,37.973512711725455,76.60807914503626,40.32616631837807,36.00200000003679
312278.9867,54.302372553349386,40.048616653182286,81.52212139043229,42.184016562657106,36.00300000002608
312278.9877,55.31045455223621,40.71894063111486,83.91895794028765,42.51983984601716,36.00400000001537
312278.9887,54.60015513296689,40.02013508022262,83.79412080932207,41.3905489576757,36.00500000000466
312278.9897,52.265204638020684,38.038517405059075,81.23044087104579,38.90530647208041,36.005999999993946
312278.9907,48.45758433849798,34.90641946063671,76.3936934863821,35.22017542360426,36.007000000041444
312278.9917,43.37939349887315,30.79497146942456,69.52417966838472,30.530167054337365,36.008000000030734
312278.9927,37.27205540668427,25.904789221929637,60.924758618359995,25.05917227791568,36.00900000002002
312278.9937,30.403588600908733,20.455201364110437,50.94609188674814,19.04844285585072,36.01000000000931
312278.9947,23.05481821069495,14.67277138812131,39.97004480777717,12.744413702455658,36.0109999999986
312278.9957,15.505478416320434,8.779923165498941,28.392301583102707,6.386716420921034,36.0120000000461
312278.9967,8.021153271153752,2.9844638966415595,16.60527736725713,0.19721951567746818,36.01300000003539
312278.9977,0.8419195296405122,-2.5292849576674294,4.982352268149659,-5.629156976859705,36.01400000002468
312278.9987,-5.826600849399781,-7.607182592589658,-6.135685786959971,-10.931258195830862,36.01500000001397
312278.9997,-11.819285060349182,-12.129415924232248,-16.451306950226133,-15.585753989797198,36.01600000000326
312279.0007,-17.01441009286172,-16.011948091984976,-25.71758422884159,-19.508292108210313,36.01699999999255
312279.0017,-21.333437544647822,-19.205350738655707,-33.74206484091144,-22.651846907840646,36.01800000004005
312279.0027,-24.737970041602598,-21.69132410988011,-40.38729379688081,-25.00260497673573,36.01900000002934
312279.0037,-27.224393783999123,-23.477399017100524,-45.568369203846835,-26.573934943153283,36.02000000001863
312279.0047,-28.816895949820267,-24.590455663808054,-49.248116678465614,-27.399141800429412,36.021000000007916
312279.0057,-29.559651704452566,-25.06977353952377,-51.43061487404026,-27.5237921269062,36.021999999997206
312279.0067,-29.509004579313544,-24.960337189957993,-52.15387431041308,-26.998407675043097,36.0230000000447
312279.0077,-28.726414508108725,-24.307064328214462,-51.48246339478214,-25.87226006355107,36.02400000003399
312279.0087,-27.27282580849033,-23.150501649141663,-49.50079212170148,-24.18886501934087,36.02500000002328
312279.0097,-25.204925675916023,-21.524361979481657,-46.30761586080008,-21.983583678770245,36.02600000001257
312279.0107,-22.573540720550433,-19.45507095891527,-42.01212527423826,-19.283509183980403,36.02700000000186
312279.0117,-19.42417694747519,-16.963272389569436,-36.73176449407439,-16.109571220460793,36.02799999999115
312279.0127,-15.799471243757887,-14.067030048749382,-30.59169129033839,-12.480552888854548,36.02900000003865
312279.0137,-11.743113143019754,-10.78628066545855,-23.725583204166647,-8.418506425692392,36.03000000002794
312279.0147,-7.304634755910889,-7.147955672274873,-16.277323470086948,-3.9548970014788902,36.03100000001723
312279.0157,-2.5443698026023744,-3.1911115255426594,-8.402986782950595,0.8632874289756266,36.03200000000652
312279.0167,2.4621411591449167,1.0286026708669234,-0.2724985601266654,5.968238317581507,36.03299999999581
312279.0177,7.6209709804608305,5.4357548076712146,7.929633537874378,11.267557782982228,36.03400000004331
312279.0187,12.81840240307769,9.933712395625045,16.005023473222987,16.64260324000448,36.035000000032596
312279.0197,17.921673176313938,14.405324513023984,23.74390154409595,21.94933770271195,36.036000000021886
312279.0207,22.78202421114689,18.715826026202617,30.92956035537777,27.02184492685937,36.037000000011176
312279.0217,27.239969175194467,22.717869419018708,37.344694517287394,31.678416388424402,36.038000000000466
312279.0227,31.132473261636278,26.258378830609317,42.77935795233108,35.72986984485561,36.038999999989755
312279.0237,34.301526245062014,29.186737405384473,47.040065728994925,38.98954035457649,36.04000000003725
312279.0247,36.60344026187555,31.36368043894072,49.95941210781666,41.28421482889601,36.04100000002654
312279.0257,37.91811114406188,32.670186249878874,51.40547890178132,42.465176378572565,36.04200000001583
312279.0267,38.15746247413174,33.01564170102628,51.29027847259325,42.41849451955215,36.04300000000512
312279.0277,37.27234560734159,32.34461090478378,49.576517094806576,41.073744154637374,36.04399999999441
312279.0287,35.25729128170597,30.641648476434383,46.2820733314,38.41045522172802,36.04500000004191
312279.0297,32.152687004633286,27.933761460480177,41.48175212550703,34.461774260458476,36.0460000000312
312279.0307,28.04417164468679,24.29032074548559,35.306082607113055,29.315041587631466,36.04700000002049
312279.0317,23.059273402530064,19.820434315933632,27.937156319775895,23.109232175192158,36.04800000000978
312279.0327,17.361546913781122,14.668000825616495,19.601731010340988,16.02945190709402,36.04899999999907
312279.0337,11.142667744708552,9.004843353001226,10.56203196337081,8.298901460674758,36.050000000046566
312279.0347,4.6130990306862305,3.0224632492463313,1.104849260211079,0.16889818321743166,36.051000000035856
312279.0357,-2.007958644625709,-3.076959437324956,-8.470359204264158,-8.09233280213666,36.052000000025146
312279.0367,-8.502594749804107,-9.089665968456446,-17.863601406748376,-16.21133227829639,36.053000000014435
312279.0377,-14.66349509235572,-14.818900376711222,-26.785982423418055,-23.920792956536733,36.054000000003725
312279.0387,-20.30193221308603,-20.08244232851505,-34.97017432386032,-30.969982669311182,36.054999999993015
312279.0397,-25.25400007056838,-24.718694193193596,-42.179197915959676,-37.133659984928634,36.05600000004051
312279.0407,-29.384841908264278,-28.591086774913354,-48.213158506557356,-42.21910566175641,36.0570000000298
312279.0417,-32.59082257164825,-31.59074098572051,-52.91376578824345,-46.071080786354926,36.05800000001909
312279.0427,-34.7997914378915,-33.63748847619955,-56.16665575318829,-48.57470954246927,36.05900000000838
312279.0437,-35.96974963887248,-34.679495939640965,-57.9017018705835,-49.65645269510822,36.05999999999767
312279.0447,-36.086358802098715,-34.69184155458507,-58.091638011972734,-49.28347123547036,36.06100000004517
312279.0457,-35.15979649032641,-33.674448362094076,-56.749405316351144,-47.46176677393778,36.06200000003446
312279.0467,-33.22147040096296,-31.649784171388294,-53.92467311725835,-44.2335201454034,36.06300000002375
312279.0477,-30.3210503104198,-28.660692408677015,-49.69996964723754,-39.674032098488205,36.06400000001304
312279.0487,-26.52417122860265,-24.768630122516512,-44.18679647114446,-33.88860533097915,36.06500000000233
312279.0497,-21.91101629124977,-20.052469644472524,-37.52200129967588,-27.009605862400107,36.06599999999162
312279.0507,-16.575820669813726,-14.607883947194232,-29.864560490767225,-19.193817822716774,36.067000000039116
312279.0517,-10.627167579246418,-8.547198972400523,-21.392790820051186,-10.620075306663052,36.068000000028405
312279.0527,-4.188793898572013,-1.9994754674107869,-12.301886142368588,-1.4870344891516971,36.069000000017695
312279.0537,2.599496219066294,4.8895072587119,-2.801573325597803,7.989146141146673,36.070000000006985
312279.0547,9.581281892689146,11.957741470537416,6.886384468716799,17.5775075625585,36.070999999996275
312279.0557,16.58382512605213,19.028330287193704,16.53113222167544,27.035676710069634,36.07200000004377
312279.0567,23.419656245990033,25.912000292162293,25.896386830172474,36.11420441349327,36.07300000003306
312279.0577,29.889776050238357,32.411013693022475,34.745023576665176,44.56203930352606,36.07400000002235
312279.0587,35.788651229827764,38.32457007914503,42.84468236411997,52.13320115080871,36.07500000001164
312279.0597,40.91099140225401,43.45562639379836,49.97435759939761,58.59456915818054,36.07600000000093
312279.0607,45.06009237347144,47.61889306097621,55.93178990106413,63.73454122463738,36.07699999999022
312279.0617,48.057331588924804,50.64960183262905,60.541335724201126,67.37216638200971,36.07800000003772
312279.0627,49.752228817261646,52.41250421619196,63.661868792275335,69.36622190607126,36.07900000002701
312279.0637,50.03235670240679,52.810463760817136,65.19417957744169,69.6236148664332,36.0800000000163
312279.0647,48.832316881703946,51.79196298113567,65.08729751186017,68.1064476818083,36.08100000000559
312279.0657,46.140997505316264,49.35686346074418,63.343172294738416,64.83710650558098,36.08199999999488
312279.0667,42.0064004056157,45.55983727108403,60.01921753539952,59.90081227307844,36.083000000042375
312279.0677,36.53746721177715,40.51102491436954,55.228338500826375,53.445213241716786,36.084000000031665
312279.0687,29.90253311732577,34.373659552887815,49.13622713565098,45.676785221473594,36.085000000020955
312279.0697,22.324278758043263,27.358614499675056,41.95589854676233,36.85402669383285,36.086000000010245
312279.0707,14.071314377422672,19.71606248120184,33.93964730058903,27.277672108155635,36.086999999999534
312279.0717,5.446793293740464,11.724660860786848,25.36880097398059,17.278377168174792,36.087999999988824
312279.0727,-3.225309596982654,3.6788766809039872,16.541824255728528,7.202534051346701,36.08900000003632
312279.0737,-11.61542539873936,-4.124779179367772,7.76146310089787,-2.6029667568049653,36.09000000002561
312279.0747,-19.404166075731176,-11.401742780921978,-0.6782980688087612,-11.806113290342465,36.0910000000149
312279.0757,-26.297633313170103,-17.892718477523015,-8.504670766133833,-20.10434561065737,36.09200000000419
312279.0767,-32.04127459590663,-23.375479750185505,-15.477134762261876,-27.23743133768658,36.09299999999348
312279.0777,-36.43140553779043,-27.674410345534447,-21.396497391328406,-32.997867510634244,36.09400000004098
312279.0787,-39.32369383962263,-30.66721786825305,-26.111444050315107,-37.238214164739006,36.09500000003027
312279.0797,-40.63813198047826,-32.288468042564155,-29.522278131518167,-39.87499293052168,36.09600000001956
312279.0807,-40.3602927124798,-32.52982988144773,-31.581764285051015,-40.889039065288706,36.09700000000885
312279.0817,-38.53894033738161,-31.437168828587367,-32.29320692893564,-40.32245540184378,36.09799999999814
312279.0827,-35.28033730301128,-29.10485500204121,-31.706096815894945,-38.27255906729026,36.099000000045635
312279.0837,-30.739816844840647,-25.66784702118344,-29.9098244113337,-34.88341548965899,36.100000000034925
312279.0847,-25.111368611350212,-21.292252087926173,-27.026075421093758,-30.335701859288793,36.101000000024214
312279.0857,-18.616091107682625,-16.165138619271435,-23.200581422596894,-24.835721864661775,36.102000000013504
312279.0867,-11.490394617438636,-10.484383511496851,-18.59489332832315,-18.604399659979187,36.103000000002794
312279.0877,-3.9747905513197272,-4.449273374511133,-13.378779567610952,-11.867015083844057,36.103999999992084
312279.0887,3.6960152689722774,1.74754444490265,-7.723732465317685,-4.844312345136508,36.10500000003958
312279.0897,11.301183695969975,7.926336151220472,-1.7979083635520077,2.2545651488054266,36.10600000002887
312279.0907,18.63963065766811,13.924556854703948,4.237353740905954,9.23707180986358,36.10700000001816
312279.0917,25.533647429185546,19.599112951629024,10.229475250176169,15.930167263166512,36.10800000000745
312279.0927,31.83038289263255,24.826796532087332,16.03525337655526,22.181321298798643,36.10899999999674
312279.0937,37.40151553665717,29.503245494189166,21.520498545302477,27.85798015425092,36.11000000004424
312279.0947,42.14159402219635,33.5409055219841,26.559137310700077,32.84598581767901,36.11100000003353
312279.0957,45.96561606863215,36.86653541320809,31.032264195697316,37.047507800044414,36.11200000002282
312279.0967,48.806438908744866,39.41880036439625,34.82760831045494,40.379049130988065,36.11300000001211
312279.0977,50.61257026181368,41.14643999111678,37.83980792009713,42.770026535489954,36.1140000000014
312279.0987,51.346783183509274,42.00738644680377,39.97176612994906,44.16230663034388,36.11499999999069
312279.0997,50.98584389687021,41.96905568572439,41.137206086688245,44.51091894190574,36.116000000038184
312279.1007,49.52145622338966,41.00985838601509,41.264370646534005,43.78598025044762,36.117000000027474
312279.1017,46.96232998167141,39.12179533346883,40.30063744708961,41.975673375328256,36.118000000016764
312279.1027,43.33709514959479,36.313834637885776,38.21766415102104,39.08994770319083,36.119000000006054
312279.1037,38.69762899041443,32.61563300965592,35.01655725945367,35.164467673624195,36.11999999999534
312279.1047,33.12225685505952,28.081075217153316,30.732485155786545,30.264244792412963,36.12100000004284
312279.1057,26.718241250681288,22.791074821509664,25.43814125909847,24.486359259079084,36.12200000003213
312279.1067,19.622994153882576,16.855109672650954,19.245510150531008,17.961213584518905,36.12300000002142
312279.1077,12.003533822376028,10.411055594379631,12.305496083746391,10.85186062039478,36.12400000001071
312279.1087,4.053852128866452,3.623023278920304,4.805131250316259,3.3511037005799404,36.125
312279.1097,-4.0099517933592015,-3.3229165885782246,-3.0377229197429396,-4.323737166614735,36.12599999998929
312279.1107,-11.956699379586619,-10.225033873770732,-10.982051885624314,-11.938280603925781,36.12700000003679
312279.1117,-19.5490280548462,-16.873976686879907,-18.773395546291795,-19.250428734258993,36.12800000002608
312279.1127,-26.553655847405732,-23.06207419707005,-26.155045293323926,-26.021071069588405,36.12900000001537
312279.1137,-32.75235058921949,-28.593286663421118,-32.88003266051407,-32.02545935244101,36.13000000000466
312279.1147,-37.952828988610165,-33.29309188018645,-38.72311165931302,-37.06446539316427,36.130999999993946
312279.1157,-41.998769422406845,-37.01756768505759,-43.49190391962291,-40.97490286981683,36.132000000041444
312279.1167,-44.77815554586831,-39.66096828243324,-47.03641467219902,-43.63813641765396,36.133000000030734
312279.1177,-46.22927450587427,-41.161195607980794,-49.256236433402755,-44.98631465044886,36.13400000002002
312279.1187,-46.34386514560374,-41.50272707809894,-50.1049272267362,-45.005738596713734,36.13500000000931
312279.1197,-45.16713305363146,-40.71676343854272,-49.5912664970978,-43.737097876797684,36.1359999999986
312279.1207,-42.79460045384771,-38.878586362157904,-47.77733506668251,-41.272553648877754,36.1370000000461
312279.1217,-39.36601638352907,-36.102343770560985,-44.773613266344,-37.74989710250415,36.13800000003539
312279.1227,-35.05679209590052,-32.53368998638335,-40.731520860904524,-33.344241836051886,36.13900000002468
312279.1237,-30.067625393049344,-28.3408779153839,-35.83401235231745,-28.257896443445777,36.14000000001397
312279.1247,-24.613116683996807,-23.705015389115985,-30.284974286866124,-22.709192670741395,36.14100000000326
312279.1257,-18.910245730764053,-18.810246799038765,-24.298235493789583,-16.92110292590237,36.14199999999255
312279.1267,-13.167565135355526,-13.83459990524842,-18.086991718876384,-11.110463971563087,36.14300000004005
312279.1277,-7.5758762143285825,-8.942148800301096,-11.854365168289014,-5.478533910421525,36.14400000002934
312279.1287,-2.30099419925722,-4.276996713998219,-5.78567638227316,-0.2034568059584197,36.14500000001863
312279.1297,2.5210014032901658,0.04060832484057366,-0.04281602227866709,4.564990685795664,36.146000000007916
312279.1307,6.785877931183196,3.915926733303892,5.239112568587834,8.708223096925577,36.146999999997206
312279.1317,10.420818609761286,7.279268607456774,9.952930569860827,12.139323573635126,36.1480000000447
312279.1327,13.381778484276879,10.083740184216687,14.018555011734005,14.801470040034944,36.14900000003399
312279.1337,15.649148731058885,12.301672148432125,17.380624842617305,16.664777329759332,36.15000000002328
312279.1347,17.222384832257493,13.920311424203131,20.00511535678652,17.722138442365104,36.15100000001257
312279.1357,18.114317068546914,14.93739881129009,21.875524515857997,17.98469724067341,36.15200000000186
312279.1367,18.34584848573265,15.357227912035587,22.98919843808526,17.477563706107546,36.15299999999115
312279.1377,17.941658422216708,15.18768983150022,23.354284763026968,16.236295007877604,36.15400000003865
312279.1387,16.927378783295772,14.438663253655193,22.98767201086371,14.304521682842996,36.15500000002794
312279.1397,15.328511856089529,13.121926328241484,21.91410597876131,11.73291449058655,36.15600000001723
312279.1407,13.171133651579458,11.252564886645587,20.166489758619726,8.579484407885163,36.15700000000652
312279.1417,10.484199225532047,8.851652322126299,17.787192804526246,4.911008163054903,36.15799999999581
312279.1427,7.303060098152408,5.94980128358703,14.830036761529442,0.805196810255767,36.15900000004331
312279.1437,3.6736405507658834,2.591055052983592,11.362509040095722,-3.6469052970340123,36.160000000032596
312279.1447,-0.34338330076667894,-1.1634882458158058,7.467692575525818,-8.33887409943743,36.161000000021886
312279.1457,-4.6690887672272945,-5.232933729128303,3.2453993482055217,-13.147796523112039,36.162000000011176
312279.1467,-9.204138265214377,-9.515284862701561,-1.1879429112994901,-17.93461374902533,36.163000000000466
312279.1477,-13.828461955483874,-13.888006062577158,-5.7009824292525995,-22.5462983854677,36.163999999989755
312279.1487,-18.40313675636474,-18.21070644115137,-10.150880671702529,-26.8200600423126,36.16500000003725
312279.1497,-22.774583756971147,-22.329985871620252,-14.388469125606,-30.589552504094115,36.16600000002654
312279.1507,-26.780960440576692,-26.086257179044534,-18.2648974262725,-33.69282214343398,36.16700000001583
312279.1517,-30.26038091539565,-29.322138704398526,-21.639355086713078,-35.98151547584587,36.16800000000512
312279.1527,-33.06038132238432,-31.891822095716154,-24.387292473636506,-37.33067735719196,36.16899999999441
312279.1537,-35.04788122870266,-33.6706807849427,-26.40846063782269,-37.648340874388495,36.17000000004191
312279.1547,-36.11879303980343,-34.5643105043928,-27.634047003276326,-36.88405105149404,36.1710000000312
312279.1557,-36.20641180063792,-34.51619357462638,-28.032211511331823,-35.03548597893395,36.17200000002049
312279.1567,-35.28778113441692,-33.51325566106614,-27.611425497881438,-32.152442079762935,36.17300000000978
312279.1577,-33.387373346665676,-31.588731970874623,-26.42117629170605,-28.3376282188481,36.17399999999907
312279.1587,-30.57763102661714,-28.82196720653303,-24.549810832672595,-23.743952086340638,36.175000000046566
312279.1597,-26.976175286323276,-25.3350219194638,-22.119532945721474,-18.56826143023623,36.176000000035856
312279.1607,-22.739768671768314,-21.28622496032322,-19.27881926724284,-13.041797658788118,36.177000000025146
312279.1617,-18.05540267102663,-16.861073174534383,-16.192754830574465,-7.417903457392283,36.178000000014435
312279.1627,-13.129134360414453,-12.261111243172929,-13.031988433383178,-1.957773228447426,36.179000000003725
312279.1637,-8.173500120950361,-7.691605034084609,-9.961150561786027,3.0847778222242326,36.179999999993015
312279.1647,-3.394467179283757,-3.3489339809371326,-7.127648126289168,7.478441306724484,36.18100000004051
312279.1657,1.021066915546915,0.5913389957166371,-4.651742185760471,11.028335885100773,36.1820000000298
312279.1667,4.9162560843699685,3.9848112956260935,-2.6187260234354675,13.587689134190253,36.18300000001909
312279.1677,8.172922980933736,6.726218049141837,-1.0738576694471655,15.06641068749405,36.18400000000838
312279.1687,10.717165663147883,8.754459228201517,-0.020476515605779837,15.435921321979638,36.18499999999767
312279.1697,12.521564187878711,10.054338970925148,0.5785327841122034,14.729892333253698,36.18600000004517
312279.1707,13.603887861795906,10.654954192257213,0.7960509872919045,13.040868982986872,36.18700000003446
312279.1717,14.022501376384207,10.624947621272852,0.7332094923017135,10.51307338893877,36.18800000002375
312279.1727,13.868945766045245,10.065097044348086,0.509695966005553,7.331978047171487,36.18900000001304
312279.1737,13.258402821466534,9.098924821759121,0.25271705797744476,3.7114855902804593,36.19000000000233
312279.1747,12.318918237596593,7.862160918601265,0.08557270325397937,-0.12027761337390669,36.19099999999162
312279.1757,11.180344539904285,6.491965891918336,0.1168297960411596,-3.9354612681586434,36.192000000039116
312279.1767,9.96396247701457,5.116811750292876,0.4310279582178648,-7.520199870632046,36.193000000028405
312279.1777,8.773650142195063,3.8478302195975624,1.0817110936697198,-10.68654555778563,36.194000000017695
312279.1787,7.689301821782802,2.7722789962953995,2.087367642385574,-13.281821257650655,36.195000000006985
312279.1797,6.762969984189406,1.9495628356521175,3.4305989510966866,-15.194835007333392,36.195999999996275
312279.1807,6.017936125654618,1.4099985572754927,5.060543032261155,-16.358681618300857,36.19700000004377
312279.1817,5.450635124180937,1.1562549584920807,6.898287053105444,-16.750157293312068,36.19800000003306
312279.1827,5.035090116209019,1.1671545806599308,8.844733287582024,-16.38609893671805,36.19900000002235
312279.1837,4.7292859626056085,1.4033169835451318,10.790164745106411,-15.31720705367222,36.20000000001164
312279.1847,4.4827404150463765,1.8139715360908908,12.624608334264884,-13.620097709814651,36.20100000000093
312279.1857,4.244438450978834,2.3441850236031194,14.24802870516684,-11.388439516128111,36.20199999999022
312279.1867,3.9702848184241835,2.9417420875484313,15.579410462547152,-8.724057982444565,36.20300000003772
312279.1877,3.629302402950699,3.562983782149516,16.563897515025698,-5.728831942549807,36.20400000002701
312279.1887,3.2079513461363773,4.177043286706709,17.177345120305123,-2.4980731802950493,36.2050000000163
312279.1897,2.7121504867155686,4.768103657034947,17.42788488971599,0.8841139456958388,36.20600000000559
312279.1907,2.166827626931381,5.335521171252631,17.354382524836744,4.347230483603873,36.20699999999488
312279.1917,1.6130837872320338,5.891887124001559,17.021956188124364,7.834526442678209,36.208000000042375
312279.1927,1.1033033376224632,6.459317908856811,16.514993382009163,11.301119066447535,36.209000000031665
312279.1937,0.6947524288342296,7.0644464753762355,15.928331193992978,14.71052326483732,36.210000000020955
312279.1947,0.4423620092690852,7.7327199327535405,15.357428203465934,18.03018707940644,36.211000000010245
312279.1957,0.3914741767962846,8.482675697736099,14.88844186713509,21.22671329049727,36.211999999999534
312279.1967,0.5713341091544801,9.320866157475422,14.589125909713694,24.26146192797748,36.212999999988824
312279.1977,0.9900346243344659,10.238030380986853,14.501379287276759,27.0871677176323,36.21400000003632
312279.1987,1.6314745868556202,11.206978872426422,14.63612061742475,29.64607902947613,36.21500000002561
312279.1997,2.454690849758699,12.18247763432751,14.97094537463377,31.86994491598839,36.2160000000149
312279.2007,3.3956865356676964,13.103209389732777,15.45076863937496,33.68196362827313,36.21700000000419
312279.2017,4.371629871449435,13.895673880033508,15.991387899784993,35.000581941744365,36.21799999999348
312279.2027,5.287062124760643,14.479687453598514,16.485643246755945,35.74482288018543,36.21900000004098
312279.2037,6.0415536047038785,14.774974832308981,16.81162959780506,35.840641654091606,36.22000000003027
312279.2047,6.538102607208804,14.708229551655533,16.842246899342125,35.2276838308147,36.22100000001956
312279.2057,6.691497423484016,14.2199654910515,16.45527365182703,33.86575853434322,36.22200000000885
312279.2067,6.435862985681688,13.270495255094707,15.54312394278508,31.740348840063035,36.22299999999814
312279.2077,5.730690764174561,11.84445032701245,14.021498600564565,28.866560365180167,36.224000000045635
312279.2087,4.5647951160150795,9.953394779710429,11.836260184487177,25.29104928511174,36.225000000034925
312279.2097,2.9578368173041056,7.636265125285826,8.968036170392452,21.09165845653191,36.226000000024214
312279.2107,0.9592853200612009,4.957575571637753,5.434266921645528,16.37470617008627,36.227000000013504
312279.2117,-1.355067428597432,2.003540030163755,1.2886439105439644,11.270094696424385,36.228000000002794
312279.2127,-3.8887006242802356,-1.1235412575619914,-3.381892692235838,5.924613020543861,36.228999999992084
312279.2137,-6.531531909390845,-4.3121209418352535,-8.462230191336701,0.493979362652054,36.23000000003958
312279.2147,-9.167985620781517,-7.448849076381358,-13.815712130676921,-4.865712729478921,36.23100000002887
312279.2157,-11.685217313989634,-10.425952669940298,-19.2917004254483,-10.006427436408918,36.23200000001816
312279.2167,-13.980751351436995,-13.14789624829341,-24.73341680003626,-14.795797990277133,36.23300000000745
312279.2177,-15.968862308591776,-15.53674953402556,-29.985438413155617,-19.123299891206027,36.23399999999674
312279.2187,-17.58516936909515,-17.535824054845687,-34.90030957222841,-22.90451365515592,36.23500000004424
312279.2197,-18.7891013409435,-19.111317895104342,-39.343865262415,-26.083193690792218,36.23600000003353
312279.2207,-19.564109136814643,-20.251908916858874,-43.19902724310585,-28.631074747760305,36.23700000002282
312279.2217,-19.915730277428842,-20.966441279229297,-46.36801142372909,-30.545566455982442,36.23800000001211
312279.2227,-19.86782322634856,-21.280037369181855,-48.77305706470258,-31.84568771534312,36.2390000000014
312279.2237,-19.457466743458923,-21.22911848651474,-50.35593615708997,-32.56675583383044,36.23999999999069
312279.2247,-18.729143249027246,-20.855917624206647,-51.0766101689395,-32.75445394028829,36.241000000038184
312279.2257,-17.728883183279827,-20.203106461704355,-50.911460694867394,-32.458943426423865,36.242000000027474
312279.2267,-16.499033978257074,-19.309132448707327,-49.851525348241346,-31.72966174992944,36.243000000016764
312279.2277,-15.07423422427123,-18.20477339605607,-47.9011213425781,-30.611352694607714,36.244000000006054
312279.2287,-13.479029686945038,-16.91127542956945,-45.077143236011494,-29.141725801633584,36.24499999999534
312279.2297,-11.727377992988467,-15.440260049905671,-41.40918991063295,-27.35094970412346,36.24600000004284
312279.2307,-9.824072742187056,-13.795385903923966,-36.940524472854115,-25.26297038850216,36.24700000003213
312279.2317,-7.767897939682365,-11.975551362671208,-31.729717006948462,-22.898432175033378,36.24800000002142
312279.2327,-5.556122867544255,-9.979245816177576,-25.852681928763484,-20.278788746102002,36.24900000001071
312279.2337,-3.189786870190248,-7.809519384141275,-19.40471544522949,-17.43104396208653,36.25
312279.2347,-0.679120063299404,-5.47895720158114,-12.502077410982123,-14.39247335701162,36.25099999998929
312279.2357,1.9515890049393652,-3.014024803230958,-5.282654080166419,-11.214657084191526,36.25200000003679
312279.2367,4.660329823682325,-0.45819820312547077,2.0947133364690504,-7.966206738467713,36.25300000002608
312279.2377,7.385453860318917,2.126597899191269,9.45254795451474,-4.7336876860673245,36.25400000001537
312279.2387,10.045881849737556,4.660558087270596,16.598872374453205,-1.620414157111071,36.25500000000466
312279.2397,12.54359939204265,7.048685676677046,23.333151693682172,1.2569905459202095,36.255999999993946
312279.2407,14.768372222540632,9.185502747453933,29.45384707144784,3.774142893967462,36.257000000041444
312279.2417,16.604379460125852,10.96146785928501,34.767199085272296,5.806202513183507,36.258000000030734
312279.2427,17.938253970094856,12.270601906854434,39.096701435263256,7.236374635546974,36.25900000002002
312279.2437,18.667854858298686,13.018680124637838,42.29260864234284,7.964903417191949,36.26000000000931
312279.2447,18.71099493102017,13.131264637765838,44.24075956495558,7.917759389377799,36.2609999999986
312279.2457,18.01331665488679,12.560836196246983,44.87000010716159,7.054209894682594,36.2620000000461
312279.2467,16.554557666555805,11.292338336114028,44.15755577333294,5.372523947018848,36.26300000003539
312279.2477,14.35256774673247,9.346567944540233,42.13183387077751,2.913198068632216,36.26400000002468
312279.2487,11.464622851511708,6.781022482373099,38.872316342765764,-0.2407141154081773,36.26500000001397
312279.2497,7.985811686164003,3.6880300156742853,34.50642248668031,-3.966345708274915,36.26600000000326
312279.2507,4.044525327288954,0.19022398017183922,29.203457449143254,-8.106748716964972,36.26699999999255
312279.2517,-0.20466302358776525,-3.5663414602619294,23.165996583142068,-12.479268851135453,36.26800000004005
312279.2527,-4.590206772748155,-7.420929128031303,16.61926651923809,-16.885982112848147,36.26900000002934
312279.2537,-8.934171604058113,-11.208035805279456,9.799251930792508,-21.125424503325135,36.27000000001863
312279.2547,-13.063358326074919,-14.767705763990683,2.940366811956277,-25.00472315961645,36.271000000007916
312279.2557,-16.820069012162957,-17.955418081722414,-3.7364299714230333,-28.35119079626602,36.271999999997206
312279.2567,-20.071647815062367,-20.65075763321905,-10.034227597558937,-31.022480303684816,36.2730000000447
312279.2577,-22.718030482911697,-22.76418227534894,-15.788721358863816,-32.914510212998955,36.27400000003399
312279.2587,-24.696707493509024,-24.24136215983102,-20.874159565790194,-33.96655478029963,36.27500000002328
312279.2597,-25.984729447238095,-25.064776579567017,-25.206318892008476,-34.16312867409965,36.27600000001257
312279.2607,-26.597639660870172,-25.25249034877045,-28.7423940581242,-33.53256480910852,36.27700000000186
312279.2617,-26.585484559229865,-24.854274055987528,-31.477943003702745,-32.14246092409604,36.27799999999115
312279.2627,-26.02630342384006,-23.945458759276793,-33.441270602683105,-30.092431412621604,36.27900000003865
312279.2637,-25.017712683571222,-22.61910549988286,-34.685841316150366,-27.50482248799295,36.28000000002794
312279.2647,-23.66735706883788,-20.977206486003567,-35.28146573311673,-24.514211370978646,36.28100000001723
312279.2657,-22.08308669232966,-19.121705982875326,-35.30509415756304,-21.256599567571534,36.28200000000652
312279.2667,-20.363728067326505,-17.146128906589386,-34.83206456756995,-17.85921885328978,36.28299999999581
312279.2677,-18.591247983740214,-15.128534458599159,-33.92859128175946,-14.431796036900902,36.28400000004331
312279.2687,-16.824968914283428,-13.126377890081004,-32.646150080427795,-11.059976008792413,36.285000000032596
312279.2697,-15.09829654398193,-11.17367842152733,-31.018227095263917,-7.801395706941817,36.286000000021886
312279.2707,-13.418182604735556,-9.280672756891668,-29.05966941093369,-4.684653542420829,36.287000000011176
312279.2717,-11.76729139830979,-7.435901726060877,-26.768625596108617,-1.7111522080249113,36.288000000000466
312279.2727,-10.108589577153449,-5.610453617506653,-24.130816752980056,1.140468126625771,36.288999999989755
312279.2737,-8.391858589740163,-3.763892093501752,-21.12565549422003,3.907820887025626,36.29000000003725
312279.2747,-6.561457597690901,-1.8512468587420774,-17.73355179929342,6.636884697344607,36.29100000002654
312279.2757,-4.564556999001272,0.1696451820505838,-13.943627350173436,9.373547212434572,36.29200000001583
312279.2767,-2.359028378814923,2.3311838510784604,-9.761014690406547,12.155432092613152,36.29300000000512
312279.2777,0.07978158595947105,4.650124818862952,-5.212948943596194,15.004820000792828,36.29399999999441
312279.2787,2.7540523707474085,7.123354475872509,-0.35296549227389123,17.923359447376367,36.29500000004191
312279.2797,5.640751016752356,9.725738038289421,4.737312222040573,20.889084351817232,36.2960000000312
312279.2807,8.69142048933377,12.410257268666845,9.949089996064842,23.85602931596171,36.29700000002049
312279.2817,11.834519957904789,15.11043402845627,15.150069971275045,26.756482106849614,36.29800000000978
312279.2827,14.9800993792934,17.744817354629436,20.190654807709397,29.505659361694345,36.29899999999907
312279.2837,18.026370164268062,20.22311537367615,24.912235593780142,32.00835983875969,36.300000000046566
312279.2847,20.86755578321158,22.45339753439919,29.15690890918271,34.16696135215631,36.301000000035856
312279.2857,23.402287559781183,24.34969192473836,32.777825544017055,35.89000043253519,36.302000000025146
312279.2867,25.5417626221321,25.83926619279402,35.649302480920845,37.10051954173436,36.303000000014435
312279.2877,27.21690735376847,26.868912058395455,37.67583785497896,37.74339019780115,36.304000000003725
312279.2887,28.38388790942634,27.40964937004281,38.799255262168735,37.79091907700004,36.304999999993015
312279.2897,29.027469746780493,27.459416750229533,39.003361060420005,37.246208289359046,36.30600000004051
312279.2907,29.161934996244916,27.043507393706758,38.315711503082305,36.14395452797583,36.3070000000298
312279.2917,28.829499677109443,26.212721941997813,36.8063356015181,34.548613879135516,36.30800000001909
312279.2927,28.09640955050586,25.039424840887165,34.583521059025074,32.55010623549825,36.30900000000838
312279.2937,27.0471107358218,23.611885390931068,31.787019883265764,30.257461546127285,36.30999999999767
312279.2947,25.777068017343456,22.027440982341744,28.579244137567375,27.79099757933704,36.31100000004517
312279.2957,24.384922993938403,20.3851227618723,25.13518113490281,25.273747606761056,36.31200000003446
312279.2967,22.964734592378495,18.778423546728114,21.631847160936022,22.822914471064355,36.31300000002375
312279.2977,21.599021569748853,17.28886081866586,18.2381123613386,20.542109968138533,36.31400000001304
312279.2987,20.353233375280137,15.980897367906278,15.105667065144383,18.51504796210031,36.31500000000233
312279.2997,19.272122023250116,14.898638156620278,12.361769203935582,16.801205961763827,36.31599999999162
312279.3007,18.3782893131169,14.06453907133192,10.104227743126463,15.433768984804484,36.317000000039116
312279.3017,17.67296103514684,13.480160039735177,8.398857219708873,14.41994189463142,36.318000000028405
312279.3027,17.138815229299475,13.128791987715989,7.279405595673684,13.743484911314278,36.319000000017695
312279.3037,16.744487658374176,12.97960460840312,6.74973444464553,13.369114683110125,36.320000000006985
312279.3047,16.450214721733477,12.992817991259813,6.787838249678751,13.248240993450498,36.320999999996275
312279.3057,16.213968138847438,13.125309890123114,7.351146022657111,13.325393477578382,36.32200000004377
312279.3067,15.997397117849971,13.336040480994294,8.382466090407291,13.544644407612687,36.32300000003306
312279.3077,15.770925829889077,13.59071033929656,9.81591995370938,13.855356601746395,36.32400000002235
312279.3087,15.517453155215492,13.865161089109678,11.58226304280748,14.216676574591322,36.32500000001164
312279.3097,15.234257452538483,14.147171780901264,13.613101774722182,14.600342130601211,36.32600000000093
312279.3107,14.93290547047266,14.436482598693821,15.843674556335026,14.991564925973917,36.32699999999022
312279.3117,14.637181364752125,14.743072572942792,18.21405180938391,15.387962164680948,36.32800000003772
312279.3127,14.379266966394766,15.083909550858953,20.668806579883984,15.796725499750528,36.32900000002701
312279.3137,14.194595992870099,15.478559102937337,23.155392051993584,16.23040740982723,36.3300000000163
312279.3147,14.115953194095486,15.94416702068097,25.621615977448414,16.7018561181811,36.33100000000559
312279.3157,14.167479183467115,16.490404362670507,28.012708708254305,17.218924068797367,36.33199999999488
312279.3167,14.35926348317122,17.11497682252676,30.26853022943267,17.779602422685535,36.333000000042375
312279.3177,14.68315949556097,17.800249922604138,32.32144747709769,18.368192114817024,36.334000000031665
312279.3187,15.110340193604149,18.511432977352353,34.095338028727035,18.95301492750533,36.335000000020955
312279.3197,15.59094349424851,19.19660865863898,35.50604810211902,19.486006675779706,36.336000000010245
312279.3207,16.05594833533986,19.78870695948943,36.463465388737326,19.90433544700388,36.336999999999534
312279.3217,16.421197159764933,20.209321355802672,36.87517840375476,20.133971316333344,36.337999999988824
312279.3227,16.593260434459662,20.374071404813336,36.651503872892384,20.0949223764741,36.33900000003632
312279.3237,16.47664621534563,20.199049666258297,35.71149250696062,19.707667191421695,36.34000000002561
312279.3247,15.98171219333064,19.607768825768513,33.989389741667644,18.900175197968306,36.3410000000149
312279.3257,15.032554082176818,18.537959993796022,31.440946229862334,17.61482881283121,36.34200000000419
312279.3267,13.57413145512971,16.94757240333951,28.048952327804674,15.814552601596201,36.34299999999348
312279.3277,11.577951974896312,14.819388754242068,23.827414494055233,13.487517338622201,36.34400000004098
312279.3287,9.045761916895604,12.16379334269353,18.82389579929984,10.64991442413655,36.34500000003027
312279.3297,6.010872769402173,9.019400008341904,13.119697770747964,7.346476542990662,36.34600000001956
312279.3307,2.536972804709164,5.451447183598489,6.827751465800785,3.648635822357771,36.34700000000885
312279.3317,-1.2854926058519978,1.548078173238474,0.08829317034609606,-0.34956041151709216,36.34799999999814
312279.3327,-5.34506059662754,-2.585174686056234,-6.937396181221523,-4.537436844484208,36.349000000045635
312279.3337,-9.516601157563636,-6.832213100003461,-14.074729215569826,-8.795053250767351,36.350000000034925
312279.3347,-13.669620443851295,-11.073891292378793,-21.144431918313533,-13.001279403757875,36.351000000024214
312279.3357,-17.67677451804813,-15.19555472370492,-27.971367580143244,-17.041845663358973,36.352000000013504
312279.3367,-21.421838435922112,-19.093926590258512,-34.392870295288844,-20.816633347218627,36.353000000002794
312279.3377,-24.806436343852006,-22.682738166789026,-40.26594232076003,-24.245541981242564,36.353999999992084
312279.3387,-27.75496616915503,-25.89662662886997,-45.47277976164118,-27.272409241730998,36.35500000003958
312279.3397,-30.2173347016793,-28.692997896279667,-49.924251505700205,-29.866650211878095,36.35600000002887
312279.3407,-32.169337120556726,-31.051754899314787,-53.5611511016685,-32.02250656168081,36.35700000001816
312279.3417,-33.61074746667435,-32.973003183585476,-56.35325095412748,-33.75603112256634,36.35800000000745
312279.3427,-34.56140996231366,-34.47304475082622,-58.296391935916354,-35.100155630254164,36.35899999999674
312279.3437,-35.05581314506988,-35.57913755083948,-59.408019095803624,-36.098376942957735,36.36000000004424
312279.3447,-35.13677041522593,-36.32361542382389,-59.72170806135735,-36.79773106471334,36.36100000003353
312279.3457,-34.84890780933999,-36.73801982071832,-59.28130395992903,-37.24179142485109,36.36200000002282
312279.3467,-34.23266514164772,-36.847884708849804,-58.13530792460928,-37.4644213862554,36.36300000001211
312279.3477,-33.31944989589778,-36.6687407993502,-56.332094720252904,-37.4849315330032,36.3640000000014
312279.3487,-32.12845147212283,-36.2037722859895,-53.91643446349398,-37.30514785149022,36.36499999999069
312279.3497,-30.665440209175614,-35.443382134834536,-50.927633507037775,-36.9087018612334,36.366000000038184
312279.3507,-28.923659786740927,-34.36671852116168,-47.39942074032462,-36.26262747732047,36.367000000027474
312279.3517,-26.88669518789037,-32.94500582114285,-43.36150532298419,-35.321114370358096,36.368000000016764
312279.3527,-24.532984434315587,-31.14632975312627,-38.84254080912634,-34.03104713827414,36.369000000006054
312279.3537,-21.841462561125592,-28.941367412178934,-33.87406836122698,-32.33877554860775,36.36999999999534
312279.3547,-18.797699074286967,-26.309445148080986,-28.494894978594576,-30.1974316560666,36.37100000004284
312279.3557,-15.399828430236271,-23.244261509387353,-22.755303468252077,-27.574047548146844,36.37200000003213
312279.3567,-11.663583304922742,-19.75863364770243,-16.72049556525858,-24.45573897618776,36.37300000002142
312279.3577,-7.625821777454722,-15.88771183586025,-10.472738054945019,-20.8543041209622,36.37400000001071
312279.3587,-3.3460841271816073,-11.69024983818234,-4.111807456360616,-16.808735061274408,36.375
312279.3597,1.0940914889185267,-7.24770489588219,2.246500463439178,-12.385337739144251,36.37599999998929
312279.3607,5.594141750485199,-2.661151931212694,8.4738311695665,-7.675385095260804,36.37700000003679
312279.3617,10.039555278981311,1.9537883453348486,14.434529275735395,-2.790465396573904,36.37800000002608
312279.3627,14.308653932504626,6.473609428614699,19.992326174835696,2.144089366796529,36.37900000001537
312279.3637,18.280498403332135,10.774606972570137,25.017926373056692,6.997123291821027,36.38000000000466
312279.3647,21.84321297778483,14.740924502507344,29.396846788983403,11.640220029037383,36.380999999993946
312279.3657,24.901966155060958,18.272239618491525,33.03680917771889,15.956139340756145,36.382000000041444
312279.3667,27.385858933789464,21.290394228245848,35.873998605899644,19.846363368579013,36.383000000030734
312279.3677,29.25306008215004,23.74435941654617,37.87758030675676,23.237068992291757,36.38400000002002
312279.3687,30.493679750297414,25.613070962475636,39.05200656998347,26.082987483567198,36.38500000000931
312279.3697,31.13007527251577,26.905861771819577,39.436831988908736,28.368808830871323,36.3859999999986
312279.3707,31.214516958457494,27.66043483827061,39.103972150048065,30.10801706085803,36.3870000000461
312279.3717,30.8243850145348,27.938544424384517,38.152567451346954,31.339282922616146,36.38800000003539
312279.3727,30.055298399996254,27.81976292350764,36.701828864436784,32.12076869340753,36.38900000002468
312279.3737,29.01277053958243,27.39388659528495,34.882425803256815,32.52289495944748,36.39000000001397
312279.3747,27.803126805163785,26.752658497827266,32.82711047256295,32.62026251597819,36.39100000000326
312279.3757,26.52449103002438,25.981549645958065,30.661345409118162,32.483500409786686,36.39199999999255
312279.3767,25.25864589220672,25.152333747954895,28.494704486515932,32.17181620554646,36.39300000004005
312279.3777,24.064494732526516,24.317117290328156,26.41375199092543,31.726956300335612,36.39400000002934
312279.3787,22.973707294527753,23.504352128495576,24.47697553490238,31.16914901746422,36.39500000001863
312279.3797,21.988932471529118,22.717174730728406,22.712168489194255,30.495414126450907,36.396000000007916
312279.3807,21.084726077879974,21.934201999362422,21.11644293487694,29.680397350795367,36.396999999997206
312279.3817,20.211092986382535,21.11268826394415,19.658824659352575,28.67964875381268,36.3980000000447
312279.3827,19.29930404834084,20.193732717252033,18.28515848478378,27.435032418664267,36.39900000003399
312279.3837,18.269441461554027,19.109041349308185,16.924855548936492,25.88175352175532,36.40000000002328
312279.3847,17.03897102515602,17.788609503189427,15.498861761598148,23.95633676035816,36.40100000001257
312279.3857,15.531550446804431,16.168613146853897,13.928131987638737,21.604801388271834,36.40200000000186
312279.3867,13.685267678106712,14.198785692208332,12.141865533408042,18.790260954695036,36.40299999999115
312279.3877,11.459563210905687,11.848613172012952,10.08479702155937,15.49923144421678,36.40400000003865
312279.3887,8.84021927317694,9.11179787439194,7.722938203021669,11.746054093063785,36.40500000002794
312279.3897,5.841984260233145,6.008607393225488,5.047320303911988,7.5750165090695605,36.40600000001723
312279.3907,2.508624535411544,2.5859260943633178,2.0754779496198914,3.0599704512797445,36.40700000000652
312279.3917,-1.0895636389054366,-1.0849601981924646,-1.1493739840275357,-1.6985241485756697,36.40799999999581
312279.3927,-4.8605148873979855,-4.9126084770533005,-4.561310151363809,-6.578273915378678,36.40900000004331
312279.3937,-8.696955230084852,-8.791273417192533,-8.076462521447013,-11.442292406009225,36.410000000032596
312279.3947,-12.48413142565645,-12.607817258899665,-11.599087657525178,-16.146800901258526,36.411000000021886
312279.3957,-16.10798293171845,-16.249037737854426,-15.028336852121697,-20.54969218001842,36.412000000011176
312279.3967,-19.463005911119694,-19.608758356658278,-18.26509431461627,-24.518735470071285,36.413000000000466
312279.3977,-22.459106772244382,-22.594069842211113,-21.218272639180515,-27.938845382784027,36.413999999989755
312279.3987,-25.02685755023372,-25.13021386725664,-23.810037085735534,-30.71784557945582,36.41500000003725
312279.3997,-27.12073487971336,-27.16374882395775,-25.979561162198113,-32.79031735492188,36.41600000002654
312279.4007,-28.720130993209818,-28.66381697906251,-27.68508129023704,-34.119317502437355,36.41700000001583
312279.4017,-29.8281482178729,-29.621524236597203,-28.90420044389676,-34.695958786246,36.41800000000512
312279.4027,-30.46840553579014,-30.047628541861013,-29.632570626094633,-34.53704896873818,36.41899999999441
312279.4037,-30.680275420064145,-29.968892219748426,-29.881243458551523,-33.681160451833385,36.42000000004191
312279.4047,-30.51311278921749,-29.42357161120708,-29.67310095774828,-32.18363500670094,36.4210000000312
312279.4057,-30.02012172735505,-28.456582979120547,-29.03885271796688,-30.111104269340842,36.42200000002049
312279.4067,-29.252521904810866,-27.114890990825653,-28.013104416257374,-27.5361200581665,36.42300000000978
312279.4077,-28.254624572131796,-25.44361535718641,-26.630964892191695,-24.53243902977828,36.42399999999907
312279.4087,-27.060313674231523,-23.48324858689818,-24.925570105350506,-21.171400116842662,36.425000000046566
312279.4097,-25.691263404696397,-21.2682347734887,-22.926772514514848,-17.5196827587123,36.426000000035856
312279.4107,-24.157026763978497,-18.826991458817254,-20.661088621307677,-13.638555818701168,36.427000000025146
312279.4117,-22.4569210045767,-16.18328200478337,-18.15283306115022,-9.584540732814968,36.428000000014435
312279.4127,-20.583436980292177,-13.358683294212362,-15.426213052310857,-5.4112380666494175,36.429000000003725
312279.4137,-18.52673102656931,-10.37576043137294,-12.508029496691607,-1.1719231598991762,36.429999999993015
312279.4147,-16.279637568732834,-7.261470802708127,-9.43054492379693,3.077580472539019,36.43100000004051
312279.4157,-13.842580715636242,-4.050284204348332,-6.234043709996715,7.276281113021085,36.4320000000298
312279.4167,-11.2277699533195,-0.786527969607642,-2.9686310192650485,11.356161194199997,36.43300000001909
312279.4177,-8.462138144458091,2.474455688073809,0.30510786419106684,15.241508809857766,36.43400000000838
312279.4187,-5.588611987031736,5.6666262835090695,3.5168441384873463,18.849731016604206,36.43499999999767
312279.4197,-2.66548243828959,8.715159692401045,6.588738131704263,22.093769270641054,36.43600000004517
312279.4207,0.23615280142482417,11.539904026388559,9.439094091487165,24.886044883786294,36.43700000003446
312279.4217,3.0366918787572823,14.06013923902254,11.987189991065799,27.143670118271363,36.43800000002375
312279.4227,5.653698438914321,16.2002414864979,14.158881622823216,28.794489160020326,36.43900000001304
312279.4237,8.008401163744956,17.89572850382906,15.892463371577014,29.783381607163506,36.44000000000233
312279.4247,10.032379686200937,19.099088130853893,17.144201485873747,30.078184421068514,36.44099999999162
312279.4257,11.673751477983386,19.784777610231675,17.892948001628262,29.674576296538138,36.442000000039116
312279.4267,12.902202047246519,19.952829434239177,18.143297395721994,28.59932447928363,36.443000000028405
312279.4277,13.712296368167381,19.630607090290773,17.926859954876925,26.911414699152193,36.444000000017695
312279.4287,14.124664265423878,18.872411750685973,17.30138613803579,24.700759997168365,36.445000000006985
312279.4297,14.184851845943921,17.756834287463654,16.347670186644432,22.08439801060602,36.445999999996275
312279.4307,13.959855762377378,16.381957684322952,15.164370506781632,19.200318747657754,36.44700000004377
312279.4317,13.532585149912219,14.858722652398237,13.861088626922514,16.199293755599207,36.44800000003306
312279.4327,12.994704991265735,13.302953682467344,12.550227643673969,13.235280471970434,36.44900000002235
312279.4337,12.438483596493908,11.826685493056939,11.338286919963442,10.455132135840124,36.45000000001164
312279.4347,11.948378732367999,10.52951625634467,10.317328203083958,7.988437704328346,36.45100000000093
312279.4357,11.593140031674016,9.490734738615462,9.557360402188431,5.938337262251708,36.45199999999022
312279.4367,11.41917458555801,8.762920409048165,9.100333340824113,4.374102720285752,36.45300000003772
312279.4377,11.445820118416062,8.3676020225481,8.956308737767696,3.326144686484459,36.45400000002701
312279.4387,11.663004852990971,8.29339080278804,9.10219953704505,2.7839147498844397,36.4550000000163
312279.4397,12.03156017730125,8.496794150964787,9.483251887356577,2.696934553679098,36.45600000000559
312279.4407,12.486211274781455,8.905683773413756,10.017206863668346,2.978920012510181,36.45699999999488
312279.4417,12.941024516697926,9.425159449031623,10.600842887675713,3.514704490012643,36.458000000042375
312279.4427,13.296861836374301,9.945337752662294,11.118386378700947,4.169422743307359,36.459000000031665
312279.4437,13.450203150951028,10.35042352356258,11.451107260788175,4.799220157919549,36.460000000020955
312279.4447,13.302566195338738,10.528306682198853,11.487303675942185,5.262617502024078,36.461000000010245
312279.4457,12.76969156676555,10.379878955645268,11.131837475046611,5.43160271672906,36.461999999999534
312279.4467,11.789675455596196,9.82728877637311,10.314413329498581,5.201543840542548,36.462999999988824
312279.4477,10.329322387834381,8.8204460240288,8.995897379326742,4.499119296268654,36.46400000003632
312279.4487,8.3881471546732,7.3412428594385215,7.172137313228588,3.2876343737261116,36.46500000002561
312279.4497,5.999664442275273,5.4051584405485675,4.874959912679872,1.5693202421996542,36.4660000000149
312279.4507,3.2298470214767097,3.060145242384908,2.170265133241406,-0.6155264199171981,36.46700000000419
312279.4517,0.17288612080673144,0.3829318551889077,-0.8466142272049698,-3.19243286107407,36.46799999999348
312279.4527,-3.055372760309233,-2.5269002665704847,-4.057883945401965,-6.059280417431135,36.46900000004098
312279.4537,-6.325741092214039,-5.554520900502179,-7.331990149322286,-9.09486651341251,36.47000000003027
312279.4547,-9.505018076679704,-8.578454865287876,-10.533307959362626,-12.16872623395291,36.47100000001956
312279.4557,-12.465531222458559,-11.479432245323533,-13.531998011694395,-15.151349237539048,36.47200000000885
312279.4567,-15.094069844615358,-14.148729209820564,-16.2132100588349,-17.92391475478153,36.47299999999814
312279.4577,-17.299462397414825,-16.495309984833057,-18.484884210353066,-20.386733441629822,36.474000000045635
312279.4587,-19.018184214512395,-18.45120858257824,-20.283537664700347,-22.46572266985343,36.475000000034925
312279.4597,-20.21757225017479,-19.974765601976525,-21.577614628458317,-24.116437550641823,36.476000000024214
312279.4607,-20.896449226334116,-21.051543307140463,-22.368201343814924,-25.325414448110376,36.477000000013504
312279.4617,-21.083199382373095,-21.692961019829188,-22.687145489086877,-26.10883439386609,36.478000000002794
312279.4627,-20.831568856274217,-21.932901583037932,-22.592847365550888,-26.508756878041424,36.478999999992084
312279.4637,-20.214663736497567,-21.82271845806738,-22.164187995770522,-26.587387230072025,36.48000000003958
312279.4647,-19.31776933233705,-21.42520524044107,-21.493208398298176,-26.420003687360676,36.48100000002887
312279.4657,-18.230701500078418,-20.8081630891696,-20.677241579195222,-26.087268807337058,36.48200000001816
312279.4667,-17.040417484519402,-20.038210690325283,-19.811217020204595,-25.667676033529318,36.48300000000745
312279.4677,-15.824559205809452,-19.175426270151608,-18.98080627892345,-25.230835028954164,36.48399999999674
312279.4687,-14.646482740550836,-18.269298534482665,-18.256964203020203,-24.832185047825256,36.48500000004424
312279.4697,-13.552156739383786,-17.356305596750676,-17.69225581814878,-24.509556831573644,36.48600000003353
312279.4707,-12.569107560572325,-16.459254730707986,-17.319161684556928,-24.28179818892626,36.48700000002282
312279.4717,-11.707371110623017,-15.588320629903953,-17.150345048609385,-24.1494578483418,36.48800000001211
312279.4727,-10.962203044297318,-14.743536013053996,-17.180664073156095,-24.09730890695573,36.4890000000014
312279.4737,-10.318121269138128,-13.918334831644646,-17.390542248291865,-24.09830879135532,36.48999999999069
312279.4747,-9.75372557249153,-13.103640750803605,-17.75018690529317,-24.118455477961778,36.491000000038184
312279.4757,-9.2466715380575,-12.291942912078843,-18.224081679171977,-24.121923182900463,36.492000000027474
312279.4767,-8.778176276898039,-11.480812247790919,-18.77517960741093,-24.075851887851478,36.493000000016764
312279.4777,-8.336501369973075,-10.67538336775346,-19.368288272686453,-23.954223980429788,36.494000000006054
312279.4787,-7.918986338193853,-9.889451562900835,-19.972259231386833,-23.74038104579055,36.49499999999534
312279.4797,-7.532380249457314,-9.144998557897845,-20.560757267230397,-23.42790131212727,36.49600000004284
312279.4807,-7.1914212654992,-8.470146949696488,-21.11157268090369,-23.01975542846939,36.49700000003213
312279.4817,-6.9158226384868025,-7.895732081245518,-21.604631244426493,-22.52586413353383,36.49800000002142
312279.4827,-6.726016774506992,-7.450851357231465,-22.01903059863042,-21.95937409184527,36.49900000001071
312279.4837,-6.638165901739562,-7.15788634235216,-22.329569532469584,-21.33212721735609,36.5
312279.4847,-6.6590516520672,-7.027577586829801,-22.50332231033804,-20.64990709498207,36.50099999998929
312279.4857,-6.781494878175856,-7.054756271262194,-22.496833935810745,-19.908091721826775,36.50200000003679
312279.4867,-6.980926227546619,-7.215296812456298,-22.25447030475276,-19.088319164690034,36.50300000002608
312279.4877,-7.213629421486718,-7.464753374531201,-21.70835277964507,-18.156683261779584,36.50400000001537
312279.4887,-7.417021822756321,-7.738989891739721,-20.7801495297879,-17.063828427027918,36.50500000000466
312279.4897,-7.512135792965249,-7.956922236072079,-19.38480136226563,-15.747120259175661,36.505999999993946
312279.4907,-7.408239248780467,-8.025281060576816,-17.43604716167203,-14.134851016495968,36.507000000041444
312279.4917,-7.009307137968613,-7.845095324083254,-14.853405093550567,-12.152217921459638,36.508000000030734
312279.4927,-6.221850179263684,-7.319410423615202,-11.570082060989765,-9.728610208800443,36.50900000002002
312279.4937,-4.963444263617942,-6.361610190347822,-7.541145028195769,-6.80557875349914,36.51000000000931
312279.4947,-3.1712006088559135,-4.903623901713948,-2.751209084583054,-3.3447572575815334,36.5109999999986
312279.4957,-0.8093846440832926,-2.903277740152119,2.779111868983224,0.6650318656031773,36.5120000000461
312279.4967,2.124564642877048,-0.3500982333668401,8.98868231601491,5.202215482998708,36.51300000003539
312279.4977,5.596246249738478,2.7310101845932495,15.77380873855102,10.209069929085564,36.51400000002468
312279.4987,9.53319080613845,6.278620083125682,22.98905887422572,15.590928791715351,36.51500000001397
312279.4997,13.826660375308004,10.196362511118823,30.45107592854695,21.218223715916267,36.51600000000326
312279.5007,18.336325272947466,14.357194984587073,37.94527742091772,26.93133700355682,36.51699999999255
312279.5017,22.897533264274653,18.61008195588782,45.23508199238838,32.54799473564186,36.51800000004005
312279.5027,27.330652862849256,22.78860190440466,52.07308733974218,37.872699499439584,36.51900000002934
312279.5037,31.45178295154009,26.72082547990681,58.21344904531971,42.707514604259075,36.52000000001863
312279.5047,35.083993768059415,30.23969757545754,63.42459970507212,46.86338499851165,36.521000000007916
312279.5057,38.068211770659005,33.19311332838054,67.5014107829129,50.17112627987994,36.521999999997206
312279.5067,40.27288826659724,35.45290782525522,70.27593951097977,52.49123755269322,36.5230000000447
312279.5077,41.60169657898476,36.92207876852344,71.62601617847488,53.721794234333785,36.52400000003399
312279.5087,41.99867518434199,37.53972095509878,71.48110275221298,53.80384372604584,36.52500000002328
312279.5097,41.45045845630395,37.28335582853225,69.82507562546864,52.72394423666207,36.52600000001257
312279.5107,39.985491297962284,36.168569101864016,66.69583290419786,50.513734255377635,36.52700000000186
312279.5117,37.670385095015185,34.24610272060301,62.18187733735766,47.24667370976866,36.52799999999115
312279.5127,34.603815614845274,31.596762289825975,56.4162571080554,43.03233375045382,36.52900000003865
312279.5137,30.908566102513184,28.324677540624844,49.56843771139143,38.00880829158407,36.53000000002794
312279.5147,26.722462301993527,24.54957537554166,41.83481262664462,32.3339588630244,36.53100000001723
312279.5157,22.189017685255724,20.398781867832827,33.428627617810484,26.176272734580365,36.53200000000652
312279.5167,17.4486010371466,15.999657087886613,24.57008899212468,19.706107337567083,36.53299999999581
312279.5177,12.630856472829908,11.473087371814653,15.477352599907647,13.08801382680112,36.53400000004331
312279.5187,7.848956998874367,6.928522680669662,6.358956870018834,6.474688428469252,36.535000000032596
312279.5197,3.1960722627028333,2.4608665885205028,-2.5919156233134113,0.0029074042882145774,36.536000000021886
312279.5207,-1.2558006355235154,-1.8506782206322425,-11.201169003607001,-6.208419977993753,36.537000000011176
312279.5217,-5.454734472438299,-5.941914511850735,-19.315549519402225,-12.058173566485523,36.538000000000466
312279.5227,-9.36581341997141,-9.761402040406608,-26.802653794974635,-17.461223257828703,36.538999999989755
312279.5237,-12.966622612676419,-13.267108349313265,-33.54957999346729,-22.345385208947075,36.54000000003725
312279.5247,-16.241922452826184,-16.42251528058411,-39.46072431246302,-26.64772764421516,36.54100000002654
312279.5257,-19.17820979434097,-19.192780759070203,-44.45527793155453,-30.310872106764688,36.54200000001583
312279.5267,-21.758860548787226,-21.541533680733902,-48.46496860644109,-33.27991651512721,36.54300000000512
312279.5277,-23.960469160416412,-23.428795932236717,-51.43251900803208,-35.500518315678846,36.54399999999441
312279.5287,-25.75085837766398,-24.810388625315056,-53.311169234860586,-36.918528677288414,36.54500000004191
312279.5297,-27.089042521539028,-25.639003764404745,-54.065447522772914,-37.48137730211958,36.5460000000312
312279.5307,-27.92720839730889,-25.866925849829308,-53.67318871427261,-37.14119169073452,36.54700000002049
312279.5317,-28.214552237817223,-25.450190482000053,-52.1286142733017,-35.85941674365025,36.54800000000978
312279.5327,-27.902601293183682,-24.353789078732053,-49.446120385344614,-33.612502848899645,36.54899999999907
312279.5337,-26.95147592891249,-22.557388642958387,-45.66428995654848,-30.398073639663068,36.550000000046566
312279.5347,-25.336429704747438,-20.060947720429144,-40.849564481791866,-26.24088504177632,36.551000000035856
312279.5357,-23.05395285707104,-16.88958374835119,-35.09899211502744,-21.197856165206257,36.552000000025146
312279.5367,-20.126744367409025,-13.097086360927793,-28.541512208943118,-15.361494494713524,36.553000000014435
312279.5377,-16.606947818307766,-8.767572955293408,-21.337341143873974,-8.861150084421931,36.554000000003725
312279.5387,-12.577198108029352,-4.014937895843765,-13.675180419846152,-1.8617065696555204,36.554999999993015
312279.5397,-8.1492253687516,1.0200591420652132,-5.76716147838235,5.440464715582199,36.55600000004051
312279.5407,-3.459990010410994,6.175005207572645,2.158345631445473,12.82421744448963,36.5570000000298
312279.5417,1.3344432215785846,11.273070539097217,9.865721227148656,20.052693414162732,36.55800000001909
312279.5427,6.066866558334208,16.131798163568792,17.122354626950067,26.88419405596544,36.55900000000838
312279.5437,10.568119939700814,20.57281899525752,23.70949593045913,33.08413508649775,36.55999999999767
312279.5447,14.676779917385083,24.43176279802113,29.43293227839268,38.437236073599806,36.56100000004517
312279.5457,18.248557611934153,27.567598004344344,34.13269450322503,42.759046404729354,36.56200000003446
312279.5467,21.164632104403264,29.87066487494062,37.691045568625405,45.90593726318972,36.56300000002375
312279.5477,23.3382333727826,31.26876455632771,40.038116068342156,47.78279416101607,36.56400000001304
312279.5487,24.71894072346665,31.730822645594735,41.15472523173602,48.34781756491468,36.56500000000233
312279.5497,25.29436428093358,31.267845763419345,41.07214349235132,47.61406499544761,36.56599999999162
312279.5507,25.089109310958644,29.931115033590626,39.868795417305186,45.64762650164603,36.567000000039116
312279.5517,24.161163820144097,27.80779048949345,37.66414775503165,42.56259335100469,36.568000000028405
312279.5527,22.5960760447379,25.014314043501248,34.61025410490219,38.51323299007058,36.569000000017695
312279.5537,20.499478597185476,21.688176121891345,30.881614457242332,33.68399910375681,36.570000000006985
312279.5547,17.98865219835821,17.978736218667226,26.664137465164703,28.278164784758246,36.570999999996275
312279.5557,15.183891391021191,14.037849308217462,22.144053970113788,22.505955645599354,36.57200000004377
312279.5567,12.200431220115188,10.011043200420309,17.49761663359733,16.573071043377094,36.57300000003306
312279.5577,9.141618484454304,6.02991797116216,12.882334093071021,10.670415599121965,36.57400000002235
312279.5587,6.09387169757559,2.2063053551265353,8.430337191021431,4.965727242689627,36.57500000001164
312279.5597,3.1237844120130704,-1.3714531941773453,4.24427379386138,-0.40240409662918697,36.57600000000093
312279.5607,0.27750592191349893,-4.639958590044156,0.39589634867396245,-5.3278624349226975,36.57699999999022
312279.5617,-2.417696636374112,-7.560000890839039,-3.072735793660968,-9.737656198581698,36.57800000003772
312279.5627,-4.950007507424654,-10.113868578945427,-6.145746822874358,-13.590109729585683,36.57900000002701
312279.5637,-7.318257851991421,-12.301159669223047,-8.82813126723431,-16.871018987873832,36.5800000000163
312279.5647,-9.526372600352177,-14.13365775188837,-11.139285602183795,-19.5883524437277,36.58100000000559
312279.5657,-11.577758787020892,-15.629900879661697,-13.10611403630519,-21.76617337994532,36.58199999999488
312279.5667,-13.470319594593489,-16.81007164126736,-14.756448043210236,-23.438484892132205,36.583000000042375
312279.5677,-15.192702050456427,-17.691773728537186,-16.11345858049051,-24.643653154339813,36.584000000031665
312279.5687,-16.722247335537727,-18.287140890698105,-17.19161496592187,-25.419954282481825,36.585000000020955
312279.5697,-18.02492479537507,-18.60156093220867,-17.99456754614871,-25.802627890849717,36.586000000010245
312279.5707,-19.057312648028258,-18.634107136492666,-18.51511990914017,-25.822623679644273,36.586999999999534
312279.5717,-19.770461767953158,-18.379571568780882,-18.737231008744843,-25.50701683156139,36.587999999988824
312279.5727,-20.11526645884259,-17.83180922141919,-18.63977006685953,-24.88086554760639,36.58900000003632
312279.5737,-20.048789253708055,-16.987947770599963,-18.201558659828653,-23.970110676847117,36.59000000002561
312279.5747,-19.54086362758071,-15.852910595553299,-17.407093427329926,-22.804991038230227,36.5910000000149
312279.5757,-18.58024211160946,-14.443651825838353,-16.25226331950642,-21.423381853523196,36.59200000000419
312279.5767,-17.179574283021754,-12.792516946248664,-14.749365310043501,-19.873464762141694,36.59299999999348
312279.5777,-15.378588981535064,-10.94922001134084,-12.930783435251588,-18.215206388359665,36.59400000004098
312279.5787,-13.245010230890841,-8.981061644579345,-10.850822353637566,-16.520251694948456,36.59500000003027
312279.5797,-10.872942604915668,-6.971187947797196,-8.585366401306663,-14.87001541410419,36.59600000001956
312279.5807,-8.378699876931979,-5.014892048499735,-6.229251056825463,-13.35196168501831,36.59700000000885
312279.5817,-5.894298087696356,-3.2141673417673005,-3.8914648445223996,-12.054277355727471,36.59799999999814
312279.5827,-3.5590668434031394,-1.6709138126115763,-1.6885233496349106,-11.059345759887302,36.599000000045635
312279.5837,-1.5100280250598876,-0.4793566611161761,0.26344891579439783,-10.436593765253805,36.600000000034925
312279.5847,0.1281701922274781,0.2816565293316328,1.8572479661069892,-10.235397354109601,36.601000000024214
312279.5857,1.2529081561084456,0.5557691688825637,3.002968927772597,-10.478776877434896,36.602000000013504
312279.5867,1.7919928202415898,0.3149519079956168,3.63546259679822,-11.158585833073419,36.603000000002794
312279.5877,1.7100421368030574,-0.4365357697181046,3.720163861262019,-12.232797172502872,36.603999999992084
312279.5887,1.0122583940088774,-1.6605065676111384,3.256719408799743,-13.625326605800616,36.60500000003958
312279.5897,-0.254790411716382,-3.2857813175760064,2.2800318828326303,-15.228617580515609,36.60600000002887
312279.5907,-2.0055083406708376,-5.211728322014391,0.8585658294223407,-16.90896721979229,36.60700000001816
312279.5917,-4.1205877557141095,-7.314203356609761,-0.9099942045485753,-18.514319549867135,36.60800000000745
312279.5927,-6.4549061037497415,-9.453470679598166,-2.905404504523307,-19.8840160145898,36.60899999999674
312279.5937,-8.847382270299235,-11.483503301244411,-4.993303679482747,-20.85979655863914,36.61000000004424
312279.5947,-11.132003388004241,-13.261930869882029,-7.034736335920203,-21.297207004680438,36.61100000003353
312279.5957,-13.149135173358006,-14.659838373266407,-8.895964630933957,-21.07650420461324,36.61200000002282
312279.5967,-14.75621032446754,-15.570624930989938,-10.457750951080088,-20.112166841438615,36.61300000001211
312279.5977,-15.83695172494015,-15.917209063085927,-11.62334781371676,-18.360216530207396,36.6140000000014
312279.5987,-16.308424083171648,-15.657008057411101,-12.324553904019043,-15.822723114915515,36.61499999999069
312279.5997,-16.125406119571387,-14.784311458010679,-12.525375898394637,-12.549094959389421,36.616000000038184
312279.6007,-15.28181668394476,-13.329894457246429,-12.223056827313354,-8.63401922329755,36.617000000027474
312279.6017,-13.809189492982997,-11.357955154900898,-11.446471867053118,-4.21219463254525,36.618000000016764
312279.6027,-11.772448023501553,-8.960688167639024,-10.252128614164574,0.549735191462235,36.619000000006054
312279.6037,-9.263460581603994,-6.251004825694093,-8.71821865600404,5.463410381401312,36.61999999999534
312279.6047,-6.3930346855078675,-3.354059067170725,-6.937330925149545,10.330335543056426,36.62100000004284
312279.6057,-3.2821235459937386,-0.3983247435811814,-5.008539881039722,14.95390255272763,36.62200000003213
312279.6067,-0.05305592807967663,2.4930130125519914,-3.0296140392365767,19.15092630611354,36.62300000002142
312279.6077,3.1784383177184874,5.209643147544694,-1.0900507083378466,22.761827052964886,36.62400000001071
312279.6087,6.309746097196798,7.660099368979426,0.734464014096493,25.658730874362792,36.625
312279.6097,9.255942884494875,9.775694794830255,2.3857333984474405,27.75095920495881,36.62599999998929
312279.6107,11.952143048050583,11.51220448268436,3.8246311048512402,28.98761968873789,36.62700000003679
312279.6117,14.353587813787374,12.849300001330846,5.0305694789981645,29.35727095837641,36.62800000002608
312279.6127,16.433661685552025,13.787953969412268,5.999055611729048,28.884888530937477,36.62900000001537
312279.6137,18.18023401598705,14.34621917366745,6.7377267208500955,27.62658419938202,36.63000000000466
312279.6147,19.590882365417873,14.553928787539716,7.261403796725462,25.662706530931658,36.630999999993946
312279.6157,20.667652994405508,14.446948226661588,7.586792008139184,23.09005994973563,36.632000000041444
312279.6167,21.412042268565052,14.061628025297981,7.727479813769757,20.014015534140334,36.633000000030734
312279.6177,21.820838980671105,13.43006002065898,7.6898443937315815,16.54124658816759,36.63400000002002
312279.6187,21.883356920968936,12.57663183043869,7.4703639234765244,12.773712132927576,36.63500000000931
312279.6197,21.580421411261277,11.516218737552368,7.054678514135516,8.804344306348067,36.6359999999986
312279.6207,20.885270339528766,10.254163986289704,6.418547498777759,4.7146892570280565,36.6370000000461
312279.6217,19.766310525952417,8.787997524202597,5.530640723054342,0.5745270318403372,36.63800000003539
312279.6227,18.19145660357748,7.110649881349582,4.356896678692263,-3.556722852497364,36.63900000002468
312279.6237,16.133593891323414,5.214751727106686,2.8660012511802186,-7.62719491571781,36.64000000001397
312279.6247,13.576567987054908,3.097487399217192,1.0354055913558036,-11.588900121893218,36.64100000000326
312279.6257,10.521026283370817,0.765404593918412,-1.142776013377858,-15.393791545444998,36.64199999999255
312279.6267,6.989428438516238,-1.7614209858524787,-3.6566591360541616,-18.99020375797191,36.64300000004005
312279.6277,3.029605226292359,-4.446407605700469,-6.47088789809812,-22.320243145337926,36.64400000002934
312279.6287,-1.2836276739978711,-7.235101019173931,-9.524835011366358,-25.318589819795132,36.64500000001863
312279.6297,-5.8491147559056,-10.055682387198893,-12.7330274012755,-27.913004377286867,36.646000000007916
312279.6307,-10.5423637950522,-12.821422124485427,-15.987913936050349,-30.026631978229354,36.646999999997206
312279.6317,-15.22077748334661,-15.434949665429494,-19.164867515114693,-31.5819829539483,36.6480000000447
312279.6327,-19.73076385118773,-17.794017518276796,-22.12909445589637,-32.506265483973465,36.64900000003399
312279.6337,-23.916185688048383,-19.798275477837677,-24.743931074198187,-32.737573056389856,36.65000000002328
312279.6347,-27.627468202764128,-21.356453935073418,-26.87985961891969,-32.23130560243575,36.65100000001257
312279.6357,-30.730606499402445,-22.393295916304634,-28.423488204838023,-30.966141753757185,36.65200000000186
312279.6367,-33.115308216145365,-22.85558229327117,-29.285721377788505,-28.948887814286742,36.65299999999115
312279.6377,-34.701573111431664,-22.716663784866544,-29.408402160285103,-26.217607082290563,36.65400000003865
312279.6387,-35.444144654493606,-21.979040889155346,-28.768828670688997,-22.842574458095456,36.65500000002794
312279.6397,-35.334456432310375,-20.674706966436954,-27.38172791912384,-18.924792846093588,36.65600000001723
312279.6407,-34.399920711882444,-18.86317393394991,-25.29848978816939,-14.592031620597506,36.65700000000652
312279.6417,-32.7006464236773,-16.627314953009314,-22.603705053009904,-9.992581922764579,36.65799999999581
312279.6427,-30.323906181052113,-14.06736340894547,-19.40928997950938,-5.287146037538513,36.65900000004331
312279.6437,-27.376874356648273,-11.29358251101061,-15.846693962572262,-0.6394667054945179,36.660000000032596
312279.6447,-23.97831111851388,-8.418247797696775,-12.057855424300449,3.793561897357174,36.661000000021886
312279.6457,-20.24995580017896,-5.5476529424034124,-8.185678561136989,7.871490634254536,36.662000000011176
312279.6467,-16.30840832236086,-2.7748504008387105,-4.364839090401127,11.478813818141207,36.663000000000466
312279.6477,-12.258217938705672,-0.17377191547372922,-0.7136873472811074,14.53164462369544,36.663999999989755
312279.6487,-8.186769954786934,2.2047544795596656,2.672094348747632,16.981991900689668,36.66500000003725
312279.6497,-4.161375661057312,4.334752662395964,5.723595496728599,18.819267729560295,36.66600000002654
312279.6507,-0.22874654300329772,6.214485064832191,8.400274418269161,20.068896978314132,36.66700000001583
312279.6517,3.583207198300115,7.8635754897560055,10.689020259491917,20.788156622254363,36.66800000000512
312279.6527,7.261547976944146,9.318181742441531,12.600891351342291,21.05961963394078,36.66899999999441
312279.6537,10.802950392412777,10.624718077180217,14.165957292645654,20.982792458668495,36.67000000004191
312279.6547,14.20746139790511,11.83276609726082,15.426843555627823,20.664696009987637,36.6710000000312
312279.6557,17.472121722597482,12.987890003640981,16.43168773104082,20.21023224148343,36.67200000002049
312279.6567,20.58520283157785,14.125080222300646,17.22725530019918,19.713192652282462,36.67300000000978
312279.6577,23.52175100936155,15.263487409117493,17.852926772935877,19.24869994655587,36.67399999999907
312279.6587,26.2409970053343,16.402982423035564,18.33616136092199,18.86773547585297,36.675000000046566
312279.6597,28.68599893774952,17.522899150894148,18.689876283999673,18.594206086216783,36.676000000035856
312279.6607,30.785656409333228,18.58310326187186,18.911972420233678,18.424763422261474,36.677000000025146
312279.6617,32.458987560961624,19.527301719615895,18.98700752283121,18.331329460585582,36.678000000014435
312279.6627,33.62132232561843,20.288287278137034,18.88979083187868,18.2660286993966,36.679000000003725
312279.6637,34.19185803938248,20.794620607337567,18.590470438381317,18.16800406818174,36.679999999993015
312279.6647,34.10186844805458,20.978108701696524,18.06052739293362,17.971421360758676,36.68100000004051
312279.6657,33.30276964239966,20.781355764019192,17.278993810558834,17.61386198310341,36.6820000000298
312279.6667,31.773235634021358,20.164649783113614,16.23818544182021,17.044275658575522,36.68300000001909
312279.6677,29.52462375902025,19.111505740455836,14.948284628090768,16.22971561678148,36.68400000000838
312279.6687,26.604109846585082,17.632309124969762,13.440222286103236,15.160203252360567,36.68499999999767
312279.6697,23.09513204452669,15.765679256629806,11.766475981913885,13.851254765931632,36.68600000004517
312279.6707,19.11498151693822,13.577383772189636,9.99960826062811,12.343830587689958,36.68700000003446
312279.6717,14.809635168789496,11.156863058564953,8.228594549780222,10.701717160704742,36.68800000002375
312279.6727,10.34617567410232,8.611644593434049,6.553210940548195,9.006595880502722,36.68900000001304
312279.6737,5.903363661575608,6.0601209867478945,5.0769473945872825,7.351272188094712,36.69000000000233
312279.6747,1.6610952326736599,3.6233137384077256,3.899062573830565,5.831708393683585,36.69099999999162
312279.6757,-2.2104206458578326,1.416333633368922,3.106488209259221,4.53861100277492,36.692000000039116
312279.6767,-5.5609051124448685,-0.45972955139360727,2.7663152105122024,3.5493576799388458,36.693000000028405
312279.6777,-8.26886574962318,-1.9248020178749474,2.9195486426890302,2.9210082414934053,36.694000000017695
312279.6787,-10.24838442987671,-2.9251293066612765,3.576709003445858,2.6850332461892714,36.695000000006985
312279.6797,-11.453339828990806,-3.43647314726147,4.715693801183473,2.8442246065210757,36.695999999996275
312279.6807,-11.878794630144723,-3.464983738144441,6.282112165637174,3.372042417173296,36.69700000004377
312279.6817,-11.559524330262898,-3.0457422615618386,8.192085466776401,4.214421869171564,36.69800000003306
312279.6827,-10.565908046530023,-2.2391766660322365,10.337289594503503,5.293836297952546,36.69900000002235
312279.6837,-8.99761904867486,-1.1257374583365216,12.591820131371756,6.515209105757829,36.70000000001164
312279.6847,-6.975724016712267,0.20063772146959366,14.820308201950144,7.773107753442588,36.70100000000093
312279.6857,-4.633910099276587,1.639654405559048,16.886616254440142,8.959551871903514,36.70199999999022
312279.6867,-2.1095987365936777,3.091744278978226,18.662407933950494,9.971733438949885,36.70300000003772
312279.6877,0.46432711964117823,4.464495473135328,20.034916822685275,10.718981761976888,36.70400000002701
312279.6887,2.9665552752468796,5.677919148723592,20.913331010714355,11.128404668138733,36.7050000000163
312279.6897,5.2926641121169045,6.668182315946276,21.233354104428003,11.14878848389836,36.70600000000559
312279.6907,7.358452029491933,7.3896090741948335,20.959683320102663,10.752526622437902,36.70699999999488
312279.6917,9.101211040301274,7.814937659223477,20.08634328644827,9.935550023822575,36.708000000042375
312279.6927,10.479088064968288,7.933999521350616,18.635010117151964,8.715431087977272,36.709000000031665
312279.6937,11.468861834905598,7.7511407046244925,16.65163476835548,7.128005712745987,36.710000000020955
312279.6947,12.062604696416603,7.2818194377287035,14.20181074512013,5.222988131674116,36.711000000010245
312279.6957,12.263783326335245,6.548875861403949,11.365416190763487,3.0591276879287355,36.711999999999534
312279.6967,12.083372818300528,5.578974521541597,8.231087130972467,0.6994687478844314,36.712999999988824
312279.6977,11.536513957593286,4.3996680815344895,4.891046209358314,-1.7927753938823663,36.71400000003632
312279.6987,10.640139808903625,3.0374281367676152,1.436724942976859,-4.3573299174400395,36.71500000002561
312279.6997,9.411847230496866,1.5168479024161818,-2.0445117416275584,-6.938691877543457,36.7160000000149
312279.7007,7.870108743571242,-0.13894212997585917,-5.471386852335526,-9.48660976533115,36.71700000000419
312279.7017,6.035730580281465,-1.906772291494798,-8.769493265312414,-11.95531103709517,36.71799999999348
312279.7027,3.9342849481492776,-3.761125357022513,-11.87100834539201,-14.301746658689234,36.71900000004098
312279.7037,1.5990985816078291,-5.671422296885202,-14.713644031887943,-16.483255541915813,36.72000000003027
312279.7047,-0.9257178425976602,-7.599377337052153,-17.239224723497184,-18.45513672222061,36.72100000001956
312279.7057,-3.5827523240797086,-9.496916595191118,-19.39232394043527,-20.168643045664005,36.72200000000885
312279.7067,-6.299811345086441,-11.305114835850082,-21.119374353390796,-21.569873156042608,36.72299999999814
312279.7077,-8.989910788507167,-12.954509301925432,-22.368596298327745,-22.59994167536123,36.724000000045635
312279.7087,-11.553025718487564,-14.367007126621077,-23.090975139343485,-23.196660194316838,36.725000000034925
312279.7097,-13.879700177858993,-15.459427684186045,-23.242370597675805,-23.297779207855864,36.726000000024214
312279.7107,-15.856410189575628,-16.14853134659053,-22.786677874694924,-22.845642724363074,36.727000000013504
312279.7117,-17.372365478305607,-16.35720139439087,-21.699799407344255,-21.792914367666242,36.728000000002794
312279.7127,-18.327250132496555,-16.021286146706686,-19.974045727364263,-20.10886773615683,36.728999999992084
312279.7137,-18.63925973814801,-15.096491495580945,-17.62248051728314,-17.7856136488723,36.73000000003958
312279.7147,-18.252708722473646,-13.564653773127509,-14.682671247760268,-14.843577447851674,36.73100000002887
312279.7157,-17.144467379081135,-11.438727638012622,-11.219310382339714,-11.33554957344665,36.73200000001816
312279.7167,-15.328547115224348,-8.76589545740749,-7.325234803020462,-7.348714075617599,36.73300000000745
312279.7177,-12.858281367897058,-5.628338804718241,-3.120488472777407,-3.0042071908055403,36.73399999999674
312279.7187,-9.825737820836746,-2.14139817554934,1.2507647049399897,1.5460406358236891,36.73500000004424
312279.7197,-6.358228362111071,1.5509325158011862,5.625479233693496,6.125188847036133,36.73600000003353
312279.7207,-2.612035479182986,5.282994820593599,9.828915863141383,10.539855699391373,36.73700000002282
312279.7217,1.2362761478659536,8.876528114365678,13.683382338008386,14.590489980134898,36.73800000001211
312279.7227,5.000370035461318,12.151196419045215,17.017963178346246,18.08305629380136,36.7390000000014
312279.7237,8.495701047975016,14.935819896300409,19.678551873254083,20.84119178658966,36.73999999999069
312279.7247,11.551250724132013,17.079463834063045,21.53743366665783,22.717909444401137,36.741000000038184
312279.7257,14.020519247515958,18.46152325320374,22.501667120272657,23.60592006317805,36.742000000027474
312279.7267,15.790904288588957,19.00000184477119,22.519579444252763,23.445723799239794,36.743000000016764
312279.7277,16.790720127321705,18.657315398477536,21.58481949626491,22.23077737779003,36.744000000006054
312279.7287,16.993300516533832,17.443141168006516,19.737592794303666,20.00926190641574,36.74499999999534
312279.7297,16.417868813866882,15.414069096151753,17.062919391295704,16.882240109165576,36.74600000004284
312279.7307,15.127127423782934,12.670067787523996,13.685989080420965,12.998277653806838,36.74700000003213
312279.7317,13.221791291247971,9.348034735017404,9.7649185083197,8.544885899605566,36.74800000002142
312279.7327,10.832542416688478,5.612933753854343,5.4814209785531895,3.737397822085818,36.74900000001071
312279.7337,8.110091381887921,1.6472121729483804,1.0300637814156708,-1.193907449703584,36.75
312279.7347,5.214179013522675,-2.360680532944251,-3.3931046285822353,-6.017481049974363,36.75099999998929
312279.7357,2.3024236943041263,-6.227793320921293,-7.601733636416639,-10.513976677982784,36.75200000003679
312279.7367,-0.48008841992780155,-9.78733222423513,-11.429359153736163,-14.488543811187714,36.75300000002608
312279.7377,-3.009660281752604,-12.89770743401014,-14.737899128465319,-17.781078368548318,36.75400000001537
312279.7387,-5.190635282689914,-15.449354771994246,-17.423903915830316,-20.27374964652962,36.75500000000466
312279.7397,-6.959402467917325,-17.368922164347335,-19.422203724334466,-21.895358462021427,36.755999999993946
312279.7407,-8.28556162515802,-18.620646157332004,-20.706815032317838,-22.622349746218912,36.757000000041444
312279.7417,-9.170312010873358,-19.204985961216344,-21.28919316766547,-22.47657906053977,36.758000000030734
312279.7427,-9.64237344650063,-19.1548108061712,-21.214128980064082,-21.520191982228837,36.75900000002002
312279.7437,-9.751958161955718,-18.529630057487548,-20.553765124040734,-19.84819526264901,36.76000000000931
312279.7447,-9.563467178945604,-17.40849766360511,-19.400336634548083,-17.579460311913103,36.7609999999986
312279.7457,-9.147672690717119,-15.88230133269735,-17.85831066485516,-14.84698981710341,36.7620000000461
312279.7467,-8.574160912163327,-14.046156779041276,-16.03660661767581,-11.788290915116455,36.76300000003539
312279.7477,-7.904748581070783,-11.992569528593268,-14.041521710765812,-8.536634426631997,36.76400000002468
312279.7487,-7.188458162443583,-9.805908672077903,-11.970875516661613,-5.213847483266202,36.76500000001397
312279.7497,-6.458455671390181,-7.558571810873128,-9.909732657242595,-1.9251009908819086,36.76600000000326
312279.7507,-5.731139666361188,-5.3090257672733046,-7.927882024346402,1.2440668871715759,36.76699999999255
312279.7517,-5.007342226071526,-3.101703473063362,-6.079062341935634,4.228482458694317,36.76800000004005
312279.7527,-4.275385362045711,-0.9685443860462767,-4.401746702461354,6.982036355871919,36.76900000002934
312279.7537,-3.515550737060368,1.0681971194149202,-2.9211505166000262,9.474754039864399,36.77000000001863
312279.7547,-2.7053847127815573,2.992367998244141,-1.6520224691177001,11.68877931530994,36.771000000007916
312279.7557,-1.8251874065371836,4.790110445108982,-0.6017262585651286,13.613890841216104,36.771999999997206
312279.7567,-0.8630299746795669,6.446385387305743,0.2268738037200758,15.243181053189346,36.7730000000447
312279.7577,0.1812918133023362,7.942316256078541,0.833149725110039,16.56946905477597,36.77400000003399
312279.7587,1.293834872422443,9.253729892170094,1.2173874964539109,17.58290151276302,36.77500000002328
312279.7597,2.445911819527095,10.351117721294989,1.3805803301880926,18.27003187226773,36.77600000001257
312279.7607,3.5954127048692164,11.201063381952778,1.32534984751439,18.61447619895354,36.77700000000186
312279.7617,4.689927861770807,11.769001654046926,1.0578440558755529,18.599044179617316,36.77799999999115
312279.7627,5.671356482835052,12.023006984482048,0.5903145172488522,18.209057356081136,36.77900000003865
312279.7637,6.481520676482612,11.938175702553778,-0.05603778011966103,17.43641310239918,36.78000000002794
312279.7647,7.068189631956565,11.501078402104948,-0.8484245922814869,16.283848319523578,36.78100000001723
312279.7657,7.39086491776191,10.713727447898334,-1.7405286710993702,14.768812440861835,36.78200000000652
312279.7667,7.425691502509307,9.596532980553901,-2.6716997744008255,12.926380140118864,36.78299999999581
312279.7677,7.168938754313469,8.189806929861874,-3.5676294173410565,10.810718528512202,36.78400000004331
312279.7687,6.638633761968843,6.553510322376095,-4.34269941527553,8.494763573052259,36.785000000032596
312279.7697,5.874112260249641,4.765111416213968,-4.904022162186412,6.067942209618725,36.786000000021886
312279.7707,4.933462094458475,2.9156139206825684,-5.1570000143890535,3.6319820344916627,36.787000000011176
312279.7717,3.8890495869167996,1.1040065931885594,-5.0120467405989375,1.2950587884630609,36.788000000000466
312279.7727,2.821518687867929,-0.5694416170874772,-4.391955373661537,-0.8352782372248223,36.788999999989755
312279.7737,1.812816122728876,-2.0104808396315366,-3.2392815719239936,-2.6598110642944963,36.79000000003725
312279.7747,0.938906025136324,-3.138129518526629,-1.5230535547026516,-4.095299235360445,36.79100000002654
312279.7757,0.26288302842217526,-3.8912058071355675,0.7558727143028846,-5.081347068025188,36.79200000001583
312279.7767,-0.17083193902835866,-4.233514731502437,3.5614189938441885,-5.585810881663576,36.79300000000512
312279.7777,-0.34062234258974944,-4.1571683336197465,6.821318051276842,-5.608172906954546,36.79399999999441
312279.7787,-0.24969620046452787,-3.6836730513208096,10.42885082933519,-5.180476087744158,36.79500000004191
312279.7797,0.07424156164629071,-2.862614957831485,14.24733647648793,-4.365626312898892,36.7960000000312
312279.7807,0.5816752966843625,-1.767990965417071,18.117181587443326,-3.2531062010176606,36.79700000002049
312279.7817,1.206102782193659,-0.4924521259235519,21.86505931799571,-1.9523849880418285,36.79800000000978
312279.7827,1.8705634014986086,0.8600772197241159,25.314582774763583,-0.5845292250847144,36.79899999999907
312279.7837,2.495262312656328,2.182782784254863,28.2976804730392,0.7273026799197335,36.800000000046566
312279.7847,3.005565283544758,3.374622060494509,30.665790718175217,1.8676804311318045,36.801000000035856
312279.7857,3.339590679551365,4.348503934803966,32.299976672307096,2.738188192121266,36.802000000025146
312279.7867,3.4546515639470825,5.038259734293342,33.11912788759348,3.2653604788962203,36.803000000014435
312279.7877,3.3319003365692375,5.4037813736310225,33.085553172449664,3.4065581313074174,36.804000000003725
312279.7887,2.9786919724461716,5.4338635450664325,32.20747273608714,3.1532493129671466,36.804999999993015
312279.7897,2.4283945758169847,5.146492666378197,30.53816749609693,2.531386452582878,36.80600000004051
312279.7907,1.7376175966067966,4.586556532088484,28.17181858511531,1.5988269857117523,36.8070000000298
312279.7917,0.9810756653266044,3.8211837144255942,25.236346266636932,0.4400100042890172,36.80800000001909
312279.7927,0.24453584610909565,2.9331386546393796,21.88381015393977,-0.8416520826993978,36.80900000000838
312279.7937,-0.3835140062899175,2.0128766240671756,18.27913923253191,-2.1330011200649346,36.80999999999767
312279.7947,-0.8207066704348404,1.1499854615144571,14.588102126676768,-3.321167358255717,36.81100000004517
312279.7957,-0.9993176924550674,0.42479656354224316,10.965492440783136,-4.303524288319539,36.81200000003446
312279.7967,-0.8736569471202283,-0.09906929759436056,7.544484853981846,-4.9966856716593036,36.81300000002375
312279.7977,-0.4256127709262834,-0.38054359657467174,4.428016406637743,-5.343753791018966,36.81400000001304
312279.7987,0.3322055098172104,-0.4048119335166075,1.6828728742436179,-5.319187486450367,36.81500000000233
312279.7997,1.3560648155673791,-0.18454807157932973,-0.6630723990239982,-4.930875238113393,36.81599999999162
312279.8007,2.5735341482990313,0.24141907756522593,-2.6202898557556944,-4.219252179452203,36.817000000039116
312279.8017,3.8885684867570665,0.811867586540866,-4.233801648181118,-3.2535667803179624,36.818000000028405
312279.8027,5.1888350831372625,1.4490127043162977,-5.576545001179719,-2.1256581487892983,36.819000000017695
312279.8037,6.354658648129063,2.065855837848197,-6.740507303098659,-0.9418247691068803,36.820000000006985
312279.8047,7.268810870990014,2.5743672731579235,-7.826430957092723,0.18647021729754912,36.820999999996275
312279.8057,7.826289700433586,2.8937467016297855,-8.932996616015924,1.1522182206686413,36.82200000004377
312279.8067,7.943232312806592,2.958005864335592,-10.146423860463662,1.8619545593968507,36.82300000003306
312279.8077,7.564182793188398,2.7221884292465868,-11.531376928215,2.2435272502396257,36.82400000002235
312279.8087,6.667083895900864,2.1666762689479704,-13.123935399727827,2.2518901317065003,36.82500000001164
312279.8097,5.265567751300151,1.2992153127802577,-14.927198215814107,1.8724589971504244,36.82600000000093
312279.8107,3.408363595215593,0.15451013294951563,-16.909852064028044,1.121802129079648,36.82699999999022
312279.8117,1.1758985719556831,-1.2085364969053414,-19.007773904595393,0.045685563553194274,36.82800000003772
312279.8127,-1.325583826608866,-2.711646417206586,-21.128475910557686,-1.2852653903153084,36.82900000002701
312279.8137,-3.97184725725252,-4.263573381624834,-23.157962668958724,-2.781816263856867,36.8300000000163
312279.8147,-6.629724222346334,-5.767480181040616,-24.96937588798182,-4.34365264441829,36.83100000000559
312279.8157,-9.166616236138447,-7.128595046112482,-26.432667417390405,-5.867460092145247,36.83199999999488
312279.8167,-11.459612235208573,-8.261448147158015,-27.424477599230645,-7.254802900576996,36.833000000042375
312279.8177,-13.403460912074193,-9.09604739148227,-27.837406585915488,-8.419099463660409,36.834000000031665
312279.8187,-14.91675851894583,-9.582471362714669,-27.587948120734286,-9.291108203536018,36.835000000020955
312279.8197,-15.945896443133117,-9.693523610280437,-26.622498703525967,-9.822507843679524,36.836000000010245
312279.8207,-16.466534104004168,-9.42528953541017,-24.921044944264775,-9.987361283128312,36.836999999999534
312279.8217,-16.48260059161972,-8.795645007179587,-22.4983492129133,-9.781472222942083,36.837999999988824
312279.8227,-16.02305976607687,-7.8409639450539,-19.402677368390574,-9.219855717294244,36.83900000003632
312279.8237,-15.136876016642198,-6.611441016309905,-15.712321340673443,-8.332726803587647,36.84000000002561
312279.8247,-13.886772391385849,-5.1655690284349935,-11.530344595937128,-7.160547353257955,36.8410000000149
312279.8257,-12.342465130279777,-3.5643769456018193,-6.978104754910013,-5.748747270405499,36.84200000000419
312279.8267,-10.574080810674818,-1.8660379059985495,-2.188174736481434,-4.142745329475366,36.84299999999348
312279.8277,-8.646413368293095,-0.12139765426272031,2.702712326235098,-2.3838372801820724,36.84400000004098
312279.8287,-6.614564232243399,1.6291408597068207,7.560126264514575,-0.5064011249599184,36.84500000003027
312279.8297,-4.521342128272204,3.3570990940488827,12.25735287562368,1.463295470161426,36.84600000001956
312279.8307,-2.3965972996874103,5.045678187652326,16.679447738146088,3.506595221840456,36.84700000000885
312279.8317,-0.2584488793705346,6.687888172583808,20.725793450266575,5.610371858607999,36.84799999999814
312279.8327,1.8838438790728187,8.283332089211788,24.311197904323222,7.7636754162868,36.849000000045635
312279.8337,4.025794550018603,9.834075830956177,27.365730678597526,9.953564340683114,36.850000000034925
312279.8347,6.162945922198275,11.340138040299786,29.83362166054593,12.160694681719798,36.851000000024214
312279.8357,8.286099390281787,12.795180643736503,31.67162751094214,14.355282937635586,36.852000000013504
312279.8367,10.377149162444665,14.182964597781975,32.847299600828244,16.494037876300748,36.853000000002794
312279.8377,12.406087074136567,15.47505841546311,33.3375596617654,18.518569228018656,36.853999999992084
312279.8387,14.329616314658953,16.63015659982012,33.12791081945985,20.355635681319477,36.85500000003958
312279.8397,16.091636553976677,17.595194299834212,32.21249185727912,21.919405380001628,36.85600000002887
312279.8407,17.6256569389942,18.308250629251834,30.595035995267338,23.11568806083821,36.85700000001816
312279.8417,18.858978523759493,18.703035956744916,28.29063967886611,23.847880826139857,36.85800000000745
312279.8427,19.71828623169986,18.714578401481212,25.32810042391651,24.02417166109203,36.85899999999674
312279.8437,20.13612348457812,18.285580517716408,21.752463262355235,23.56538687778191,36.86000000004424
312279.8447,20.057607825977218,17.372824033362406,17.627337470016787,22.41276763439467,36.86100000003353
312279.8457,19.44669565096091,15.952968801343742,13.036519198467907,20.534927983359776,36.86200000002282
312279.8467,18.291324460704065,14.027126014067719,8.084485879840924,17.93328730211296,36.86300000001211
312279.8477,16.606850696666136,11.623682850867086,2.895413147796571,14.64538099103246,36.8640000000014
312279.8487,14.43735194547889,8.799007348470424,-2.3895031984667496,10.745625487843643,36.86499999999069
312279.8497,11.854559686164992,5.635854154712142,-7.616471931263488,6.343331300981459,36.866000000038184
312279.8507,8.954413521666504,2.239505560593675,-12.625146764561466,1.5780006107531255,36.867000000027474
312279.8517,5.851457861626643,-1.2681029092412386,-17.25597039441675,-3.387808954496722,36.868000000016764
312279.8527,2.671514492195888,-4.755828035144265,-21.358350428119117,-8.377548919890923,36.869000000006054
312279.8537,-0.45676183001392295,-8.091735293371258,-24.799074004626362,-13.21098646401068,36.86999999999534
312279.8547,-3.4107201847937842,-11.151784452376592,-27.470298597460047,-17.71494574818972,36.87100000004284
312279.8557,-6.082168981029561,-13.8280462486292,-29.29644794613323,-21.73362880064715,36.87200000003213
312279.8567,-8.384700948268826,-16.03574446948359,-30.239397009960342,-25.137689931597833,36.87300000002142
312279.8577,-10.259234799933932,-17.71851653194616,-30.301444774838345,-27.83134205039381,36.87400000001071
312279.8587,-11.677280060423364,-18.851441669855266,-29.525739258376788,-29.756943309478885,36.875
312279.8597,-12.641638783637537,-19.441584535449483,-27.9940207317068,-30.89673246015371,36.87599999998929
312279.8607,-13.184493294279491,-19.526024660256567,-25.8217689526702,-31.2716306674478,36.87700000003679
312279.8617,-13.363070131611787,-19.167567764516832,-23.15105810602043,-30.937283011713934,36.87800000002608
312279.8627,-13.253293961502319,-18.448542034547334,-20.1416191508235,-29.977750675389114,36.87900000001537
312279.8637,-12.942029902885178,-17.463251662448723,-16.96076519803865,-28.497462785627956,36.88000000000466
312279.8647,-12.518640786694162,-16.309775277342442,-13.77293673431628,-26.612176813290755,36.880999999993946
312279.8657,-12.066645076720556,-15.081847679601594,-10.729660233920642,-24.439765646740955,36.882000000041444
312279.8667,-11.656245906902718,-13.861544990520729,-7.96068205431498,-22.091642058348206,36.883000000030734
312279.8677,-11.33841346066851,-12.713408015145014,-5.566941808569106,-19.665548653979975,36.88400000002002
312279.8687,-11.141050265428374,-11.680494721212378,-3.6158940080299655,-17.240292066374163,36.88500000000931
312279.8697,-11.067566594242376,-10.782664234933263,-2.139487340978486,-14.872798936325665,36.8859999999986
312279.8707,-11.09796049471524,-10.017179796377937,-1.1348852554779958,-12.59763778313588,36.8870000000461
312279.8717,-11.192256310652411,-9.361497285432383,-0.5677797884060016,-10.428907810649452,36.88800000003539
312279.8727,-11.295929963380871,-8.777900264311038,-0.3779337027562497,-8.364166420851685,36.88900000002468
312279.8737,-11.346760280926771,-8.219471478522186,-0.4864035439370543,-6.389873651009814,36.89000000001397
312279.8747,-11.282411334663385,-7.636770512262373,-0.8037646644478346,-4.487692304340156,36.89100000000326
312279.8757,-11.047983840813663,-6.984528985730434,-1.2385903782162302,-2.640910307462305,36.89199999999255
312279.8767,-10.602780511288074,-6.227683521454735,-1.7054371601456737,-0.8402533692948267,36.89300000004005
312279.8777,-9.925610021374514,-5.346141454376581,-2.1316557590099086,0.911569239625935,36.89400000002934
312279.8787,-9.018099222259126,-4.337807356720288,-2.4624773900393606,2.597102672118116,36.89500000001863
312279.8797,-7.905679321631091,-3.2195767473743246,-2.6640021743429014,4.1834932740630295,36.896000000007916
312279.8807,-6.636140021836239,-2.026209388554277,-2.723926445044556,5.624044698138305,36.896999999997206
312279.8817,-5.275883975578037,-0.8072082281222881,-2.650066227321013,6.861848999871234,36.8980000000447
312279.8827,-3.9042393459306286,0.3779694992763639,-2.4669448821800195,7.8351361529047345,36.89900000003399
312279.8837,-2.606378931658231,1.4658747773583105,-2.2108933814625065,8.483797934500492,36.90000000002328
312279.8847,-1.4655317776170107,2.3955900543874793,-1.9242447655957988,8.75640805561897,36.90100000001257
312279.8857,-0.5552441048954955,3.1151424277648467,-1.6492775356920337,8.616993321397496,36.90200000000186
312279.8867,0.06755613107556803,3.5871444338879734,-1.4225694827368363,8.050817638036147,36.90299999999115
312279.8877,0.36801250334582547,3.7930742450313075,-1.2703637597604334,7.068521787493646,36.90400000003865
312279.8887,0.3367743264664753,3.73573973167778,-1.2054294107985282,5.708109811829236,36.90500000002794
312279.8897,-0.008931150846487951,3.439649155619085,-1.2257315201919659,4.034473759764913,36.90600000001723
312279.8907,-0.6267041986025287,2.9492178507574955,-1.3150287068697348,2.136383352047128,36.90700000000652
312279.8917,-1.4527325639092417,2.3249549434902637,-1.445307856302545,0.1211132649329647,36.90799999999581
312279.8927,-2.4075557465827746,1.6379759262476752,-1.5807686932836078,-1.8928856329715156,36.90900000004331
312279.8937,-3.4032900733119433,0.9633558873122342,-1.6829038611639215,-3.7846664530981236,36.910000000032596
312279.8947,-4.351630165849299,0.3729577203475488,-1.7161003298476152,-5.4400698427523455,36.911000000021886
312279.8957,-5.171867592131534,-0.07157222348178896,-1.6531272505591401,-6.76078883062852,36.912000000011176
312279.8967,-5.798165981443507,-0.32495776446007896,-1.4798799920126418,-7.672395919166571,36.913000000000466
312279.8977,-6.185403780253209,-0.3629884188904699,-1.1988197543642032,-8.130593943769112,36.913999999989755
312279.8987,-6.3130341043712495,-0.18528488213473487,-0.8306761589946192,-8.125103202686105,36.91500000003725
312279.8997,-6.186602343865959,0.18415545149860857,-0.41415406523992027,-7.680804844145841,36.91600000002654
312279.9007,-5.836787704791981,0.6987118459373647,-0.0035885006941473946,-6.856005050979266,36.91700000001583
312279.9017,-5.3160728078298085,1.2930518184615662,0.33529699262761214,-5.737943123291056,36.91800000000512
312279.9027,-4.693372701722008,1.8888535535501876,0.5311740969950032,-4.435914659432547,36.91899999999441
312279.9037,-4.047149147004403,2.4018178091161273,0.5139140175979132,-3.0725951811821455,36.92000000004191
312279.9047,-3.4576789557488348,2.749323863612573,0.22177291510971722,-1.7743095060751006,36.9210000000312
312279.9057,-2.9992227593055287,2.8580217681638462,-0.39173745136126203,-0.6610829291890596,36.92200000002049
312279.9067,-2.732845434521768,2.670658751074325,-1.351978518197543,0.16267649191363504,36.92300000000978
312279.9077,-2.70057127574202,2.1515104785538695,-2.6589189560831725,0.6160804069229855,36.92399999999907
312279.9087,-2.9214227140723863,1.2899208516577614,-4.2849401937315195,0.647600106922104,36.925000000046566
312279.9097,-3.3897042753754585,0.10163410730890249,-6.1749922297156346,0.23839164179425107,36.926000000035856
312279.9107,-4.0756720074908515,-1.3721873926447217,-8.249160926395646,-0.5971120494171269,36.927000000025146
312279.9117,-4.928494613574519,-3.0681475880654117,-10.407481056608235,-1.8133096364722239,36.928000000014435
312279.9127,-5.881189026466478,-4.905684732856929,-12.536615148415887,-3.337965296301851,36.929000000003725
312279.9137,-6.857022118666309,-6.793530038500434,-14.517837661021579,-5.078680687095516,36.929999999993015
312279.9147,-7.776730419620308,-8.636938702286399,-16.235635160031126,-6.930656243295328,36.93100000004051
312279.9157,-8.56583480012855,-10.345010783324632,-17.58616898662596,-8.784997024650973,36.9320000000298
312279.9167,-9.161324359490349,-11.837422046316096,-18.484854239165777,-10.536795958853014,36.93300000001909
312279.9177,-9.517053347011176,-13.049953841373064,-18.87238753216414,-12.092279433495166,36.93400000000838
312279.9187,-9.607329826565277,-13.938339139518384,-18.718698754462633,-13.374420365997425,36.93499999999767
312279.9197,-9.428361418630852,-14.480115987544961,-18.024495315054036,-14.326598998675218,36.93600000004517
312279.9207,-8.997443124546301,-14.674382334729374,-16.820292448451152,-14.914103303325788,36.93700000003446
312279.9217,-8.350002916827503,-14.539557067365099,-15.163058089596353,-15.123487157762177,36.93800000002375
312279.9227,-7.534839280558252,-14.109450032096523,-13.130822562100013,-14.960022253713262,36.93900000001304
312279.9237,-6.60806918602668,-13.428109025391059,-10.81579000436242,-14.443666975565726,36.94000000000233
312279.9247,-5.626436401976888,-12.544027671413716,-8.316621657022859,-13.604113524540947,36.94099999999162
312279.9257,-4.640695218331921,-11.50435327256103,-5.730627729184428,-12.475549821739387,36.942000000039116
312279.9267,-3.6897767633889007,-10.349722708557035,-3.1465980971207603,-11.091778233554631,36.943000000028405
312279.9277,-2.796364745766403,-9.110278596576174,-0.6389234787553827,-9.482269204024425,36.944000000017695
312279.9287,-1.9643625234125457,-7.80328510638698,1.736483813694083,-7.66960193313791,36.945000000006985
312279.9297,-1.1785383609181932,-6.4325867483614765,3.944152205577942,-5.66857020304491,36.945999999996275
312279.9307,-0.40641017269713076,-4.989952232649971,5.968800224335133,-3.4870281835715793,36.94700000004377
312279.9317,0.3978022753182907,-3.458139832211644,7.813004966256642,-1.1283404060075666,36.94800000003306
312279.9327,1.2875471747379934,-1.815331751326292,9.493133356008753,1.4048953208033297,36.94900000002235
312279.9337,2.317201379059282,-0.04043231844813186,11.03405341667859,4.106342465274428,36.95000000001164
312279.9347,3.53491386894913,1.8813757456370848,12.463260562805992,6.961233938114663,36.95100000000093
312279.9357,4.97577758092658,3.9534605763777075,13.805104105366128,9.942130581965449,36.95199999999022
312279.9367,6.656053780853478,6.163570364123141,15.075776788397249,13.005737184250611,36.95300000003772
312279.9377,8.56907817666107,8.48118327106824,16.279637785299947,16.091285933487836,36.95400000002701
312279.9387,10.683318369413012,10.856749689507081,17.407286879735505,19.120841574839147,36.9550000000163
312279.9397,12.942843489932134,13.223008506294892,18.435610452773364,22.001683964158605,36.95600000000559
312279.9407,15.270229392300392,15.498347124470186,19.329798898250523,24.63070233740557,36.95699999999488
312279.9417,17.571679984766636,17.591962307469625,20.047113223019732,26.900514038224998,36.958000000042375
312279.9427,19.74392126196595,19.410386873827512,20.54197909733558,28.706821619418676,36.959000000031665
312279.9437,21.682241762661494,20.864795419668223,20.771830606542846,29.956367096749652,36.960000000020955
312279.9447,23.288930024105557,21.878406305725733,20.703030242897782,30.57474752046409,36.961000000010245
312279.9457,24.48130891782667,22.393267453173287,20.316167078101877,30.513332947913028,36.961999999999534
312279.9467,25.19859429368549,22.375753948965908,19.610085221278442,29.754580370526693,36.962999999988824
312279.9477,25.40690925504221,21.820213095885656,18.604115624727058,28.31516172166736,36.96400000003632
312279.9487,25.101956246091074,20.75035774109011,17.338164762664213,26.246510093614706,36.96500000002561
312279.9497,24.309070892925927,19.218216096612508,15.870536099597462,23.632618772286193,36.9660000000149
312279.9507,23.08063298068004,17.300676115744206,14.273602393376036,20.585181008385266,36.96700000000419
312279.9517,21.49106671097455,15.093892650927577,12.627684098930281,17.23641029064334,36.96799999999348
312279.9527,19.629899323882004,12.706033619815255,11.013696799695396,13.730106675006038,36.96900000004098
312279.9537,17.593540815178308,10.249006654493009,9.505286522029529,10.211711957919228,36.97000000003027
312279.9547,15.47657835057164,7.8299135261247566,8.16125857337549,6.818206999864303,36.97100000001956
312279.9557,13.363433531312685,5.543014932957678,7.01911238334453,3.668736317551593,36.97200000000885
312279.9567,11.32120268478097,3.462948657596328,6.090418731227186,0.8567936167396704,36.97299999999814
312279.9577,9.394391633994076,1.639832518601574,5.358621989253765,-1.5553293285519296,36.974000000045635
312279.9587,7.602076650837052,0.09670987494867643,4.779631760092215,-3.5393279157732507,36.975000000034925
312279.9597,5.937789272106941,-1.1704242521310015,4.285305415789523,-5.100651999447723,36.976000000024214
312279.9607,4.3721565835632425,-2.1900233911351665,3.7896402853933435,-6.275281039054359,36.977000000013504
312279.9617,2.8580560408380133,-3.0100700667601203,3.1972188119315583,-7.123812106263505,36.978000000002794
312279.9627,1.3377913753705677,-3.691315440433676,2.4132089810094537,-7.723419601136285,36.978999999992084
312279.9637,-0.24841157455076918,-4.299338322663797,1.3540399926818234,-8.158449518653942,36.98000000003958
312279.9647,-1.9534324770873672,-4.8962031855036,-0.04223140478347498,-8.51054518871681,36.98100000002887
312279.9657,-3.8147131162930243,-5.53254235940546,-1.8068632830814895,-8.849252006144438,36.98200000001816
312279.9667,-5.847023792262807,-6.240854159481858,-3.9336003177372145,-9.224010043337177,36.98300000000745
312279.9677,-8.037310038135498,-7.030698728622161,-6.374828733058504,-9.658318346662774,36.98399999999674
312279.9687,-10.342204085692313,-7.886296780488393,-9.041226372401994,-10.146654197213914,36.98500000004424
312279.9697,-12.688540645479769,-8.766809536042949,-11.805123982601286,-10.654473001134908,36.98600000003353
312279.9707,-14.976935748443404,-9.609322285064815,-14.507469902212978,-11.121323685565178,36.98700000002282
312279.9717,-17.088197037677507,-10.334293403325356,-16.967967470094855,-11.466817765636343,36.98800000001211
312279.9727,-18.89206148989825,-10.852990154050781,-18.997661988769217,-11.598915611269728,36.9890000000014
312279.9737,-20.25752802264224,-11.076235254975698,-20.41301895568514,-11.423766949842776,36.98999999999069
312279.9747,-21.06388970612689,-10.923653055958068,-21.050379582442492,-10.856185945569603,36.991000000038184
312279.9757,-21.21148911651435,-10.332544465625565,-20.779618451548362,-9.82976946077587,36.992000000027474
312279.9767,-20.631228861762438,-9.265541590121813,-19.51586818985993,-8.305687539394247,36.993000000016764
312279.9777,-19.291967171534708,-7.716294786397934,-17.228314848642526,-6.279286314079995,36.994000000006054
312279.9787,-17.20510694139099,-5.712617290133724,-13.945293909137408,-3.7838354403985552,36.99499999999534
312279.9797,-14.425929431169365,-3.3167398394282652,-9.755211151033501,-0.8910072065965939,36.99600000004284
312279.9807,-11.051508550840035,-0.6225886515607367,-4.803149459513993,2.2920309041385183,36.99700000003213
312279.9817,-7.215341996601527,2.2497296150591737,0.7166274853180133,5.628721511224917,36.99800000002142
312279.9827,-3.0791236557001422,5.161797897758276,6.571731497050531,8.961941075698684,36.99900000001071
312279.9837,1.1776688939607576,7.96646097638376,12.505437559692304,12.124815043320519,37.0
312279.9847,5.369510159653902,10.518291931484969,18.252160341850544,14.952615700442605,37.00099999998929
312279.9857,9.316914930914006,12.684063460398784,23.553452652165255,17.29473498407224,37.00200000003679
312279.9867,12.857886905664726,14.352334484913264,28.173334068903863,19.025716845643107,37.00300000002608
312279.9877,15.857803882081853,15.441343035676242,31.911833332698276,20.054417808015636,37.00400000001537
312279.9887,18.216965855286695,15.90454975334093,34.615795364308596,20.33053177963013,37.00500000000466
312279.9897,19.875249828155532,15.733387773044605,36.18624649873315,19.847949992318416,37.005999999993946
312279.9907,20.81357895251585,14.95702421180353,36.58190677507609,18.64470696876962,37.007000000041444
312279.9917,21.052198761723716,13.639202550282317,35.81875872398971,16.7995625679189,37.008000000030734
312279.9927,20.646033090487375,11.872489373142523,33.96589925829421,14.425560773570481,37.00900000002002
312279.9937,19.67764104979963,9.770469907948039,31.138187264681026,11.661161474649223,37.01000000000931
312279.9947,18.248491696861727,7.45860468928113,27.486430167125206,8.659739122850098,37.0109999999986
312279.9957,16.46939776168038,5.0645598199972985,23.18600965250361,5.57836463933392,37.0120000000461
312279.9967,14.450993829820254,2.708847606286716,18.42491874575037,2.566824321800193,37.01300000003539
312279.9977,12.295105369284817,0.4965619369708524,13.392166426145629,-0.24222008485344754,37.01400000002468
312279.9987,10.087738436038933,-1.4891299988725823,8.267407085191271,-2.7411562478411162,37.01500000001397
312279.9997,7.894238534774679,-3.1912583554312,3.2124829090843012,-4.852854299064269,37.01600000000326
312280.0007,5.756939598250672,-4.580822087000271,-1.6346536095838993,-6.5332756162848264,37.01699999999255
312280.0017,3.695373078814856,-5.656037402608068,-6.163419519862218,-7.771192336402106,37.01800000004005
312280.0027,1.7088572450759505,-6.439272301223766,-10.291519859595537,-8.5852175942668,37.01900000002934
312280.0037,-0.21893807362920975,-6.972082378179887,-13.963574478339622,-9.018584020793295,37.02000000001863
312280.0047,-2.114034708046359,-7.308923397447735,-17.147914860522473,-9.132296235546264,37.021000000007916
312280.0057,-4.005496899408407,-7.510216338831491,-19.8321460415567,-8.997405184133335,37.021999999997206
312280.0067,-5.918832828853341,-7.635472510371534,-22.018133386864903,-8.687198139294372,37.0230000000447
312280.0077,-7.8701586691563605,-7.737148384621191,-23.71706661451016,-8.27006551731955,37.02400000003399
312280.0087,-9.861734896779424,-7.855797419850256,-24.94517799282696,-7.80369958134566,37.02500000002328
312280.0097,-11.879323664684472,-8.016930836333264,-25.720558854092282,-7.3311129332420055,37.02600000001257
312280.0107,-13.891613397301454,-8.22980772772424,-26.06134464386668,-6.878754556739981,37.02700000000186
312280.0117,-15.85173356188779,-8.488166922937777,-25.985343628292608,-6.456770121179486,37.02799999999115
312280.0127,-17.700661693022514,-8.772709920163207,-25.510989716733228,-6.061225039381442,37.02900000003865
312280.0137,-19.372128558012204,-9.054966426289951,-24.65932666106174,-5.677906454227486,37.03000000002794
312280.0147,-20.79847543332828,-9.302039138500188,-23.4565974970667,-5.2871639745361065,37.03100000001723
312280.0157,-21.91682467807929,-9.48164539999431,-21.936933298704844,-4.869153690346028,37.03200000000652
312280.0167,-22.674899827875063,-9.56685740009251,-20.14461705651951,-4.4088244424546685,37.03299999999581
312280.0177,-23.03587598889213,-9.539990314146388,-18.135443116669766,-3.900030952813715,37.03400000004331
312280.0187,-22.981749995918342,-9.395193334472518,-15.976794851727732,-3.348269417874159,37.035000000032596
312280.0197,-22.514880749838333,-9.139450239304997,-13.74621180835779,-2.771695106327516,37.036000000021886
312280.0207,-21.657546309422486,-8.791877705724872,-11.528396441631848,-2.200280701997541,37.037000000011176
312280.0217,-20.449575195519085,-8.381401826304455,-9.410800543997503,-1.6731874860949216,37.038000000000466
312280.0227,-18.944313162189225,-7.943076141406796,-7.478112291152885,-1.2346265924970032,37.038999999989755
312280.0237,-17.203362464676072,-7.513458956911571,-5.806117012102765,-0.928663122672404,37.04000000003725
312280.0247,-15.290660439869596,-7.125577788917952,-4.455511698989316,-0.7935436298315502,37.04100000002654
312280.0257,-13.26653478120955,-6.804063051210461,-3.466302695079384,-0.8561940626381703,37.04200000001583
312280.0267,-11.18237703360618,-6.561025857799088,-2.8534013761313317,-1.1275336170729375,37.04300000000512
312280.0277,-9.076513063592252,-6.393186564195481,-2.6039537307694953,-1.5991799109174705,37.04399999999441
312280.0287,-6.971725818654688,-6.280638088213936,-2.6768027024326035,-2.2419892055649453,37.04500000004191
312280.0297,-4.874713919555566,-6.187463286565058,-3.0042989929215564,-3.006695016741788,37.0460000000312
312280.0307,-2.777566743889223,-6.064235142303503,-3.496463527169487,-3.826697277984079,37.04700000002049
312280.0317,-0.6611230448202373,-5.852231315705021,-4.0472829311939105,-4.6228333135660415,37.04800000000978
312280.0327,1.5001226384884354,-5.489010576388094,-4.542709495885514,-5.309753394748,37.04899999999907
312280.0337,3.732072876362248,-4.914846439231309,-4.869759792915235,-5.803348653315845,37.050000000046566
312280.0347,6.054668940509159,-4.07940862763372,-4.9259792721591715,-6.028555495874796,37.051000000035856
312280.0357,8.475810811904756,-2.948036877852333,-4.628477224177972,-5.9268013464250515,37.052000000025146
312280.0367,10.98623680874341,-1.5069694952365518,-3.921745017674416,-5.462368257289045,37.053000000014435
312280.0377,13.555966539215914,0.2330298467250748,-2.783551433915946,-4.627033465637334,37.054000000003725
312280.0387,16.132771073445607,2.2350663406499667,-1.2283562610087178,-3.4424921965676663,37.054999999993015
312280.0397,18.64294500042224,4.43676780192888,0.6921152938073957,-1.9602645075565115,37.05600000004051
312280.0407,20.994434299752978,6.753229080688513,2.891257081226887,-0.2590163059442946,37.0570000000298
312280.0417,23.08214293816746,9.082064087663072,5.252792455591331,1.5605368270131805,37.05800000001909
312280.0427,24.795022287848116,11.310182015030906,7.638433422055824,3.382748547279525,37.05900000000838
312280.0437,26.024362424023884,13.32173722541248,9.897397852549686,5.085597580458395,37.05999999999767
312280.0447,26.672571609385063,15.006584862765461,11.87703177603773,6.549956387124634,37.06100000004517
312280.0457,26.661663430778894,16.268518240626324,13.433687756543046,7.668776974904283,37.06200000003446
312280.0467,25.940677451636862,17.0325753459128,14.442989903303634,8.355400467319829,37.06300000002375
312280.0477,24.491339145267876,17.250779727410308,14.808673085956555,8.550273321319455,37.06400000001304
312280.0487,22.33141138110709,16.905818506916784,14.469312989876217,8.22549626765181,37.06500000000233
312280.0497,19.51538940279585,16.01234432747301,13.402452331152153,7.386828526244636,37.06599999999162
312280.0507,16.132425342839298,14.615801227664527,11.625858705756894,6.073000809345782,37.067000000039116
312280.0517,12.301614677129038,12.788896321990622,9.195899092138651,4.352433885836216,37.068000000028405
312280.0527,8.165012153253095,10.626048526508388,6.203261176542686,2.317691675848568,37.069000000017695
312280.0537,3.878946171227651,8.236322384801493,2.7664693444520885,0.07819674332305072,37.070000000006985
312280.0547,-0.3956508546447451,5.735482534072461,-0.9761866728908699,-2.2481172367470372,37.070999999996275
312280.0557,-4.503097019910226,3.237870608136242,-4.8755849193634315,-4.543460618431615,37.07200000004377
312280.0567,-8.302194049975485,0.8488055730698552,-8.780804045276227,-6.698387258772164,37.07300000003306
312280.0577,-11.674100232545674,-1.3418585687911153,-12.547529737276358,-8.618840054687116,37.07400000002235
312280.0587,-14.528239481936014,-3.264509768574321,-16.04521108583327,-10.231474808579836,37.07500000001164
312280.0597,-16.805831932223228,-4.872553531635026,-19.162499783334663,-11.48687700736139,37.07600000000093
312280.0607,-18.48085571708608,-6.14305126025439,-21.81069822062987,-12.360501436475333,37.07699999999022
312280.0617,-19.558486971492872,-7.0752939001209665,-23.92515167787165,-12.851391036784285,37.07800000003772
312280.0627,-20.071292450787833,-7.687579350832593,-25.464723211110226,-12.978946287152107,37.07900000002701
312280.0637,-20.07364460710773,-8.012626189402614,-26.409667064968488,-12.778198296839927,37.0800000000163
312280.0647,-19.634973988009545,-8.092172652656313,-26.758350315539005,-12.294169895305178,37.08100000000559
312280.0657,-18.83255512805652,-7.971367612604201,-26.523350742452884,-11.575976802726517,37.08199999999488
312280.0667,-17.74453287259819,-7.693554570590213,-25.727475518595575,-10.671319491918704,37.083000000042375
312280.0677,-16.443836590961237,-7.295982085405486,-24.400200666220165,-9.621946771040987,37.084000000031665
312280.0687,-14.993507307804292,-6.806852412895361,-22.574932263767877,-8.460542557224185,37.085000000020955
312280.0697,-13.443790940553777,-6.243957793908569,-20.28734960617412,-7.209312020091716,37.086000000010245
312280.0707,-11.831147937005445,-5.614968178057136,-17.574924647631317,-5.880341138496969,37.086999999999534
312280.0717,-10.179116965272174,-4.919244892257104,-14.47754023154548,-4.477596318095204,37.087999999988824
312280.0727,-8.500770002926602,-4.15088180882008,-11.038971368567333,-3.0002401262998992,37.08900000003632
312280.0737,-6.802328832496111,-3.30253712969191,-7.308867030967508,-1.4467856947936435,37.09000000002561
312280.0747,-5.087395667981138,-2.369529556064856,-3.3447889382595664,0.1804876701301677,37.0910000000149
312280.0757,-3.36119524444254,-1.3536418248314017,0.7861620509615219,1.8714707907389478,37.09200000000419
312280.0767,-1.6342375840777863,-0.26610575451260293,5.006568703737018,3.605093106512393,37.09299999999348
312280.0777,0.07511179606168931,0.8706669969809074,9.229117986314565,5.34760523842553,37.09400000004098
312280.0787,1.7395326736917935,2.022904502106801,13.358433546052476,7.0526034537507325,37.09500000003027
312280.0797,3.3233227021965153,3.146965480549818,17.294367394357888,8.662929858937055,37.09600000001956
312280.0807,4.784640987966945,4.192430530199265,20.936616915300576,10.114368302403465,37.09700000000885
312280.0817,6.079217834220191,5.106533738277329,24.190357566245705,11.340844673305144,37.09799999999814
312280.0827,7.165141240628429,5.839509084546757,26.972430903034777,12.2806539832906,37.099000000045635
312280.0837,8.00818568455139,6.350301596987205,29.217519268999087,12.883095520770818,37.100000000034925
312280.0847,8.587059318256554,6.61202393603145,30.883686006315997,13.114817348048309,37.101000000024214
312280.0857,8.897922555014105,6.616533474729541,31.956671247209393,12.965162348730136,37.102000000013504
312280.0867,8.957577910087636,6.377565131763374,32.45240966165297,12.449872721512612,37.103000000002794
312280.0877,8.804844538417404,5.931976643369447,32.41737270807581,11.612643587457587,37.103999999992084
312280.0887,8.499800860764392,5.338834761003346,31.926522368771238,10.524207462116633,37.10500000003958
312280.0897,8.12078871216649,4.676276864400105,31.078879191689374,9.278861953082686,37.10600000002887
312280.0907,7.75930189826507,4.036302760327827,29.990934160243274,7.988601065276956,37.10700000001816
312280.0917,7.513107853790885,3.5178642538564393,28.78834923299768,6.775251638569846,37.10800000000745
312280.0927,7.478150128930085,3.2188040103068953,27.596573595572597,5.761226619721248,37.10899999999674
312280.0937,7.739930788957485,3.2273313037179596,26.531132691564164,5.0596645977626284,37.11000000004424
312280.0947,8.365158971452278,3.613795871269062,25.688410532448444,4.76481358933305,37.11100000003353
312280.0957,9.39446435823369,4.4235235393846635,25.13773438601898,4.943526216763298,37.11200000002282
312280.0967,10.836908960640717,5.671406659464928,24.91548358731784,5.628660537550726,37.11300000001211
312280.0977,12.666891816993381,7.338803907501016,25.02178716183802,6.815031180253425,37.1140000000014
312280.0987,14.823840726004477,9.373109584671557,25.420161360335715,8.45834198566427,37.11499999999069
312280.0997,17.214841038138065,11.690119752876871,26.040186976237603,10.477273289295393,37.116000000038184
312280.1007,19.72008643695879,14.179072873254526,26.783060322867676,12.758618123658803,37.117000000027474
312280.1017,22.200775622515998,16.709999524700805,27.5295956510052,15.16508806031789,37.118000000016764
312280.1027,24.50884690183437,19.142802345276817,28.15003465120873,17.545166998116173,37.119000000006054
312280.1037,26.497762469921142,21.337324036124535,28.51485162349454,19.744203012163904,37.11999999999534
312280.1047,28.03344350019018,23.16356395321852,28.505646999168654,21.615812457161958,37.12100000004284
312280.1057,29.00442744816286,24.511182167017893,28.02520664589428,23.03263812112142,37.12200000003213
312280.1067,29.3303739690849,25.297486435626272,27.005871707889312,23.895557704973335,37.12300000002142
312280.1077,28.96818128296093,25.473227452101508,25.41550780702502,24.140575384471706,37.12400000001071
312280.1087,27.91517874862304,25.025719181022755,23.260570235001843,23.74283506022102,37.125
312280.1097,26.20911534152661,23.979036460128135,20.586014323296755,22.717449950541525,37.12599999998929
312280.1107,23.924944376135297,22.391299537509735,17.472074365513823,21.11712557213343,37.12700000003679
312280.1117,21.168686289203855,20.349311008990952,14.028205225900471,19.02683562766589,37.12800000002608
312280.1127,18.068907587118172,17.961041085121536,10.384723475560234,16.556066729280104,37.12900000001537
