TimeStamp,ECR,FCR,ECU,FCU,time_index
312288.9837,35.948123756199294,6.378009389712636,19.095873090522346,-2.939651773949019,46.0
312288.9847,24.351985322133718,-1.6994964776159025,9.658660603060786,-11.614741807125096,46.00099999998929
312288.9857,12.954751113603372,-9.447972888688803,0.5630742432671418,-19.7427702187397,46.00200000003679
312288.9867,2.1109500528342333,-16.613787937440357,-7.8981505606060765,-27.0730210229975,46.00300000002608
312288.9877,-7.835404648312214,-22.94956609362298,-15.442558480396027,-33.36604951679329,46.00400000001537
312288.9887,-16.56300602818126,-28.224010073337666,-21.808296505361604,-38.40291227062728,46.00500000000466
312288.9897,-23.785806230072648,-32.23236649311897,-26.764857960373767,-41.995047725610554,46.005999999993946
312288.9907,-29.265295198447596,-34.80692555067422,-30.123672819557953,-43.994232211425356,46.007000000041444
312288.9917,-32.821776711891545,-35.82684762173205,-31.74787995759593,-44.30192465297045,46.008000000030734
312288.9927,-34.34387715328958,-35.22656941214225,-31.560580801481244,-42.877258313089094,46.00900000002002
312288.9937,-33.79555144456375,-33.002067429321954,-29.55089863419392,-39.742949359558104,46.01000000000931
312288.9947,-31.219947751904904,-29.214349162331832,-25.777256048562688,-34.98847324125274,46.0109999999986
312288.9957,-26.73965420513571,-23.989698051412766,-20.367430967868362,-28.7700073559278,46.0120000000461
312288.9967,-20.553066669763933,-17.51640633672818,-13.51514934493794,-21.306842165353096,46.01300000003539
312288.9977,-12.926870445690424,-10.037974021577448,-5.473204924047406,-12.874206825749052,46.01400000002468
312288.9987,-4.184900115577326,-1.8430122952067418,3.456655842760151,-3.792719255276823,46.01500000001397
312288.9997,5.306092431024763,6.747656474419873,12.936603794387594,5.585068405702243,46.01600000000326
312289.0007,15.152994945941124,15.395985010122148,22.60765751779954,14.890322851799727,46.01699999999255
312289.0017,24.95426361927149,23.762880456446787,32.10581213216659,23.754887085621075,46.01800000004005
312289.0027,34.31815253276992,31.52457291946461,41.07839920647311,31.828524688633394,46.01900000002934
312289.0037,42.880134718098404,38.38813494674783,49.19967863673126,38.795386155506485,46.02000000001863
312289.0047,50.318453277164714,44.10515981727871,56.18470856942266,44.38866717585571,46.021000000007916
312289.0057,56.366871636073924,48.48273055379025,61.80065937442559,48.402543372133614,46.021999999997206
312289.0067,60.82389614118663,51.39100409715775,65.87492310230337,50.70065199275659,46.0230000000447
312289.0077,63.558005732986395,52.766980712804646,68.29960589410068,51.22063362990087,46.02400000003399
312289.0087,64.5087210376334,52.614307430622425,69.03225806610973,49.97452655930498,46.02500000002328
312289.0097,63.68365424483049,50.999253276936756,68.09297292060329,47.04510004638399,46.02600000001257
312289.0107,61.15197574987631,48.043269484129624,65.55824776178929,42.578497048684156,46.02700000000186
312289.0117,57.03498895194681,43.91278718594207,61.55222732187466,36.77380819692543,46.02799999999115
312289.0127,51.49469928643274,38.807088875267105,56.23612208064446,29.870397639436444,46.02900000003865
312289.0137,44.72138113605117,32.94520345569886,49.796697720134425,22.133931712775517,46.03000000002794
312289.0147,36.92117693317457,26.55280942813358,42.4347590038143,13.842113710782925,46.03100000001723
312289.0157,28.30470427656268,19.8500847429063,34.35450011783596,5.27109914961548,46.03200000000652
312289.0167,19.077504782492202,13.041320141981428,25.754469139572617,-3.3165403725416565,46.03299999999581
312289.0177,9.432955630457695,6.3069269058603155,16.82070835675397,-11.68161003097518,46.03400000004331
312289.0187,-0.45199931479571254,-0.2017632242251986,7.722401633187199,-19.615371172309647,46.035000000032596
312289.0197,-10.41823321329937,-6.3647675698483175,-1.389894094784473,-26.943692373523156,46.036000000021886
312289.0207,-20.323160899395916,-12.092915561492712,-10.383610579371327,-33.52832041895775,46.037000000011176
312289.0217,-30.037295559097206,-17.324871557773427,-19.141532088324595,-39.265566907726026,46.038000000000466
312289.0227,-39.439341808100146,-22.022284147527305,-27.557756981205028,-44.08291593217755,46.038999999989755
312289.0237,-48.41067065768542,-26.163769811868743,-35.532977477954695,-47.93421170897855,46.04000000003725
312289.0247,-56.83007684527606,-29.738508604916074,-42.96984876755832,-50.7941688582091,46.04100000002654
312289.0257,-64.56968190374083,-32.74022245591972,-49.769190188902556,-52.65295539650301,46.04200000001583
312289.0267,-71.49271992400784,-35.16222455803732,-55.8276561254251,-53.5115298767061,46.04300000000512
312289.0277,-77.45373868409528,-36.994079954040586,-61.037342386823106,-53.37827722976147,46.04399999999441
312289.0287,-82.30148589653359,-38.22021805018776,-65.28757176827718,-52.267297193096375,46.04500000004191
312289.0297,-85.88445404970143,-38.82060750529687,-68.46885194243067,-50.19847457546852,46.0460000000312
312289.0307,-88.05875667591219,-38.77336588714479,-70.4787447790657,-47.199225352048124,46.04700000002049
312289.0317,-88.69773377146566,-38.0589545722091,-71.22915427842969,-43.307591277505765,46.04800000000978
312289.0327,-87.70246238024619,-36.665425918556394,-70.65435440864228,-38.57617168768853,46.04899999999907
312289.0337,-85.01220303424854,-34.59406328827482,-68.71895785722249,-33.07625413686457,46.050000000046566
312289.0347,-80.61375958698348,-31.864697874740976,-65.42498531700288,-26.90144947745748,46.051000000035856
312289.0357,-74.54877582452865,-28.520005335199425,-60.81723792267192,-20.170158677652985,46.052000000025146
312289.0367,-66.91813422023844,-24.628178143824307,-54.986299877826966,-13.026296787979222,46.053000000014435
312289.0377,-57.88284790248589,-20.283527080495013,-48.06869294791608,-5.6378646932369225,46.054000000003725
312289.0387,-47.66112554270473,-15.604771488943191,-40.24395092523566,1.8068248398359068,46.054999999993015
312289.0397,-36.521613304550236,-10.731012003771811,-31.728656598740063,9.105215753117006,46.05600000004051
312289.0407,-24.77314742377761,-5.815617581438828,-22.767759395823717,16.048572859712554,46.0570000000298
312289.0417,-12.751654028622621,-1.0184765966950537,-13.623741651448542,22.431516971041756,46.05800000001909
312289.0427,-0.8050806419743115,3.5027628265974298,-4.564400845623301,28.062327168256925,46.05900000000838
312289.0437,10.722586940399609,7.6017232506417605,4.149855414954732,32.77319284445941,46.05999999999767
312289.0447,21.507093624508524,11.151816818730492,12.278257962962051,36.429562993533686,46.06100000004517
312289.0457,31.258366485706166,14.053505120973643,19.61056434740898,38.93778826492936,46.06200000003446
312289.0467,39.73266774428525,16.2396612498063,25.975805322194876,40.25037884433437,46.06300000002375
312289.0477,46.74167470745783,17.678567125243713,31.24830038657656,40.368396424487926,46.06400000001304
312289.0487,52.1579817958421,18.374297041585173,35.35059631611788,39.34074263145564,46.06500000000233
312289.0497,55.91682604721883,18.364480489966482,38.253252483551535,37.26037549361841,46.06599999999162
312289.0507,58.014150780161316,17.71567946809791,39.97166712509789,34.25775353867095,46.067000000039116
312289.0517,58.50141281022212,16.516833606569797,40.560383687800694,30.49204766076442,46.068000000028405
312289.0527,57.47778009099179,14.871398969542113,40.10551309593695,26.140850593554546,46.069000000017695
312289.0537,55.080537772385476,12.888916498645987,38.71603848799166,21.389234389745237,46.070000000006985
312289.0547,51.474607782930384,10.67678333494256,36.514822829635044,16.41904644640133,46.070999999996275
312289.0557,46.84208515162237,8.332961652599396,33.63011370667876,11.399291080484971,46.07200000004377
312289.0567,41.37260730257956,5.940249790058106,30.188238367092083,6.4783215046109115,46.07300000003306
312289.0577,35.25521268324166,3.5625710896658975,26.30801781399726,1.7783790435730948,46.07400000002235
312289.0587,28.672131375641825,1.2435245187728245,22.097219494836946,-2.6072183125038446,46.07500000001164
312289.0597,21.794706613133343,-0.9927905750402123,17.65113597995644,-6.614193896896135,46.07600000000093
312289.0607,14.781398476070951,-3.138891931390012,13.053145874261826,-10.204948463010652,46.07699999999022
312289.0617,7.777595167887055,-5.1993932739201005,8.376906373581836,-13.364154369693106,46.07800000003772
312289.0627,0.9167759088549812,-7.18542080544061,3.689664801526042,-16.092926978614855,46.07900000002701
312289.0637,-5.6775498372320214,-9.108639309575477,-0.9439252800516502,-18.402305387617,46.0800000000163
312289.0647,-11.889748706022642,-10.975585621649152,-5.45812997616878,-20.306811355849973,46.08100000000559
312289.0657,-17.610408333431796,-12.7829610575395,-9.783210161477255,-21.81881330178196,46.08199999999488
312289.0667,-22.7356145229365,-14.514421689823138,-13.843747262342147,-22.94430700060217,46.083000000042375
312289.0677,-27.167497252851255,-16.13923818845468,-17.55856122136009,-23.680548762833123,46.084000000031665
312289.0687,-30.8161855674668,-17.612992740104378,-20.84236534820589,-24.015759072492813,46.085000000020955
312289.0697,-33.60309789990118,-18.880260363576504,-23.60909022478155,-23.930877569262755,46.086000000010245
312289.0707,-35.46528793907494,-19.879008240970098,-25.77660310265198,-23.403118284797074,46.086999999999534
312289.0717,-36.36038989761824,-20.546261164049014,-27.272372009785414,-22.41087088666021,46.087999999988824
312289.0727,-36.27158078521682,-20.82444255032448,-28.039493740406698,-20.939339965818334,46.08900000003632
312289.0737,-35.21191554280218,-20.667722582258666,-28.04243579943764,-18.986225629575518,46.09000000002561
312289.0747,-33.227401357220735,-20.047695558317166,-27.271841706637595,-16.566733704321404,46.0910000000149
312289.0757,-30.398260310935264,-18.957768315745724,-25.74781734064876,-13.717264110791838,46.09200000000419
312289.0767,-26.837977339894643,-17.41576447490493,-23.521246720847223,-10.497255282232828,46.09299999999348
312289.0777,-22.689929112390033,-15.464422893634863,-20.672865968350692,-6.988847779804973,46.09400000004098
312289.0787,-18.121619406165294,-13.169675758174339,-17.31003633273306,-3.2942528771483284,46.09500000003027
312289.0797,-13.316784981324655,-10.616811595301709,-13.561380083611663,0.46905050030129886,46.09600000001956
312289.0807,-8.465858859488264,-7.904839403428725,-9.56965459888586,4.174938297738546,46.09700000000885
312289.0817,-3.755462634343845,-5.13955125168618,-5.483419058724278,7.696534091456733,46.09799999999814
312289.0827,0.6422732400691893,-2.425914233049552,-1.4481768299080366,10.91467741593679,46.099000000045635
312289.0837,4.579706140354996,0.1395046027958408,2.402258188661744,13.726193942930442,46.100000000034925
312289.0847,7.9421621520917105,2.4753720437128623,5.953428275924509,16.051189533640827,46.101000000024214
312289.0857,10.654168655417665,4.52103705032711,9.1162646626153,17.838661848828835,46.102000000013504
312289.0867,12.682876807478934,6.2400764184376145,11.830959543630094,19.069864621358864,46.103000000002794
312289.0877,14.038338701649847,7.621598454133206,14.068342175508004,19.759057974338354,46.103999999992084
312289.0887,14.770566625840377,8.679177346418681,15.82864946977423,19.951514908953254,46.10500000003958
312289.0897,14.963577041574556,9.447516899165514,17.137820029537185,19.718907129380085,46.10600000002887
312289.0907,14.726884685252536,9.977160718243294,18.041669806682467,19.152438878776398,46.10700000001816
312289.0917,14.18513838901596,10.327755948794044,18.598505910876085,18.354312151031444,46.10800000000745
312289.0927,13.466758715837052,10.560520928670059,18.87088372896606,17.42826998404059,46.10899999999674
312289.0937,12.692532210795168,10.730649703005563,18.917297048488404,16.47006067484354,46.11000000004424
312289.0947,11.965128451741956,10.880399925311734,18.784602801339588,15.558685003178011,46.11100000003353
312289.0957,11.360432098353039,11.033553406043172,18.50191950720911,14.749228329011602,46.11200000002282
312289.0967,10.921428508206708,11.191815275139035,18.07660654809562,14.067944538783307,46.11300000001211
312289.0977,10.655161241326631,11.33353945742133,17.4927415695371,13.510061021898746,46.1140000000014
312289.0987,10.533012126143307,11.41495121660334,16.71228256688339,13.040530852638165,46.11499999999069
312289.0997,10.494263210088787,11.37380195173138,15.678850496622795,12.597692146829823,46.116000000038184
312289.1007,10.452610921927445,11.13515917744173,14.323820507906657,12.099529492013376,46.117000000027474
312289.1017,10.305042172850092,10.618827499751259,12.574188002044883,11.451992837004612,46.118000000016764
312289.1027,9.942273557686827,9.747734049048022,10.361500394092872,10.558637520175493,46.119000000006054
312289.1037,9.25981732421293,8.456509852897986,7.631033242395463,9.330723203648907,46.11999999999534
312289.1047,8.168684000270282,6.699467087964444,4.350351201856081,7.69686137723546,46.12100000004284
312289.1057,6.604766535704312,4.457214574882637,0.5164341600539885,5.611335667477692,46.12200000003213
312289.1067,4.536071432132832,1.741266885353215,-3.8393361433574116,3.0603336394628986,46.12300000002142
312289.1077,1.9671576221812561,-1.4038240188524589,-8.648853757441808,0.06551286818724893,46.12400000001071
312289.1087,-1.0596040390406984,-4.9010673749631675,-13.807926260512204,-3.3154389881536175,46.125
312289.1097,-4.46605198535761,-8.64437215392146,-19.179911217428984,-6.991322301209318,46.12599999998929
312289.1107,-8.143343796374634,-12.504389930029504,-24.60212770373335,-10.842819433664927,46.12700000003679
312289.1117,-11.959688521944559,-16.336401564964934,-29.894575686416612,-14.730306520372189,46.12800000002608
312289.1127,-15.770005357567511,-19.989603514607253,-34.87029321517612,-18.503411686761737,46.12900000001537
312289.1137,-19.426647526450004,-23.317024096223818,-39.346537508580035,-22.011496794162095,46.13000000000466
312289.1147,-22.790244714688924,-26.18524427761824,-43.15590390324589,-25.114163744764188,46.130999999993946
312289.1157,-25.739718561755048,-28.483116414814926,-46.15650244112653,-27.690892315310684,46.132000000041444
312289.1167,-28.180612590612526,-30.12876581619405,-48.240394619779856,-29.649003233804052,46.133000000030734
312289.1177,-30.051041691829546,-31.074315216585095,-49.33964453024313,-30.929299036691692,46.13400000002002
312289.1187,-31.32479093119696,-31.30797646852277,-49.42954504373003,-31.508950752717418,46.13500000000931
312289.1197,-32.011357617713564,-30.85338779373811,-48.52882181218553,-31.40145011585265,46.1359999999986
312289.1207,-32.153009400530166,-29.766316959512487,-46.696873492443885,-30.65371111927253,46.1370000000461
312289.1217,-31.819198731979743,-28.129078384086277,-44.02835266823599,-29.340656698062396,46.13800000003539
312289.1227,-31.09890576099162,-26.043204630855264,-40.645606443244745,-27.5578430062349,46.13900000002468
312289.1237,-30.09165665571827,-23.62105272164614,-36.68965976778281,-25.41283554494413,46.14000000001397
312289.1247,-28.898067091131534,-20.977100972739546,-32.31052424205314,-23.016144083889113,46.14100000000326
312289.1257,-27.61078270870387,-18.21969660999471,-27.657642508253343,-20.472539325536417,46.14199999999255
312289.1267,-26.306628968626548,-15.443948933846563,-22.871232289026775,-17.873513323798033,46.14300000004005
312289.1277,-25.04064887235772,-12.726334559558449,-18.075180393401737,-15.291514793859031,46.14400000002934
312289.1287,-23.842512425666204,-10.121403399571879,-13.371967619779088,-12.776403216991866,46.14500000001863
312289.1297,-22.71554595061666,-7.660764315814053,-8.839897584082813,-10.354340876321881,46.146000000007916
312289.1307,-21.63837566141359,-5.354308348171423,-4.532676696373258,-8.029101894718789,46.146999999997206
312289.1317,-20.568932958598374,-3.193416583065191,-0.48117086813782456,-5.7855454744778525,46.1480000000447
312289.1327,-19.450352364950824,-1.1557192984791735,3.303031573273559,-3.5947993090818215,46.14900000003399
312289.1337,-18.21812733385825,0.789159961449281,6.822773285001019,-1.4205477556785873,46.15000000002328
312289.1347,-16.807789435008843,2.6735151150074405,10.089814107387271,0.7742681069333236,46.15100000001257
312289.1357,-15.162351042303202,4.525770512362749,13.119294573673697,3.0210474109075873,46.15200000000186
312289.1367,-13.238801457618493,6.3655861818706345,15.9247822637204,5.340076555438613,46.15299999999115
312289.1377,-11.0130646875149,8.200330026063313,18.514406375464045,7.736559017792769,46.15400000003865
312289.1387,-8.483000333855843,10.023231268815971,20.888436641834783,10.198488799051736,46.15500000002794
312289.1397,-5.669238408977444,11.813341466497999,23.038481433565565,12.696523987551103,46.15600000001723
312289.1407,-2.613862158574293,13.537233779203888,24.948286707891445,15.185801622164835,46.15700000000652
312289.1417,0.6228329912807063,15.15218842839162,26.595933453723834,17.60943141942231,46.15799999999581
312289.1427,3.9670931634240834,16.61046114900327,27.957076146243704,19.9032350540773,46.15900000004331
312289.1437,7.337427115349408,17.864127150542924,29.008754681226435,22.001176894376673,46.160000000032596
312289.1447,10.650676698476877,18.869945623766323,29.733258346833424,23.840873236367774,46.161000000021886
312289.1457,13.827813275042201,19.593703001977993,30.12152733552732,25.36857533003907,46.162000000011176
312289.1467,16.798897057245068,20.013564383330007,30.175643108679722,26.54309489074697,46.163000000000466
312289.1477,19.506754221654802,20.12208304573193,29.910075216062886,27.33827056075785,46.163999999989755
312289.1487,21.909087872083727,19.92667408900441,29.351505179206335,27.74374532448438,46.16500000003725
312289.1497,23.978925042300745,19.448532644629154,28.537220209605742,27.76401935692609,46.16600000002654
312289.1507,25.70349227702085,18.720150865008762,27.512241444633215,27.415939148071416,46.16700000001583
312289.1517,27.08178621459552,17.78174244084364,26.325503910892866,26.7249609327911,46.16800000000512
312289.1527,28.12124447503519,16.677002356994567,25.025521743831995,25.720665564499082,46.16899999999441
312289.1537,28.834011542575006,15.448700562060274,23.656039546986207,24.43208818940975,46.17000000004191
312289.1547,29.233325235828303,14.134623920754274,22.25218176527432,22.883450172822794,46.1710000000312
312289.1557,29.33051915414386,12.7643398037474,20.837565242257988,21.090839954198,46.17200000002049
312289.1567,29.13304910288734,11.35716143822388,19.422740539675498,19.060287857489367,46.17300000000978
312289.1577,28.643816935921993,9.921559611232146,18.00518551721724,16.787527666283648,46.17399999999907
312289.1587,27.861898503169353,8.456101792877528,16.570904986698952,14.259550566213818,46.175000000046566
312289.1597,26.784601858340604,6.951825457942185,15.097510803716432,11.457854139376412,46.176000000035856
312289.1607,25.410607470548673,5.395785742298628,13.558486514279219,8.363091522518225,46.177000000025146
312289.1617,23.74379324342189,3.775376306188551,11.928197825568859,4.960654340682546,46.178000000014435
312289.1627,21.797240475083036,2.082921653122955,10.18711029083457,1.2465959241315538,46.179000000003725
312289.1637,19.596864993234146,0.3199904132989701,8.326630054943644,-2.766767324238301,46.179999999993015
312289.1647,17.18412745346345,-1.4991116967614793,6.352998279478869,-7.046240355357725,46.18100000004051
312289.1657,14.617348693319107,-3.345143163350542,4.289744890002288,-11.534716851874427,46.1820000000298
312289.1667,11.971284077037735,-5.173376323064016,2.1783363873135277,-16.15019640872163,46.18300000001909
312289.1677,9.334782956732504,-6.9248883417186455,0.07682389188123118,-20.787136045880665,46.18400000000838
312289.1687,6.8065588969936,-8.52969954439706,-1.9435048712216123,-25.320203110274235,46.18499999999767
312289.1697,4.4893031671137535,-9.9115707247711,-3.8032614175462647,-29.610264617987664,46.18600000004517
312289.1707,2.4825670238781568,-10.994088682226284,-5.421480613086477,-33.51222392518477,46.18700000003446
312289.1717,0.8749972675106673,-11.70751746020659,-6.722974558700203,-36.884121246731304,46.18800000002375
312289.1727,-0.26338275879704537,-11.99578746414029,-7.645847625865136,-39.59676933773568,46.18900000001304
312289.1737,-0.8881105844700758,-11.82294738040418,-8.148454584481433,-41.5431145041723,46.19000000000233
312289.1747,-0.985730439237159,-11.178420661925836,-8.215101271059256,-42.646504955723294,46.19099999999162
312289.1757,-0.5771333932154163,-10.080489221391188,-7.859871650326575,-42.86711546675794,46.192000000039116
312289.1767,0.2816637229043818,-8.57756563966213,-7.128110059180904,-42.20591442599089,46.193000000028405
312289.1777,1.5015481420345829,-6.746999804658235,-6.095280775082767,-40.705755084349526,46.194000000017695
312289.1787,2.96515793628629,-4.6913800793391305,-4.863152062461787,-38.44941007206636,46.195000000006985
312289.1797,4.5343046898207735,-2.532513496013494,-3.5534886392273135,-35.554626012237016,46.195999999996275
312289.1807,6.059494442794791,-0.403483529826116,-2.299663866395053,-32.16653025166479,46.19700000004377
312289.1817,7.390867216614034,1.5606321311587128,-1.2368002819944026,-28.44795139857078,46.19800000003306
312289.1827,8.389726873040845,3.2326650228548313,-0.4911962096609719,-24.568398735518265,46.19900000002235
312289.1837,8.939752428001176,4.503085987950646,-0.16988300077345295,-20.692565996256917,46.20000000001164
312289.1847,8.95697772974628,5.288759922491387,-0.35117332668997414,-16.96927141142814,46.20100000000093
312289.1857,8.397700371953604,5.539985715589639,-1.07700333153985,-13.521713929564166,46.20199999999022
312289.1867,7.263627644143644,5.245209626997233,-2.3477443562320777,-10.43981773506651,46.20300000003772
312289.1877,5.603775491082426,4.4329826269574575,-4.119973472507943,-7.775263038188744,46.20400000002701
312289.1887,3.5128886102150214,3.170953469267907,-6.30746162940129,-5.539575955507987,46.2050000000163
312289.1897,1.1264247151820632,1.561930336727692,-8.785383162563214,-3.7053940031108277,46.20600000000559
312289.1907,-1.3875797281380309,-0.2627161722082176,-11.39749234073285,-2.21075886175317,46.20699999999488
312289.1917,-3.839194737912927,-2.1518180414669197,-13.965773457283003,-0.9660378717039297,46.208000000042375
312289.1927,-6.029060639548814,-3.944675205713475,-16.30187107092252,0.13713803050983922,46.209000000031665
312289.1937,-7.7617161667643435,-5.482033013216576,-18.21946335294046,1.2156910890208479,46.210000000020955
312289.1947,-8.858809572240613,-6.6169294660514835,-19.546666271063216,2.3845299360328225,46.211000000010245
312289.1957,-9.171225060260578,-7.224586970312495,-20.137555812894217,3.7464759281292856,46.211999999999534
312289.1967,-8.589249580733885,-7.210609693246653,-19.88196948470852,5.383498204730178,46.212999999988824
312289.1977,-7.050068649464534,-6.51689544707763,-18.71289036350075,7.3499421396754405,46.21400000003632
312289.1987,-4.542099990440789,-5.124867064822039,-16.610914630384553,9.668247576211435,46.21500000002561
312289.1997,-1.105931139967937,-3.055855054582044,-13.605539583943685,12.327425109742881,46.2160000000149
312289.2007,3.1681007993816133,-0.3687007989097814,-9.773263133184262,15.284311694648304,46.21700000000419
312289.2017,8.145386059184558,2.845123297429193,-5.232735695190793,18.467383554813637,46.21799999999348
312289.2027,13.655043463086754,6.468383527391515,-0.1374296896568698,21.782686846380948,46.21900000004098
312289.2037,19.499734476592977,10.366302080044374,5.333528798651804,25.121274328737304,46.22000000003027
312289.2047,25.466466202375383,14.395390549663501,10.985602254541941,28.367424706186856,46.22100000001956
312289.2057,31.33752314454821,18.412147521126006,16.619344195415657,31.406879819611923,46.22200000000885
312289.2067,36.90070907864384,22.280915652866696,22.040371266589155,34.13436633844719,46.22299999999814
312289.2077,41.95819431538468,25.880304654899273,27.068106648027836,36.45976890113991,46.224000000045635
312289.2087,46.333437794846326,29.107749504912846,31.542747845357884,38.312480038752,46.225000000034925
312289.2097,49.875869850984905,31.881971899170157,35.33010682224279,39.64365235193071,46.226000000024214
312289.2107,52.463258216877044,34.14332766070788,38.32418913458019,40.4262999343605,46.227000000013504
312289.2117,54.001913126684926,35.85223250714735,40.447599463896964,40.65341656778073,46.228000000002794
312289.2127,54.42509395511606,36.98604268502961,41.650061985660805,40.33447559729495,46.228999999992084
312289.2137,53.69013931487091,37.534907606548764,41.90550585208991,39.490830934891136,46.23000000003958
312289.2147,51.77493942363165,37.49719530300845,41.20827342517274,38.150635106522564,46.23100000002887
312289.2157,48.67439487027604,36.875110549379684,39.56905221171411,36.343919453449686,46.23200000001816
312289.2167,44.397458088596046,35.67107879268185,37.011107861302136,34.0984412873558,46.23300000000745
312289.2177,38.96523889446591,33.88536208235245,33.56730915854916,31.43679792906042,46.23399999999674
312289.2187,32.41048632182362,31.51521769810011,29.278297209046755,28.375149733847554,46.23500000004424
312289.2197,24.778554286170017,28.555722640982182,24.191975857116983,24.923700459834297,46.23600000003353
312289.2207,16.129740604502853,25.002187336431916,18.36430832030894,21.088874367421496,46.23700000002282
312289.2217,6.542681325118513,20.853890713233813,11.861217245980356,16.876927459911496,46.23800000001211
312289.2227,-3.881692120662362,16.118706235169977,4.761222488168674,12.298556718405084,46.2390000000014
312289.2237,-15.0162473720959,10.818071449224703,-2.841669229731487,7.373944485198325,46.23999999999069
312289.2247,-26.704467039645866,4.991694435180638,-10.835372609213868,2.137608848225752,46.241000000038184
312289.2257,-38.75863757695873,-1.2986045131574908,-19.087980349317515,-3.357567788478248,46.242000000027474
312289.2267,-50.95997099360714,-7.966448896969253,-27.447354595300446,-9.037690621151112,46.243000000016764
312289.2277,-63.06106229462468,-14.90026698475415,-35.7424180874015,-14.807013487132226,46.244000000006054
312289.2287,-74.79087807552172,-21.964695241244872,-43.78634237371832,-20.549160042547594,46.24499999999534
312289.2297,-85.86223399042916,-29.004065112162387,-51.381634608735055,-26.130449188185395,46.24600000004284
312289.2307,-95.98147438961485,-35.84781072506116,-58.32692068467637,-31.40515409909074,46.24700000003213
312289.2317,-104.85984076245103,-42.317445721605274,-64.42503220028905,-36.222323895827756,46.24800000002142
312289.2327,-112.22582962476395,-48.23460134436916,-69.49184828862633,-40.43363194980127,46.24900000001071
312289.2337,-117.83771414711707,-53.429510846672,-73.36523746628559,-43.90160223493385,46.25
312289.2347,-121.49535027711326,-57.74927796305204,-75.91340115114079,-46.50751677625404,46.25099999998929
312289.2357,-123.05041332837011,-61.065284071407255,-77.0419446540601,-48.1583281876439,46.25200000003679
312289.2367,-122.41431318648978,-63.27916767833005,-76.69909164766268,-48.79198943081789,46.25300000002608
312289.2377,-119.56320605689704,-64.3269424981094,-74.87860590997414,-48.38075920861655,46.25400000001537
312289.2387,-114.53974211972763,-64.18099278800996,-71.62017515876705,-46.93223079292217,46.25500000000466
312289.2397,-107.45144070979433,-62.84987894447,-67.00722722447196,-44.488045168606384,46.255999999993946
312289.2407,-98.46584405644563,-60.376082830620476,-61.16236736850913,-41.12046441025515,46.257000000041444
312289.2417,-87.80284312965867,-56.83200112725238,-54.2408256760198,-36.92717640400144,46.258000000030734
312289.2427,-75.72477262740107,-52.314638507357515,-46.42246550691805,-32.024857783024096,46.25900000002002
312289.2437,-62.525018568258645,-46.93954683840791,-37.903012264603944,-26.542122843919483,46.26000000000931
312289.2447,-48.51595904769879,-40.83459334916969,-28.885206001517535,-20.612522540448687,46.2609999999986
312289.2457,-34.0170610474123,-34.134117195333616,-19.570557848051415,-14.368226326065091,46.2620000000461
312289.2467,-19.34388557453077,-26.973953719716757,-10.152301931352662,-7.934924419569641,46.26300000003539
312289.2477,-4.798618621596732,-19.48767823336135,-0.8099907774978276,-1.428339205598515,46.26400000002468
312289.2487,9.337438751306399,-11.80426034606331,8.294001952021052,5.047452483884095,46.26500000001397
312289.2497,22.809202239654173,-4.047143000429496,17.016013318254732,11.399890186573112,46.26600000000326
312289.2507,35.390961671333685,3.665413827841383,25.23080599202981,17.54620099471057,46.26699999999255
312289.2517,46.88757620876652,11.21903790840976,32.82980090789717,23.41045827493748,46.26800000004005
312289.2527,57.13409370738258,18.50142695917225,39.71830962635455,28.919952939516453,46.26900000002934
312289.2537,65.99430321500893,25.400503271449598,45.812341449053626,34.00148357044471,46.27000000001863
312289.2547,73.35878936460615,31.803044642375127,51.035589714466525,38.578187491422526,46.271000000007916
312289.2557,79.14304930716428,37.59424559847398,55.31716411264687,42.567482768252944,46.271999999997206
312289.2567,83.28615886200731,42.658558597213094,58.590534798611706,45.8805754983973,46.2730000000447
312289.2577,85.75034356091317,46.88201624922873,60.79399954583131,48.42381849964174,46.27400000003399
312289.2587,86.52163703449821,50.15605740776203,61.87279274450631,50.102002991092064,46.27500000002328
312289.2597,85.61161304744519,52.38269036638819,61.7827444093246,50.823444392227934,46.27600000001257
312289.2607,83.05998031213075,53.4806451212143,60.49519040938282,50.50650924910598,46.27700000000186
312289.2617,78.93765320412902,53.3920130449744,58.002653769245505,49.08704461587794,46.27799999999115
312289.2627,73.34977689489108,52.088763401502234,54.32468079073017,46.52603361914562,46.27900000003865
312289.2637,66.43810832177107,49.57847479953508,49.513140316117216,42.81672660165218,46.28000000002794
312289.2647,58.38214510584875,45.90863334154583,43.656289194238454,37.990495320596786,46.28100000001723
312289.2657,49.39845628976565,41.16892890444146,36.88097446236283,32.120730251995255,46.28200000000652
312289.2667,39.73779746707152,35.49112114506673,29.35247815036795,25.324242855187773,46.28299999999581
312289.2677,29.679777280390287,29.04623574549818,21.271702257112572,17.759833478638402,46.28400000004331
312289.2687,19.52506509974473,22.039072281032777,12.869621811935005,9.623923426707139,46.285000000032596
312289.2697,9.585369303290351,14.70023754832743,4.3991813267017985,1.1434044411771105,46.286000000021886
312289.2707,0.17164808245049532,7.276140281052145,-3.8749493769558425,-7.433893606630137,46.287000000011176
312289.2717,-8.418783652747097,0.01757349894014537,-11.68813347867035,-15.850499376338032,46.288000000000466
312289.2727,-15.915438057976402,-6.8323494602825265,-18.788253654694117,-23.85157888469745,46.288999999989755
312289.2737,-22.087234431762653,-13.050064077898817,-24.94804852733993,-31.197317623266517,46.29000000003725
312289.2747,-26.753578397607967,-18.442385585739164,-29.976405561568097,-37.67450817958086,46.29100000002654
312289.2757,-29.793120973445507,-22.855530218214046,-33.727781056418486,-43.10650666828747,46.29200000001583
312289.2767,-31.149531480973494,-26.181695465992664,-36.10905622232552,-47.36085686700979,46.29300000000512
312289.2777,-30.83383358873319,-28.362763925912898,-37.083338423508984,-50.35407827692451,46.29399999999441
312289.2787,-28.92311202669646,-29.39092906684371,-36.67046005574826,-52.05335463577561,46.29500000004191
312289.2797,-25.5556750269347,-29.306291109966644,-34.94419159972199,-52.47511981143621,46.2960000000312
312289.2807,-20.923028683638364,-28.19171401351176,-32.02644557572496,-51.680793761558945,46.29700000002049
312289.2817,-15.259259073555254,-26.16544773418653,-28.07898036473266,-49.77014825756835,46.29800000000978
312289.2827,-8.8286040717907,-23.372183940881442,-23.293295973651702,-46.872959279934484,46.29899999999907
312289.2837,-1.9121125245684611,-19.973313497048427,-17.87953158794503,-43.13971446395981,46.300000000046566
312289.2847,5.205676104472973,-16.137181939909972,-12.05521746773012,-38.73218044981178,46.301000000035856
312289.2857,12.249145361377712,-12.030093602402449,-6.034699099244553,-33.81459472523826,46.302000000025146
312289.2867,18.962345673857598,-7.808701847033714,-0.01994473623691914,-28.546135396605997,46.303000000014435
312289.2877,25.117491725951968,-3.6142545173640785,5.8067193207258,-23.075153036976197,46.304000000003725
312289.2887,30.52086669397125,0.43104222113292473,11.287610440430127,-17.53543961715101,46.304999999993015
312289.2897,35.01603739790471,4.225500961945614,16.2923230231919,-12.044582423983718,46.30600000004051
312289.2907,38.48453087037868,7.687447095656604,20.718115895765806,-6.704229091487637,46.3070000000298
312289.2917,40.84434106491609,10.753095434150897,24.488379410513165,-1.601895747834775,46.30800000001909
312289.2927,42.04680366822376,13.37331917485146,27.549667419592012,3.186197000817413,46.30900000000838
312289.2937,42.07248175476618,15.50990609089988,29.8678804741547,7.5918617945822415,46.30999999999767
312289.2947,40.92673657126939,17.13191554202885,31.424221082971144,11.551874922696287,46.31100000004517
312289.2957,38.63561484935596,18.212701522772853,32.21150817148599,15.005666199200443,46.31200000003446
312289.2967,35.24257309100526,18.7280576033757,32.23134146108244,17.894219645396692,46.31300000002375
312289.2977,30.80639351549382,18.655781483492838,31.492459077173685,20.160470294482213,46.31400000001304
312289.2987,25.400444563973863,17.97676702762599,30.010450057984528,21.751283696338195,46.31500000000233
312289.2997,19.1132233755871,16.677530264510295,27.80878761616137,22.620894403633855,46.31599999999162
312289.3007,12.0499121292453,14.753884185508731,24.920960265846205,22.73548022200105,46.317000000039116
312289.3017,4.334507144996529,12.215315509368052,21.393316591439127,22.07838161826742,46.318000000028405
312289.3027,-3.888041667989498,9.089502074196622,17.288122835160056,20.655358519126768,46.319000000017695
312289.3037,-12.450299200696035,5.426354579790229,12.686273231131931,18.49922288739811,46.320000000006985
312289.3047,-21.16202269213097,1.3009774288516607,7.689097756359317,15.673201658822057,46.320999999996275
312289.3057,-29.811560648984223,-3.1849798539766554,2.4187807321340573,12.272470517540228,46.32200000004377
312289.3067,-38.16933186320882,-7.903973599492316,-2.98297007245435,8.423447179829903,46.32300000003306
312289.3077,-45.99353998136753,-12.705430817440543,-8.358192992955326,4.280629589477678,46.32400000002235
312289.3087,-53.0380459198401,-17.420829335031424,-13.537870811642104,0.020990945057333815,46.32500000001164
312289.3097,-59.062080621160234,-21.870776757943645,-18.34884123825653,-4.1638221413304235,46.32600000000093
312289.3107,-63.84125851565614,-25.873667233882877,-22.622009338463027,-8.077022736349905,46.32699999999022
312289.3117,-67.17917054948326,-29.255324156053643,-26.201291270800166,-11.527299724598715,46.32800000003772
312289.3127,-68.91871409865723,-31.85891689128491,-28.952608058437256,-14.33974122042695,46.32900000002701
312289.3137,-68.95226928656133,-33.55438265007357,-30.77219924910008,-16.366230031732393,46.3300000000163
312289.3147,-67.2298639948967,-34.24659703163036,-31.593545208252532,-17.49449128112702,46.33100000000559
312289.3157,-63.76458239054428,-33.88161828134882,-31.3922729258351,-17.655061935947096,46.33199999999488
312289.3167,-58.63465565728921,-32.450474048528235,-30.188566610590804,-16.825608461107745,46.333000000042375
312289.3177,-51.98191355906744,-29.990152710809884,-28.046798233542606,-15.032228263373959,46.334000000031665
312289.3187,-44.00655079794995,-26.58168676907229,-25.072317248132386,-12.347614225972285,46.335000000020955
312289.3197,-34.95844871664431,-22.345453040333716,-21.40557273784675,-8.886217421238934,46.336000000010245
312289.3207,-25.12556535450891,-17.434041924703124,-17.213963993784212,-4.79678789336476,46.336999999999534
312289.3217,-14.820140939382586,-12.023245340182555,-12.682006737706663,-0.25288511739368746,46.337999999988824
312289.3227,-4.363640673454893,-6.301862253293678,-8.000544438711351,4.5578906559899375,46.33900000003632
312289.3237,5.928543507514821,-0.4611087593596721,-3.3558143962913927,9.445101654635746,46.34000000002561
312289.3247,15.761594643703496,5.315561302635071,1.0808109560568657,14.226246977516855,46.3410000000149
312289.3257,24.87400795240665,10.861470540485092,5.161646913093173,18.73630130060619,46.34200000000419
312289.3267,33.04774451263223,16.03392895779317,8.769448201541433,22.835337582169963,46.34299999999348
312289.3277,40.11519769125231,20.71917450998902,11.821633890437672,26.413737768207085,46.34400000004098
312289.3287,45.96263122353391,24.83478537944979,14.27174804199393,29.39472031938316,46.34500000003027
312289.3297,50.530034888836454,28.32953437468121,16.108155919967505,31.73415780349375,46.34600000001956
312289.3307,53.80763006954714,31.180882201471466,17.350210888155424,33.417899251783226,46.34700000000885
312289.3317,55.82951828656662,33.3905100565703,18.042339549093825,34.45702830778766,46.34799999999814
312289.3327,56.66517859915099,34.978454549487445,18.2466632641842,34.881659696252775,46.349000000045635
312289.3337,56.409666445171005,35.97651473385574,18.03488771693049,34.73398775158514,46.350000000034925
312289.3347,55.17343495302287,36.42164261299178,17.48023844434087,34.06134188370578,46.351000000024214
312289.3357,53.07268489734077,36.350001554079455,16.650195091994245,32.909971713105875,46.352000000013504
312289.3367,50.221053727102735,35.792284701275385,15.600682825705183,31.320182855689072,46.353000000002794
312289.3377,46.723287213902246,34.77073698464527,14.372224479472923,29.323283240780288,46.353999999992084
312289.3387,42.67131546645525,33.298134283954944,12.988355918866443,26.940595323410413,46.35500000003958
312289.3397,38.14289957582017,31.378760335483904,11.4563784834613,24.184561731579514,46.35600000002887
312289.3407,33.20275033180775,29.011206951969598,9.770287765827748,21.06174322965081,46.35700000001816
312289.3417,27.905771468921134,26.192627239444047,7.915499736099879,17.57730104166429,46.35800000000745
312289.3427,22.301870420442782,22.923914163671967,5.874814394407582,13.740391235083345,46.35899999999674
312289.3437,16.44162945055485,19.21517379229067,3.6349314585088903,9.56979365411475,46.36000000004424
312289.3447,10.382053431931153,15.090824295367597,1.1927746806314627,5.099062723681527,46.36100000003353
312289.3457,4.191614430175257,10.593682433002499,-1.4391026057880023,0.3805263454455354,46.36200000002282
312289.3467,-2.0461032341605474,5.787496045210758,-4.22866919651176,-4.512431279061446,46.36300000001211
312289.3477,-8.23069935261749,0.7575345876052949,-7.122609855812841,-9.485197229361345,46.3640000000014
312289.3487,-14.245527884685337,-4.390955139145339,-10.046842515755472,-14.424048788948273,46.36499999999069
312289.3497,-19.96062922447422,-9.536403686877808,-12.909406169830477,-19.200508910111676,46.366000000038184
312289.3507,-25.237859853366253,-14.546442147594147,-15.605525584601448,-23.67764900825285,46.367000000027474
312289.3517,-29.937816992896927,-19.284855975818292,-18.02443428223514,-27.717840543378387,46.368000000016764
312289.3527,-33.92795788096219,-23.619377229464682,-20.0573515126992,-31.191294044283584,46.369000000006054
312289.3537,-37.091174688283154,-27.429626067979296,-21.605880840963515,-33.984624911871784,46.36999999999534
312289.3547,-39.334020762743265,-30.614483005267243,-22.59004065730426,-36.008660231140404,46.37100000004284
312289.3557,-40.59379844426398,-33.0982151510763,-22.9551566157525,-37.20475331145199,46.37200000003213
312289.3567,-40.843811817599395,-34.83478887075482,-22.676941403957574,-37.54899841537886,46.37300000002142
312289.3577,-40.09625037001992,-35.80996756957504,-21.764249568721404,-37.05392543226381,46.37400000001071
312289.3587,-38.40238562439562,-36.04100052153701,-20.25920893716139,-35.76748517373652,46.375
312289.3597,-35.85001115469239,-35.573936484117844,-18.234674878198696,-33.769388088996514,46.37599999998929
312289.3607,-32.55831248564424,-34.47882175209704,-15.789205451572338,-31.165107791618958,46.37700000003679
312289.3617,-28.670591969007713,-32.84324382956636,-13.03998974173141,-28.078081271190186,46.37800000002608
312289.3627,-24.34547126897028,-30.764838850216154,-10.114355302861668,-24.640808035520966,46.37900000001537
312289.3637,-19.747331095610438,-28.343477386954355,-7.14061447504042,-20.985653500089633,46.38000000000466
312289.3647,-15.036810833915789,-25.67386944703515,-4.239070042429625,-17.236187080753968,46.380999999993946
312289.3657,-10.362173647581987,-22.83928232342785,-1.5139821918855543,-13.499829704071816,46.382000000041444
312289.3667,-5.852247425558111,-19.90694897723537,0.9527972239144826,-9.862453913084583,46.383000000030734
312289.3677,-1.6114883507840077,-16.925571104563247,3.105980997655631,-6.385385083885352,46.38400000002002
312289.3687,2.2825014783782707,-13.925107162688816,4.918466849629555,-3.105013505634147,46.38500000000931
312289.3697,5.778916270299266,-10.918802671591882,6.390340812219277,-0.03496771832052351,46.3859999999986
312289.3707,8.851313078024175,-7.907191309627767,7.545434442501696,2.82945481225904,46.3870000000461
312289.3717,11.49319780038963,-4.883593542181869,8.42583923622083,5.5051276699724125,46.38800000003539
312289.3727,13.71221356399956,-1.8404849170792097,9.08497257908222,8.01390568410624,46.38900000002468
312289.3737,15.523640749800807,1.2239858423360557,9.579920471842545,10.37520697428015,46.39000000001397
312289.3747,16.943970679691983,4.300069058237889,9.963840903021966,12.599190871419573,46.39100000000326
312289.3757,17.985289508433365,7.361763226711526,10.279193247895462,14.681296235522604,46.39199999999255
312289.3767,18.651108488663663,10.364005670751695,10.552466286206077,16.59876911954931,46.39300000004005
312289.3777,18.934112319623118,13.242090912533353,10.790920482441557,18.30961038049894,46.39400000002934
312289.3787,18.816085894409607,15.913485539802238,10.981655314271036,19.754132074768737,46.39500000001863
312289.3797,18.270043054526543,18.281973019761416,11.09308028583988,20.85904976387227,46.396000000007916
312289.3807,17.264342814609105,20.243831315995596,11.078631661421014,21.543781435987583,46.396999999997206
312289.3817,15.768362630957538,21.695542230226497,10.882358662182883,21.728397160137007,46.3980000000447
312289.3827,13.75912584325711,22.54237328932895,10.445823362270733,21.342488337953952,46.39900000003399
312289.3837,11.228168079487517,22.707075364102906,9.715634096708902,20.33411797898756,46.40000000002328
312289.3847,8.187885789069046,22.137910860567924,8.650873547150988,18.677983780255552,46.40100000001257
312289.3857,4.676642819989579,20.815270570776097,7.229694059368815,16.381976601951795,46.40200000000186
312289.3867,0.7620145798801277,18.756247810050752,5.454431787279512,13.491443414950478,46.40299999999115
312289.3877,-3.458286384293209,16.016705917182527,3.3547293519474466,10.090654275874892,46.40400000003865
312289.3887,-7.8580504166652805,12.69058413523578,0.9883400049774287,6.301209960236173,46.40500000002794
312289.3897,-12.286789324119793,8.90641834927433,-1.560502878207054,2.27738908514419,46.40600000001723
312289.3907,-16.57630937794411,4.821286369075131,-4.185048558504519,-1.8013026612891592,46.40700000000652
312289.3917,-20.54919672042071,0.6126017459741887,-6.762015214749829,-5.7398766667720675,46.40799999999581
312289.3927,-24.028594445515548,-3.5316432109840123,-9.159115432593625,-9.339195681113907,46.40900000004331
312289.3937,-26.848527375885183,-7.423460622982496,-11.243506986365595,-12.40805670494413,46.410000000032596
312289.3947,-28.86397373435679,-10.885490873057638,-12.890482118587991,-14.77511475271087,46.411000000021886
312289.3957,-29.95989723177393,-13.760888002098422,-13.991697714521633,-16.29975083775879,46.412000000011176
312289.3967,-30.058536684460226,-15.92175991848281,-14.462299639441841,-16.88107410709313,46.413000000000466
312289.3977,-29.124394896052927,-17.275587390130486,-14.246401061213236,-16.46440168549183,46.413999999989755
312289.3987,-27.166560428251575,-17.769222318640377,-13.32052588391161,-15.04476616368861,46.41500000003725
312289.3997,-24.238217092621298,-17.390271624130317,-11.694809677599524,-12.667240967987508,46.41600000002654
312289.4007,-20.433426092592352,-16.16588928507781,-9.411944475586349,-9.424126506181976,46.41700000001583
312289.4017,-15.881483749987742,-14.159206116484892,-6.544042477954792,-5.449282654835173,46.41800000000512
312289.4027,-10.739344090736692,-11.463806317877832,-3.1877598648780814,-0.9101047706624225,46.41899999999441
312289.4037,-5.182733891821957,-8.196796110392093,0.5418491508410572,4.00219689500735,46.42000000004191
312289.4047,0.6033335109058279,-4.491091619068978,4.518197151226631,9.083253782098351,46.4210000000312
312289.4057,6.4339261154505545,-0.48757456975988167,8.610169902229984,14.126339356881518,46.42200000002049
312289.4067,12.132775060556247,3.6722747564315323,12.68872565964095,18.932558871024717,46.42300000000978
312289.4077,17.539512631164158,7.852751814610869,16.632617948514284,23.31977570798886,46.42399999999907
312289.4087,22.515164944953405,11.928931635974322,20.332892619340043,27.129774641054862,46.425000000046566
312289.4097,26.945683640621663,15.790091065002798,23.69595785558729,30.233350628332957,46.426000000035856
312289.4107,30.743497230031025,19.341515821419904,26.645185307622626,32.533215722280964,46.427000000025146
312289.4117,33.84724974951955,22.504828900323638,29.121154718151814,33.96481580045366,46.428000000014435
312289.4127,36.22005333917729,25.217121973582792,31.080787144959224,34.49532373238119,46.429000000003725
312289.4137,37.84669691613791,27.42927709192401,32.49570951303853,34.12120990140323,46.429999999993015
312289.4147,38.73031440722961,29.103921890586363,33.350245977173635,32.864872946563295,46.43100000004051
312289.4157,38.889018061947304,30.213462846309618,33.639434609705475,30.770837177874974,46.4320000000298
312289.4167,38.35294643684822,30.738588959053534,33.367421839681455,27.9019886176693,46.43300000001909
312289.4177,37.162070093742976,30.6675393007207,32.54649781560948,24.336235432720844,46.43400000000838
312289.4187,35.36495358156869,29.996293935976073,31.196914133035285,20.163852411506134,46.43499999999767
312289.4197,33.018506578751484,28.729694269992315,29.34748545289478,15.48561892692358,46.43600000004517
312289.4207,30.188589146209843,26.883343525831528,27.036834831921702,10.411703670359296,46.43700000003446
312289.4217,26.951185197428593,24.485998694735038,24.3150158676544,5.061105926982956,46.43800000002375
312289.4227,23.393742184858603,21.582058251311523,21.245148416350805,-0.4386506743822657,46.43900000001304
312289.4237,19.61620778430904,18.233688211650794,17.904651035894144,-5.951946442327585,46.44000000000233
312289.4247,15.731285177196181,14.522121092013666,14.385650426409486,-11.33600852969594,46.44099999999162
312289.4257,11.863480495340463,10.54771075160596,10.794198674143894,-16.44272357920595,46.442000000039116
312289.4267,8.146625733761596,6.428427743274954,7.248030017452714,-21.121585067497424,46.443000000028405
312289.4277,4.719718291768385,2.296625648992166,3.872731550892572,-25.22390627945842,46.444000000017695
312289.4287,1.7211091437256474,-1.7059150279355684,0.7963733223582101,-28.608265813057788,46.445000000006985
312289.4297,-0.7187237269430654,-5.434470120427228,-1.8571743932452216,-31.14697606797503,46.445999999996275
312289.4307,-2.4853829836134067,-8.749005094791004,-3.975834257016671,-32.73319585196089,46.44700000004377
312289.4317,-3.4891391311188973,-11.522425842402537,-5.467275272197675,-33.28816554008449,46.44800000003306
312289.4327,-3.673176268232842,-13.64880277548705,-6.266572381496342,-32.76794454172056,46.44900000002235
312289.4337,-3.0207196516701535,-15.05086967094318,-6.342871688468802,-31.168989595746147,46.45000000001164
312289.4347,-1.5602855664734792,-15.686109708897872,-5.704379701626054,-28.531936576868926,46.45100000000093
312289.4357,0.6316133748940106,-15.550819257498983,-4.40108133363193,-24.943039557518556,46.45199999999022
312289.4367,3.4308113776271987,-14.681680226689659,-2.524740352142011,-20.532873555846667,46.45300000003772
312289.4377,6.66916362834492,-13.154563012246994,-0.20593650544069791,-15.472110018763072,46.45400000002701
312289.4387,10.141572590895672,-11.080507646669052,2.3918708294098447,-9.964409544083734,46.4550000000163
312289.4397,13.61610846290495,-8.599070497590072,5.081012287222133,-4.236723708877094,46.45600000000559
312289.4407,16.846693979109926,-5.869455636354156,7.660528622882597,1.4724656541234598,46.45699999999488
312289.4417,19.58758402064764,-3.060052082146226,9.928645927348995,6.926238300859641,46.458000000042375
312289.4427,21.608685432092752,-0.33715115634760684,11.695948400870328,11.902777449623484,46.459000000031665
312289.4437,22.71065017228761,2.1462929329480893,12.798295498127292,16.20840001087113,46.460000000020955
312289.4447,22.73864737696744,4.260980778893198,13.108511779080178,19.68911170205636,46.461000000010245
312289.4457,21.593781694952213,5.909846071698512,12.545940377475802,22.23980330361867,46.461999999999534
312289.4467,19.241273114652095,7.034209597563132,11.083091350844853,23.810360945765936,46.462999999988824
312289.4477,15.714736482611997,7.617017774670991,8.748823968737224,24.408185149331914,46.46400000003632
312289.4487,11.116179296546578,7.682912608378351,5.627760643237522,24.09688251821446,46.46500000002561
312289.4497,5.61165113006499,7.295141408788326,1.85591826120993,22.991188010302196,46.4660000000149
312289.4507,-0.577199019307997,6.549576277777697,-2.3871642801689545,21.248469482104863,46.46700000000419
312289.4517,-7.185097181318816,5.5663518729046935,-6.889250694602224,19.057434245266705,46.46799999999348
312289.4527,-13.91783087239519,4.479823962784126,-11.41840345190147,16.62487623242283,46.46900000004098
312289.4537,-20.468634352556357,3.427683520775789,-15.73720556164309,14.161452787131758,46.47000000003027
312289.4547,-26.535147909215148,2.540119956994697,-19.617174880152128,11.867548825931166,46.47100000001956
312289.4557,-31.83580520762448,1.9299077224612693,-22.852335952685966,9.920267202538694,46.47200000000885
312289.4567,-36.12457246375166,1.684195296037651,-25.27099758132887,8.462479418258267,46.47299999999814
312289.4577,-39.203116399805666,1.8586138016477196,-26.744944627366177,7.594689941387543,46.474000000045635
312289.4587,-40.92970001819846,2.4741095658012644,-27.195475238475765,7.370226700432941,46.475000000034925
312289.4597,-41.2243757633193,3.516660755257378,-26.59597947806025,7.793991465291202,46.476000000024214
312289.4607,-40.07034034257316,4.939785453404308,-24.971038377943383,8.824711762859573,46.477000000013504
312289.4617,-37.51160843639633,6.669510304840812,-22.392298519662795,10.380356577261109,46.478000000002794
312289.4627,-33.64742858689471,8.611266705902556,-18.971622135603962,12.346135794431506,46.478999999992084
312289.4637,-28.62408160942203,10.65803331458322,-14.852205402676145,14.584318876810014,46.48000000003958
312289.4647,-22.624852851324327,12.698961946378184,-10.198482248916223,16.944996665545386,46.48100000002887
312289.4657,-15.859044000586476,14.627714788564754,-5.18567840580968,19.276879553399077,46.48200000001816
312289.4667,-8.550884817809013,16.34980337634527,0.010151148366756938,21.4372758767644,46.48300000000745
312289.4677,-0.9291246023202097,17.78834615194997,5.22087304238007,23.300518893848082,46.48399999999674
312289.4687,6.782061115127794,18.88783787143655,10.293251819288818,24.764294939075132,46.48500000004424
312289.4697,14.370404018975071,19.615732234938992,15.09379682786441,25.753549689233374,46.48600000003353
312289.4707,21.640888233229305,19.961857778926586,19.51135355127335,26.221891011999688,46.48700000002282
312289.4717,28.419097817913023,19.93589459540208,23.457539542568462,26.150641653709556,46.48800000001211
312289.4727,34.552756286494656,19.563315756534156,26.865326850020402,25.545900537415367,46.4890000000014
312289.4737,39.91180825719578,18.880325954979973,29.686230905698977,24.43412881793328,46.48999999999069
312289.4747,44.38750033775795,17.928399556015766,31.886666331429264,22.856872692619543,46.491000000038184
312289.4757,47.890963634144484,16.749025973516172,33.44406533490179,20.86526261093512,46.492000000027474
312289.4767,50.35178240388678,15.379213615395685,34.34332362216131,18.51488847431918,46.493000000016764
312289.4777,51.71695767909545,13.848192475824936,34.57404816451818,15.861550111935648,46.494000000006054
312289.4787,51.95055252743397,12.1756029948481,34.12894284839348,12.958235148604343,46.49499999999534
312289.4797,51.03415301385646,10.371282123501787,33.00349869167926,9.853500120253933,46.49600000004284
312289.4807,48.96811469978102,8.436575696596721,31.19697431760909,6.591245515847456,46.49700000003213
312289.4817,45.77340823923849,6.366938313409374,28.714479737954083,3.211701750090734,46.49800000002142
312289.4827,41.493747520130405,4.155445117992494,25.569830737167635,-0.2467005671913833,46.49900000001071
312289.4837,36.19759481865092,1.796747689450878,21.788737444425372,-3.745001518131267,46.5
312289.4847,29.979599786814152,-0.7090326832695885,17.41183938506788,-7.241393774541924,46.50099999998929
312289.4857,22.96104722577663,-3.3529638209793258,12.497105009263947,-10.689371798042352,46.50200000003679
312289.4867,15.288960833565033,-6.11493254446885,7.121174906706868,-14.036735848927174,46.50300000002608
312289.4877,7.133628908569172,-8.962549236348272,1.3793373366246013,-17.225722921067348,46.50400000001537
312289.4887,-1.3155292269403716,-11.85148332979939,-4.616029901297198,-20.19438823447278,46.50500000000466
312289.4897,-9.855666792538214,-14.727222716236271,-10.738551703974958,-22.879196265968147,46.505999999993946
312289.4907,-18.277523779206206,-17.528088430054396,-16.852314612812997,-25.218618053079798,46.507000000041444
312289.4917,-26.373341325717217,-20.189193223907754,-22.81737286468378,-27.157389952221717,46.508000000030734
312289.4927,-33.94514996870696,-22.64692402691554,-28.495861658345778,-28.650984286536914,46.50900000002002
312289.4937,-40.81283830526894,-24.84346545880529,-33.758202396525455,-29.669786667625942,46.51000000000931
312289.4947,-46.82139829089611,-26.730871491286752,-38.48886262096484,-30.202475388349427,46.5109999999986
312289.4957,-51.84679252002751,-28.274236469633664,-42.59116751341631,-30.258156424558607,46.5120000000461
312289.4967,-55.799993881578416,-29.45361082849698,-45.9907472400639,-29.86691839734954,46.51300000003539
312289.4977,-58.628899587394045,-30.264441440507373,-48.63733650781099,-29.07862475612196,46.51400000002468
312289.4987,-60.318005378732344,-30.716477692028384,-50.50480609969652,-27.959940124415393,46.51500000001397
312289.4997,-60.885923740522884,-30.831255102204143,-51.58948397664399,-26.58977562703616,46.51600000000326
312289.5007,-60.381022371284516,-30.63843026327524,-51.906997086172254,-25.053514119591366,46.51699999999255
312289.5017,-58.875626332175536,-30.171376315709146,-51.48801576086792,-23.43652127854181,46.51800000004005
312289.5027,-56.45935184703203,-29.462541770707215,-50.37339409881366,-21.81754592826352,46.51900000002934
312289.5037,-53.23220838952358,-28.53911608980239,-48.60925949646622,-20.26265080161651,46.52000000001863
312289.5047,-49.29811082176941,-27.419527296076232,-46.24260538935291,-18.820287145514207,46.521000000007916
312289.5057,-44.759383797868125,-26.111220463899617,-43.317882277765456,-17.518033956390045,46.521999999997206
312289.5067,-39.71272200037776,-24.610037908836713,-39.87496869024748,-16.361372784778148,46.5230000000447
312289.5077,-34.24690384896754,-22.90135463576458,-35.94874717157101,-15.334675819675272,46.52400000003399
312289.5087,-28.442359972627894,-20.962932913226133,-31.5703267251677,-14.404367078925715,46.52500000002328
312289.5097,-22.372491165434152,-18.769267280897783,-26.769761530849948,-13.523995742634531,46.52600000001257
312289.5107,-16.106435190111316,-16.297016138146304,-21.579936424803737,-12.640759531870465,46.52700000000186
312289.5117,-9.71281810653015,-13.530977170537964,-16.0411417667197,-11.702855590503129,46.52799999999115
312289.5127,-3.2639111146835025,-10.469976707103111,-10.205760076168122,-10.666933884815862,46.52900000003865
312289.5137,3.160439393842879,-7.132018059890869,-4.142445593625594,-9.504895440895494,46.53000000002794
312289.5147,9.469726637620207,-3.558075172709044,2.0607988529621277,-8.209319696388862,46.53100000001723
312289.5157,15.56108013622504,0.18597700847489496,8.295156736459477,-6.796919320985094,46.53200000000652
312289.5167,21.3193411333207,4.009644148810813,14.431511238324504,-5.309597263403985,46.53299999999581
312289.5177,26.61912795616663,7.800454808318802,20.323119245527558,-3.8129033555259104,46.53400000004331
312289.5187,31.328889889139525,11.428890801643911,25.81041867735223,-2.3919355775772306,46.535000000032596
312289.5197,35.31672987930029,14.755311729075313,30.727728358937345,-1.144980312235946,46.536000000021886
312289.5207,38.457574623788844,17.638379946435137,34.91140303334653,-0.17541237143551303,46.537000000011176
312289.5217,40.64110600508148,19.944333581968237,38.20884604244748,0.41744305610280774,46.538000000000466
312289.5227,41.77975764226728,21.556353654025706,40.48767499643861,0.547666356298232,46.538999999989755
312289.5237,41.81603650014334,22.383237521882556,41.644292677606494,0.15145481251646714,46.54000000003725
312289.5247,40.728457590894074,22.36662907799672,41.61114162378497,-0.8056346725719817,46.54100000002654
312289.5257,38.53547832376468,21.48616371468582,40.3620147504659,-2.323618460846286,46.54200000001583
312289.5267,35.29697955646039,19.762054006169283,37.914947838757385,-4.36571632885772,46.54300000000512
312289.5277,31.113048232050314,17.254855283109784,34.33241873021795,-6.858963517274289,46.54399999999441
312289.5287,26.12005218234131,14.062389479570674,29.718804098349953,-9.697822417037372,46.54500000004191
312289.5297,20.484238824980924,10.31404884610699,24.215276443321347,-12.750539757971275,46.5460000000312
312289.5307,14.393312881485501,6.162925871441523,17.992539548499707,-15.867743923674775,46.54700000002049
312289.5317,8.046632199880907,1.7764011810151974,11.241979598724264,-18.892570265136428,46.54800000000978
312289.5327,1.644787230520719,-2.6740499566233327,4.1659345527969505,-21.671459824339625,46.54899999999907
312289.5337,-4.62061391376904,-7.023011542693785,-3.0321555601035572,-24.06471250124901,46.550000000046566
312289.5347,-10.576152434439742,-11.120433895859344,-10.156965371161867,-25.9558958116094,46.551000000035856
312289.5357,-16.074089466705033,-14.839372784703484,-17.029195681782966,-27.259313347684294,46.552000000025146
312289.5367,-20.997591620762588,-18.081590030560115,-23.49164822483,-27.92491330141188,46.553000000014435
312289.5377,-25.263352939646133,-20.780645202001203,-29.413119623445986,-27.940250352804703,46.554000000003725
312289.5387,-28.82151545904744,-22.902339000722627,-34.689986080425314,-27.329381867674773,46.554999999993015
312289.5397,-31.653038697682934,-24.442608799827966,-39.245572786198665,-26.148856423616092,46.55600000004051
312289.5407,-33.76490028244739,-25.423202999112238,-43.02760962486334,-24.481213124680604,46.5570000000298
312289.5417,-35.183703412857234,-25.8856523612495,-46.004247407862174,-22.42662963274288,46.55800000001909
312289.5427,-35.94840363495922,-25.884195744770103,-48.15923010385863,-20.093515060363412,46.55900000000838
312289.5437,-36.102934569482656,-25.478392263819433,-49.48687707279044,-17.588926537261912,46.55999999999767
312289.5447,-35.68950367719978,-24.726155775278453,-49.98752009586123,-15.009688368379432,46.56100000004517
312289.5457,-34.74324596821728,-23.67788141525573,-49.66396463327113,-12.435011108163678,46.56200000003446
312289.5467,-33.28877402117946,-22.372205031878973,-48.51941130842946,-9.921253143401415,46.56300000002375
312289.5477,-31.338961337028355,-20.83375802536643,-46.55709581472635,-7.499254856884981,46.56400000001304
312289.5487,-28.89606238126741,-19.073070101259393,-43.781701247076654,-5.174425741266584,46.56500000000233
312289.5497,-25.9550291829492,-17.08855136998311,-40.20238677110314,-2.9295017941991137,46.56599999999162
312289.5507,-22.50865447027554,-14.870274501647035,-35.83708158264508,-0.7296389558418933,46.567000000039116
312289.5517,-18.5539771191046,-12.40509744774475,-30.717532803952064,1.4707083359113773,46.568000000028405
312289.5527,-14.099245842711696,-9.682534599287663,-24.89448645935758,3.7198363497795177,46.569000000017695
312289.5537,-9.170665051072854,-6.700711448590027,-18.442333200984443,6.0605746553140225,46.570000000006985
312289.5547,-3.8181497020986304,-3.47173127590551,-11.462570254516736,8.522623492182863,46.570999999996275
312289.5557,1.8806062971830086,-0.025842086318462243,-4.085516886415668,11.11620557074388,46.57200000004377
312289.5567,7.818298135647874,3.586088389123854,3.530135035959247,13.827659526152434,46.57300000003306
312289.5577,13.858764947796313,7.292114399124158,11.200164327194196,16.617412425624135,46.57400000002235
312289.5587,19.840446610301864,11.000896662210417,18.720069409291884,19.42054004211581,46.57500000001164
312289.5597,25.582408771778645,14.605445166031258,25.87251017458377,22.149877992332822,46.57600000000093
312289.5607,30.89256309922728,17.988633804383014,32.43651926451512,24.701407542892763,46.57699999999022
312289.5617,35.57750223886491,21.03002639639192,38.19788197514986,26.961429290290216,46.57800000003772
312289.5627,39.45321257430769,23.613424305955856,42.95995708570047,28.814875433020703,46.57900000002701
312289.5637,42.355836973230865,25.63447347149779,46.55414652504956,30.154011647454805,46.5800000000163
312289.5647,44.151642659036796,27.00765988927763,48.84922636589024,30.886751250450203,46.58100000000559
312289.5657,44.745407545728774,27.672078029653278,49.75882523620016,30.943849156936164,46.58199999999488
312289.5667,44.08656624437231,27.595470668143037,49.246472573267134,30.284355964221053,46.583000000042375
312289.5677,42.17264243803018,26.776199900051537,47.32782614892527,28.898881766653027,46.584000000031665
312289.5687,39.04972006523325,25.24300184321633,44.06990923562784,26.810428210753017,46.585000000020955
312289.5697,34.809950719824414,23.052582856796896,39.5874228123894,24.07277538293247,46.586000000010245
312289.5707,29.58633616370119,20.285312949757742,34.036426194010986,20.766635233140512,46.586999999999534
312289.5717,23.545240635924635,17.039443097884046,27.60587994882255,16.993983664615374,46.587999999988824
312289.5727,16.87725810225462,13.424400741072628,20.50770007896179,12.871139969497666,46.58900000003632
312289.5737,9.787169577971959,9.5537893858458,12.966068578086949,8.521260153771966,46.59000000002561
312289.5747,2.4837659721435683,5.53872712536607,5.2067746422994885,4.066940909315054,46.5910000000149
312289.5757,-4.8297198139872215,1.4821044175502995,-2.5526786438054714,-0.37640865169630594,46.59200000000419
312289.5767,-11.963926823527773,-2.5257705669977466,-10.111570458795857,-4.7058750767926245,46.59299999999348
312289.5777,-18.7499362916099,-6.409828622826958,-17.292585310321957,-8.83463440183474,46.59400000004098
312289.5787,-25.04380261529176,-10.111075164509604,-23.946279383388816,-12.693632835872409,46.59500000003027
312289.5797,-30.728962157269773,-13.585679069153047,-29.95331580614494,-16.231366774837607,46.59600000001956
312289.5807,-35.71664603538454,-16.80257541260527,-35.224599683703374,-19.41197988137898,46.59700000000885
312289.5817,-39.944606872269944,-19.739998891204007,-39.69962456575306,-22.212072484316632,46.59799999999814
312289.5827,-43.374609451793184,-22.38147384447638,-43.34348086294661,-24.61674958485452,46.599000000045635
312289.5837,-45.989217605642494,-24.711837268904883,-46.143060651596684,-26.61550447368872,46.600000000034925
312289.5847,-47.78842702383457,-26.713857495981802,-48.10301529875014,-28.19853791237671,46.601000000024214
312289.5857,-48.78664574684843,-28.365934538571327,-49.241982056845735,-29.354047762266923,46.602000000013504
312289.5867,-49.01041768035233,-29.641236431852217,-49.58949953801155,-30.066897860182884,46.603000000002794
312289.5877,-48.497132778091064,-30.508453064962154,-49.183892044401325,-30.318901390592277,46.603999999992084
312289.5887,-47.29478870602204,-30.93415335768624,-48.07123594422657,-30.090751669418253,46.60500000003958
312289.5897,-45.46268394272891,-30.886534093875998,-46.30534720614684,-29.36542398445003,46.60600000002887
312289.5907,-43.07275317920393,-30.340170562096,-43.94856797363919,-28.1326786463083,46.60700000001816
312289.5917,-40.21112266614114,-29.281239782385864,-41.073000187532124,-26.39413887459815,46.60800000000745
312289.5927,-36.979382072982816,-27.712601999968737,-37.761750634545,-24.168314994274283,46.60899999999674
312289.5937,-33.49505111102732,-25.65810523066197,-34.10972408854354,-21.494910475612237,46.61000000004424
312289.5947,-29.89076750916555,-23.165524283731134,-30.223532891375644,-18.437780631518095,46.61100000003353
312289.5957,-26.311834594586315,-20.307656269453297,-26.22017935052022,-15.086018987590052,46.61200000002282
312289.5967,-22.91193152376503,-17.181258978125005,-22.22430254770415,-11.552810110376015,46.61300000001211
312289.5977,-19.846991075884986,-13.903721057113929,-18.363949293660966,-7.97189558925545,46.6140000000014
312289.5987,-17.26746854973874,-10.607574067793621,-14.76501219248318,-4.491731981784819,46.61499999999069
312289.5997,-15.309438135058569,-7.4331747666924874,-11.544656531588755,-1.2676533897314801,46.616000000038184
312289.6007,-14.0851375611746,-4.520079950261841,-8.804212676743742,1.5474358682909377,46.617000000027474
312289.6017,-13.67371742906994,-1.9977867324970335,-6.622124671760719,3.8131422472644423,46.618000000016764
312289.6027,-14.113022147112913,0.023397027737466918,-5.047605496014128,5.411629800311361,46.619000000006054
312289.6037,-15.393224352402454,1.460564092072144,-4.095646719613504,6.256784372016758,46.61999999999534
312289.6047,-17.453050552733448,2.2647616346999704,-3.743962851054608,6.301682298296624,46.62100000004284
312289.6057,-20.179176319357172,2.425265710521923,-3.9323224367165723,5.5436609062869735,46.62200000003213
312289.6067,-23.409145792575583,1.971131702719806,-4.564538804440704,4.026464285523529,46.62300000002142
312289.6077,-26.9379000454207,0.9697975093032908,-5.513178195939502,1.8391653675870179,46.62400000001071
312289.6087,-30.527704489713273,-0.477237178045196,-6.626810652930425,-0.8881751456642902,46.625
312289.6097,-33.92097257001189,-2.241382201319792,-7.739400292376079,-3.991883570496612,46.62599999998929
312289.6107,-36.855217835224494,-4.176074617156574,-8.681227656828451,-7.28459765430914,46.62700000003679
312289.6117,-39.07915385164292,-6.127347425435764,-9.2905770868249,-10.567038693446829,46.62800000002608
312289.6127,-40.36882212845346,-7.945020427024428,-9.425322437480837,-13.64076795231955,46.62900000001537
312289.6137,-40.542577101446334,-9.493620688422032,-8.973515794933402,-16.320973504025822,46.63000000000466
312289.6147,-39.473801604202784,-10.662152909859875,-7.862130832261812,-18.44832261148268,46.630999999993946
312289.6157,-37.10036513490822,-11.371928865243747,-6.063233075709787,-19.89898472269084,46.632000000041444
312289.6167,-33.43006112769659,-11.581822834887376,-3.5970349921374223,-20.592075391965018,46.633000000030734
312289.6177,-28.54155110684301,-11.290533204329403,-0.5315298473962866,-20.493979611112103,46.63400000002002
312289.6187,-22.580679425527325,-10.53568072309088,3.0213346484115813,-19.619266190420376,46.63500000000931
312289.6197,-15.752374331253304,-9.389839445943398,6.912706275354174,-18.028181003200675,46.6359999999986
312289.6207,-8.308689577550075,-7.953853773214945,10.966604637961236,-15.820982073988235,46.6370000000461
312289.6217,-0.5338367861835325,-6.348021538609405,14.991703918933506,-13.12962971851145,46.63800000003539
312289.6227,7.272713174480568,-4.701898715191226,18.794236698892338,-10.107548557457132,46.63900000002468
312289.6237,14.813840970605275,-3.143590494577171,22.191040421294804,-6.91831777473087,46.64000000001397
312289.6247,21.81184177282392,-1.7894266757770074,25.021755985154037,-3.724209841770115,46.64100000000326
312289.6257,28.023741844866105,-0.7348737805742309,27.159258412552443,-0.6754813343082159,46.64199999999255
312289.6267,33.2538282062297,-0.04741653321917654,28.51754685172618,2.0987750056711776,46.64300000004005
312289.6277,37.36259106572334,0.23804151031561477,29.056532774576027,4.497570528625065,46.64400000002934
312289.6287,40.27157964394814,0.12093742352588104,28.783422779721654,6.452321998364475,46.64500000001863
312289.6297,41.96400695197054,-0.3660981448902687,27.750673457347496,7.928329898401106,46.646000000007916
312289.6307,42.481278766178214,-1.1611050880266776,26.05077574443205,8.923505648817116,46.646999999997206
312289.6317,41.91593715430083,-2.178950843397621,23.808380657694347,9.464660745471123,46.6480000000447
312289.6327,40.4017728420065,-3.3191638064553795,21.17048514239871,9.601874952032446,46.64900000003399
312289.6337,38.1020518521369,-4.474693805996678,18.295538276193707,9.401609522866154,46.65000000002328
312289.6347,35.19690546058535,-5.540788189232766,15.342392432635242,8.939312162780341,46.65100000001257
312289.6357,31.870941934977335,-6.423185418962347,12.460006461611922,8.292266823715641,46.65200000000186
312289.6367,28.30205563147633,-7.04491454609963,9.778711118845562,7.533374458812725,46.65299999999115
312289.6377,24.65224390980313,-7.351139383965938,7.403680641958058,6.726418486472782,46.65400000003865
312289.6387,21.061012226405623,-7.3116857369072505,5.411034492074667,5.92318514974875,46.65500000002794
312289.6397,17.64167538351232,-6.9211193012787176,3.846740523444878,5.162593170265925,46.65600000001723
312289.6407,14.48057426534282,-6.196478994113893,2.7282286596569616,4.471761004333626,46.65700000000652
312289.6417,11.638949408868221,-5.172993113290192,2.048376628281295,3.8687263348014613,46.65799999999581
312289.6427,9.156970827953273,-3.8982931075745526,1.7813189683070578,3.366352524144665,46.65900000004331
312289.6437,7.059239230009352,-2.425774525536918,1.88937632945726,2.9768285471419618,46.660000000032596
312289.6447,5.360963032358409,-0.8078246509085101,2.3303177101162875,2.7161052259062193,46.661000000021886
312289.6457,4.073987234115558,0.9103647029851796,3.064160919874518,2.6076178612242296,46.662000000011176
312289.6467,3.211905256095125,2.6957521974851333,4.058786251318289,2.6847230485433484,46.663000000000466
312289.6477,2.7936165008404985,4.530657321695387,5.293777986048386,2.9914180451847487,46.663999999989755
312289.6487,2.8448865813434736,6.413898153373877,6.762104267862342,3.5811006410694994,46.66500000003725
312289.6497,3.397704000408732,8.359744953635781,8.469479026062535,4.513347135210124,46.66600000002654
312289.6507,4.487482583116582,10.394805042483085,10.431497364145576,5.848913509054953,46.66700000001583
312289.6517,6.148407463233322,12.5531697262273,12.668873946100538,7.643376857561402,46.66800000000512
312289.6527,8.40743891087116,14.87033633518198,15.20131897686083,9.940008418926011,46.66899999999441
312289.6537,11.277650946841348,17.37654946316768,18.0407379945722,12.762587413709094,46.67000000004191
312289.6547,14.751674058876752,20.09027203396804,21.184524572056336,16.10891306254591,46.6710000000312
312289.6557,18.796023991122006,23.012491966411762,24.609720541886,19.94574417317343,46.67200000002049
312289.6567,23.347030116676052,26.12249420045104,28.268745511387916,24.20579279299873,46.67300000000978
312289.6577,28.30893411424907,29.375588069302037,32.08725301877399,28.787229465643556,46.67399999999907
312289.6587,33.55452687211062,32.70309029869392,35.964468684176374,33.55593828089893,46.675000000046566
312289.6597,38.92844913362132,36.01464319967267,39.77612594364156,38.35051112635698,46.676000000035856
312289.6607,44.25302378022941,39.20271797532316,43.37986109763199,42.98971648880961,46.677000000025146
312289.6617,49.33624073539321,42.14893748230148,46.62268662603959,47.2819437287088,46.678000000014435
312289.6627,53.9813040545148,44.73167285216157,49.34995414081949,51.035932119262526,46.679000000003725
312289.6637,57.99699598197565,46.83424204818572,51.415066602351565,54.07196416147401,46.679999999993015
312289.6647,61.208029958408375,48.35297823968971,52.68911857931881,56.232647787889256,46.68100000004051
312289.6657,63.464561767908535,49.20444764884925,53.069641345781996,57.39243773188899,46.6820000000298
312289.6667,64.65010511933303,49.33117881887148,52.487706538347354,57.46515031571302,46.68300000001909
312289.6677,64.68724676752679,48.7054095056879,50.91279009221816,56.40889823423651,46.68400000000838
312289.6687,63.54076139614509,47.33054882138579,48.35500229967746,54.22809589987448,46.68499999999767
312289.6697,61.217966902210435,45.24027137135964,44.864529607343336,50.9724398449398,46.68600000004517
312289.6707,57.76641203476186,42.49538475681143,40.52838528401231,46.73302798493439,46.68700000003446
312289.6717,53.26922526831553,39.17881938811323,35.46480448697552,41.63602130493481,46.68800000002375
312289.6727,47.83865280772602,35.38925942439158,29.815821266671023,35.83444897825124,46.68900000001304
312289.6737,41.60845536258047,31.23404920880534,23.73871137744846,29.498894749039838,46.69000000000233
312289.6747,34.72590456251556,26.82205991115179,17.39706199990902,22.807866562678786,46.69099999999162
312289.6757,27.34411480279461,22.25718210680579,10.952231405601987,15.938638284880385,46.692000000039116
312289.6767,19.615367038147085,17.63302473210801,4.555889693140238,9.05926508360265,46.693000000028405
312289.6777,11.685937311502297,13.029259009796279,-1.655805096845796,2.322323185203943,46.694000000017695
312289.6787,3.6927508270782807,8.509862914261387,-7.56602764262944,-4.139273050816508,46.695000000006985
312289.6797,-4.238036922245865,4.123316888457399,-13.078951071335402,-10.214247426436051,46.695999999996275
312289.6807,-11.990653688030823,-0.09540391563100728,-18.11932935247622,-15.812828601308361,46.69700000004377
312289.6817,-19.457844106349548,-4.121380677258463,-22.630275702769737,-20.864810423070622,46.69800000003306
312289.6827,-26.538012101835015,-7.9353312467273875,-26.56968796336125,-25.316274952982432,46.69900000002235
312289.6837,-33.13196688266981,-11.518798950555372,-29.905890957896723,-29.12555711378104,46.70000000001164
312289.6847,-39.13990608721727,-14.849560555273092,-32.6131216277456,-32.259074314952095,46.70100000000093
312289.6857,-44.459237623168214,-17.897831841192602,-34.66747125023643,-34.68762085597201,46.70199999999022
312289.6867,-48.98374293994563,-20.623757552492773,-36.04382316772172,-36.38363982868918,46.70300000003772
312289.6877,-52.604429625384476,-22.976531575428602,-36.71419351447457,-37.319845450685335,46.70400000002701
312289.6887,-55.212226603399145,-24.895317983448475,-36.64771106943132,-37.46939215548718,46.7050000000163
312289.6897,-56.70246093966866,-26.311952115840647,-35.81227893297467,-36.80759256163435,46.70600000000559
312289.6907,-56.980843206329915,-27.155212405801127,-34.177765340605234,-35.314995157152026,46.70699999999488
312289.6917,-55.97049996314035,-27.356286841459696,-31.72039342635433,-32.98146389887181,46.708000000042375
312289.6927,-53.619446133571756,-26.854928854298837,-28.427857760783137,-29.81077295277108,46.709000000031665
312289.6937,-49.90780156687845,-25.60571825178832,-24.304602773645243,-25.825153202406614,46.710000000020955
312289.6947,-44.85403395755058,-23.583820700952817,-19.376663406843118,-21.06921021463986,46.711000000010245
312289.6957,-38.51955724475149,-20.78967581917844,-13.695494426354205,-15.612677372885335,46.711999999999534
312289.6967,-31.011126793487314,-17.25213514250022,-7.340298732512548,-9.55156818602592,46.712999999988824
312289.6977,-22.480640098079807,-13.029708018887773,-0.41849821603678794,-3.007438251889238,46.71400000003632
312289.6987,-13.122159314607005,-8.20974253462024,6.935839936030031,3.8753544923130634,46.71500000002561
312289.6997,-3.1662007371249414,-2.9055537470702792,14.565619554182039,10.934310228560909,46.7160000000149
312289.7007,7.128434516407847,2.748304789556695,22.296182039032683,17.99509961102227,46.71700000000419
312289.7017,17.484805842071587,8.602265261458072,29.9422571967608,24.8790942777304,46.71799999999348
312289.7027,27.61930304773874,14.498973897873674,37.31589235237269,31.41155591204902,46.71900000004098
312289.7037,37.25367598146942,20.280947250534613,44.23476065293938,37.42984988582272,46.72000000003027
312289.7047,46.12681147224333,25.798050063818803,50.53021231868905,42.79103425431622,46.72100000001956
312289.7057,54.005467704395166,30.91421471525745,56.054454992337945,47.37822066393778,46.72200000000885
312289.7067,60.69326663548224,35.512902386524274,60.68632917545068,51.10520667719112,46.72299999999814
312289.7077,66.03739496421402,39.50093210483416,64.33527436357234,53.91902968048621,46.724000000045635
312289.7087,69.93265934345004,42.81046313596787,66.94324836749402,55.80027679858353,46.725000000034925
312289.7097,72.32276364770026,45.39909322896069,68.48455020348719,56.7611855957311,46.726000000024214
312289.7107,73.19890428510293,47.24821248300708,68.96368746707388,56.841767574805125,46.727000000013504
312289.7117,72.59599244993989,48.35991265618634,68.41160352899578,56.104361494170924,46.728000000002794
312289.7127,70.58699010061551,48.75287876693891,66.88072096444208,54.627159206579435,46.728999999992084
312289.7137,67.2759731107875,48.45777131779058,64.43935134707203,52.49732969073757,46.73000000003958
312289.7147,62.790599399240804,47.5126354053888,61.166058597711825,49.80438887908434,46.73100000002887
312289.7157,57.27465703858787,45.958844767818995,57.14453984497578,46.63442143777799,46.73200000001816
312289.7167,50.88129920328029,43.8380075527728,52.45950670774874,43.065659751492284,46.73300000000745
312289.7177,43.76744765425489,41.19013479220134,47.19391943107949,39.16577487785591,46.73399999999674
312289.7187,36.08967820025221,38.05321537047812,41.427759881403574,34.99104905343832,46.73500000004424
312289.7197,28.00170834247453,34.46416910570105,35.23834427954092,30.587397915261533,46.73600000003353
312289.7207,19.653409555030102,30.460980507026335,28.701991992217245,25.993013158744183,46.73700000002282
312289.7217,11.19108508903332,26.085667714866638,21.896702058064047,21.24222283154037,46.73800000001211
312289.7227,2.758607680490727,21.387629944994895,14.905361833733291,16.370034546745206,46.7390000000014
312289.7237,-5.5010847856630285,16.426854655140666,7.818935961552844,11.416750225790027,46.73999999999069
312289.7247,-13.444673882916518,11.276459917603638,0.7390674232765015,6.432027755887935,46.741000000038184
312289.7257,-20.927836341721715,6.024099689983925,-6.2204316228315655,1.4778170918438305,46.742000000027474
312289.7267,-27.805733495695094,0.7718654897250952,-12.93361692548737,-3.370288741561579,46.743000000016764
312289.7277,-33.93489740593035,-4.365532472953905,-19.26424128871184,-8.023584272316834,46.744000000006054
312289.7287,-39.17661983306625,-9.264342831453256,-25.069452197090946,-12.38276302659854,46.74499999999534
312289.7297,-43.401754851374754,-13.796956981278598,-30.20523087490802,-16.342296722359883,46.74600000004284
312289.7307,-46.496652406365776,-17.83836424530474,-34.533246884214115,-19.796363011170648,46.74700000003213
312289.7317,-48.369769068271125,-21.273386657064254,-37.928628346770346,-22.645823368142167,46.74800000002142
312289.7327,-48.958372230956655,-24.004088158313206,-40.28801683996176,-24.805618900161793,46.74900000001071
312289.7337,-48.23467984862994,-25.95669503807242,-41.53720225232168,-26.21187767930195,46.75
312289.7347,-46.21076898821124,-27.087369587043536,-41.63762536430594,-26.82802141481359,46.75099999998929
312289.7357,-42.94164618458704,-27.38624870974237,-40.59109735185513,-26.6492240356485,46.75200000003679
312289.7367,-38.52599725498493,-26.87928886093502,-38.44221185918133,-25.70470540285521,46.75300000002608
312289.7377,-33.10431375288134,-25.627637439318374,-35.27810642327673,-24.057528722299608,46.75400000001537
312289.7387,-26.85431181206413,-23.724462917126,-31.22544999060628,-21.801793529311308,46.75500000000466
312289.7397,-19.983796640221193,-21.28940210114273,-26.44477205192885,-19.057356555539148,46.755999999993946
312289.7407,-12.721359824640757,-18.46100174494822,-21.122484247281655,-15.962447430873409,46.757000000041444
312289.7417,-5.305504083999659,-15.387722164287597,-15.461154686881837,-12.664752157424868,46.758000000030734
312289.7427,2.0270497215778667,-12.21821367130555,-9.668758219034414,-9.311694068793804,46.75900000002002
312289.7437,9.053022401584892,-9.09165778692597,-3.9477260229228,-6.040733390124831,46.76000000000931
312289.7447,15.573331026938185,-6.128975230161547,1.5153554659791766,-2.9705224456785873,46.7609999999986
312289.7457,21.422123961311822,-3.425639222564098,6.558596925849659,-0.19369110989368413,46.7620000000461
312289.7467,26.47341470897937,-1.0467003496906382,11.05153465137676,2.228099043009207,46.76300000003539
312289.7477,30.644829489264513,0.9755605174790603,14.899246909784736,4.266391317360698,46.76400000002468
312289.7487,33.898226177816056,2.6411648161428416,18.04360228670977,5.9252621312576625,46.76500000001397
312289.7497,36.23720881681606,3.979217190443996,20.461640356228994,7.237804400645882,46.76600000000326
312289.7507,37.701827354862644,5.042242585237404,22.16134074355278,8.260088385622451,46.76699999999255
312289.7517,38.36099159200464,5.898605377725011,23.175267581831715,9.06315279040982,46.76800000004005
312289.7527,38.30331882322132,6.623706650631487,23.552760489742806,9.72375907543898,46.76900000002934
312289.7537,37.62725838962131,7.290762240367736,23.351463033148537,10.314754632957435,46.77000000001863
312289.7547,36.43138169580612,7.9619970319109035,22.629023960413583,10.895925024609868,46.771000000007916
312289.7557,34.80568924843746,8.68104720037983,21.43577144899018,11.506168730364958,46.771999999997206
312289.7567,32.82467088281453,9.46724610378995,19.80905000578482,12.15770446127097,46.7730000000447
312289.7577,30.542673071627632,10.312292546094532,17.769734641855493,12.832832994089603,46.77400000003399
312289.7587,27.99189592279783,11.17957911246381,15.321214752439968,13.483540737161425,46.77500000002328
312289.7597,25.183084631895756,12.006214242225102,12.450892450658667,14.033973179808756,46.77600000001257
312289.7607,22.108720601267247,12.707527669753683,9.133990880904099,14.385547474272512,46.77700000000186
312289.7617,18.748280979592572,13.183627640105724,5.339241178926544,14.424238863986462,46.77799999999115
312289.7627,15.07494439454704,13.32740031716344,1.0358338069721258,14.029387159716086,46.77900000003865
312289.7637,11.062992971391937,13.033223154879684,-3.7991018592112096,13.083244029848954,46.78000000002794
312289.7647,6.695107937642012,12.205614989816866,-9.17327540620697,11.480430385165933,46.78100000001723
312289.7657,1.9687824860076464,10.767069782956417,-15.073029605883704,9.13649931492327,46.78200000000652
312289.7667,-3.098822290631739,8.664414813970069,-21.458809806782504,5.994900138111312,46.78299999999581
312289.7677,-8.468085363098162,5.873187608082889,-28.262804197401334,2.0318024220576385,46.78400000004331
312289.7687,-14.076489235863109,2.399723255117243,-35.38904061112906,-2.7415513794550224,46.785000000032596
312289.7697,-19.840588509547597,-1.7191346690748333,-42.7159891053549,-8.27906063619106,46.786000000021886
312289.7707,-25.660188404648142,-6.418562468763992,-50.10147959868647,-14.502406742091893,46.787000000011176
312289.7717,-31.424314802087025,-11.610182405203592,-57.38952345655566,-21.305759759305385,46.788000000000466
312289.7727,-37.018377356730525,-17.18787950284128,-64.41844811114825,-28.562016688108443,46.788999999989755
312289.7737,-42.33180815144772,-23.034391345447457,-71.02963159206143,-36.12991867372177,46.79000000003725
312289.7747,-47.26541176641784,-29.028007058087223,-77.07607060581186,-43.86134508006688,46.79100000002654
312289.7757,-51.73769299320211,-35.04873386074285,-82.43003622757581,-51.608105169248674,46.79200000001583
312289.7767,-55.68953261228187,-40.983376782363365,-86.98916295133446,-59.2276396001761,46.79300000000512
312289.7777,-59.08674929598223,-46.72911964162561,-90.68047054247263,-66.58719373039885,46.79399999999441
312289.7787,-61.9203001506081,-52.19537805067803,-93.46201868064001,-73.56621660412493,46.79500000004191
312289.7797,-64.2041123738108,-57.303898822960804,-95.32212214380628,-80.05695318898398,46.7960000000312
312289.7807,-65.9707800934172,-61.98728352966181,-96.27628707287354,-85.96341038876653,46.79700000002049
312289.7817,-67.26557953562843,-66.1862958404503,-96.36224404104246,-91.19906721282267,46.79800000000978
312289.7827,-68.1394302197829,-69.84645362512015,-95.63363034555246,-95.68384617289959,46.79899999999907
312289.7837,-68.6415421589014,-72.9144925487194,-94.1529950098957,-99.34095081969768,46.800000000046566
312289.7847,-68.81252738696853,-75.33530859654599,-91.98485372028159,-102.09419360756941,46.801000000035856
312289.7857,-68.67871411655783,-77.04993970738671,-89.18950217936992,-103.8663862581015,46.802000000025146
312289.7867,-68.24828677730258,-77.99503547304813,-85.81820709348315,-104.57924607349561,46.803000000014435
312289.7877,-67.50969588908242,-78.1040992598208,-81.91024309438721,-104.1550977444851,46.804000000003725
312289.7887,-66.43255542968267,-77.31058529979524,-77.49204629605315,-102.52043845313193,46.804999999993015
312289.7897,-64.97099410332308,-75.55271451045394,-72.57853050536472,-99.61120598448859,46.80600000004051
312289.7907,-63.06917538879116,-72.77965933330456,-67.17638268501311,-95.37936866487425,46.8070000000298
312289.7917,-60.66847435857382,-68.95856192779351,-61.28894300251327,-89.80026547417303,46.80800000001909
312289.7927,-57.71561970802774,-64.08171149043244,-54.922102894018195,-82.8799852522647,46.80900000000838
312289.7937,-54.17099544931666,-58.173130849644984,-48.09053944099804,-74.66200144908396,46.80999999999767
312289.7947,-50.01626026517145,-51.29381945574632,-40.823557893173344,-65.23228292037977,46.81100000004517
312289.7957,-45.260488051841186,-43.54497212407724,-33.1698415293675,-54.72218402591261,46.81200000003446
312289.7967,-39.944157204284096,-35.06863574098489,-25.200507092406898,-43.30857320355089,46.81300000002375
312289.7977,-34.14050752037456,-26.04546794462674,-17.010025488529894,-31.210875430507965,46.81400000001304
312289.7987,-27.95402439354075,-16.68950489726419,-8.714775753396703,-18.68496153632208,46.81500000000233
312289.7997,-21.51607745185815,-7.240107656912771,-0.4492351233525272,-6.014092784946746,46.81599999999162
312289.8007,-14.97800946538983,2.048485984088199,7.639953712995608,6.502603124435003,46.817000000039116
312289.8017,-8.502215386973981,10.919349302321262,15.40157910769831,18.563413851968875,46.818000000028405
312289.8027,-2.2519472529473097,19.125962459150745,22.688485651388532,29.878192360685027,46.819000000017695
312289.8037,3.6192906825570796,26.44527670491345,29.366476893750118,40.182380048559196,46.820000000006985
312289.8047,8.977843417484701,32.68977933453654,35.322700064974065,49.249887443188996,46.820999999996275
312289.8057,13.718626202210602,37.717647608995875,40.472749699872814,56.903884120562836,46.82200000004377
312289.8067,17.771705857445916,41.44021565495987,44.7658336564662,63.02469986767966,46.82300000003306
312289.8077,21.106171892499148,43.826182692293365,48.187515847281624,67.55425986841625,46.82400000002235
312289.8087,23.73096872022923,44.902245954449974,50.75976874980977,70.4967485474359,46.82500000001164
312289.8097,25.69263241059046,44.75012471230613,52.53831432943775,71.91549551511281,46.82600000000093
312289.8107,27.070152249510613,43.50022759310905,53.607480585763234,71.92637611073103,46.82699999999022
312289.8117,27.96743282908897,41.322478363466374,54.073028371993196,70.68829159825525,46.82800000003772
312289.8127,28.504042555315102,38.41503215958031,54.05358734862258,68.39151588015092,46.82900000002701
312289.8137,28.80507978538979,34.9917658272194,53.67146308421313,65.2448471917844,46.8300000000163
312289.8147,28.991055009668063,31.26949976300834,53.043627594025615,61.462571749155366,46.83100000000559
312289.8157,29.168670767041522,27.455898929654605,52.27367836888434,57.25222663847545,46.83199999999488
312289.8167,29.423282514356835,23.738909814111917,51.44544915039956,52.804044430474384,46.833000000042375
312289.8177,29.81365338654857,20.278427727858453,50.61878958519708,48.28278295955645,46.834000000031665
312289.8187,30.369390363662497,17.200671171987864,49.82781689747684,43.822408015889586,46.835000000020955
312289.8197,31.091190617354197,14.595487996447496,49.08170189088108,39.52382692065705,46.836000000010245
312289.8207,31.95375959676057,12.516555550449407,48.36780745681487,35.455592456464395,46.836999999999534
312289.8217,32.9110122548276,10.98418824473514,47.656774043861994,31.657235166678188,46.837999999988824
312289.8227,33.902959475547924,9.990253455434674,46.908964830772874,28.144661363509456,46.83900000003632
312289.8237,34.863532988304414,9.50453917715385,46.08156104476958,24.916893832216033,46.84000000002561
312289.8247,35.72852770383238,9.481827428002537,45.135546523706935,21.96334574777549,46.8410000000149
312289.8257,36.44284712451854,9.86891258717232,44.041844845865356,19.27081212146561,46.84200000000419
312289.8267,36.96632407655227,10.61086288127089,42.785969412866365,16.82943587932099,46.84299999999348
312289.8277,37.27754656464437,11.655948383507859,41.37070698866293,14.637048685629182,46.84400000004098
312289.8287,37.3753312735803,12.95883621070122,39.81656250030363,12.701484544338022,46.84500000003027
312289.8297,37.27773399338275,14.481864365199415,38.15992696210964,11.040696674435003,46.84600000001956
312289.8307,37.01874256949816,16.194428192849017,36.4491681541935,9.680751731173375,46.84700000000885
312289.8317,36.643038473529344,18.070725204001697,34.739061723583255,8.652005901944024,46.84799999999814
312289.8327,36.19941388339714,20.086283883161272,33.08415708327798,7.9839620514883975,46.849000000045635
312289.8337,35.73357226627138,22.21383236580025,31.53179020695396,7.699446968784817,46.850000000034925
312289.8347,35.28110775720386,24.419130909152308,30.11550218754433,7.808819495036909,46.851000000024214
312289.8357,34.86144530580431,26.657391723930136,28.849593182561122,8.304917383124774,46.852000000013504
312289.8367,34.47343082244123,28.8708417344471,27.725438505337145,9.15937415265629,46.853000000002794
312289.8377,34.0930975263015,30.987855836350473,26.71002682769362,10.320795347623609,46.853999999992084
312289.8387,33.673917559662854,32.92391394419183,25.74696581591923,11.715091389013192,46.85500000003958
312289.8397,33.14959830699263,34.584432952925425,24.759958948353518,13.248041559894537,46.85600000002887
312289.8407,32.439225637282696,35.86931584268079,23.65851246166942,14.8099334510993,46.85700000001816
312289.8417,31.454317126195,36.67886629931295,22.345407469587162,16.281907943987193,46.85800000000745
312289.8427,30.10715102736359,36.92055852994045,20.72529142044449,17.54346324735235,46.85899999999674
312289.8437,28.319600921381227,36.5160448428592,18.713623110423498,18.480450378160505,46.86000000004424
312289.8447,26.0316449378426,35.40773907180614,16.245158319033713,18.99283873150843,46.86100000003353
312289.8457,23.208738053037333,33.564336599014275,13.281193438724078,19.00154900254885,46.86200000002282
312289.8467,19.84733398336205,30.984719192393506,9.81488922837952,18.453739258217908,46.86300000001211
312289.8477,15.978009627891426,27.699836118270323,5.87416571237982,17.326078867933685,46.8640000000014
312289.8487,11.665863193798085,23.77233738140806,1.521875725899983,15.625738707354111,46.86499999999069
312289.8497,7.008105475837318,19.293941756272776,-3.1467923931994095,13.389044589869089,46.866000000038184
312289.8507,2.129017969938586,14.380730665063552,-8.009486387246623,10.67796201405453,46.867000000027474
312289.8517,-2.82731294504728,9.166748117402118,-12.924013667632531,7.574781804926517,46.868000000016764
312289.8527,-7.705881956528349,3.796438189819479,-17.737210515093523,4.175538093842707,46.869000000006054
312289.8537,-12.350531487710972,-1.5834497606610787,-22.294624771699805,0.5827965939954123,46.86999999999534
312289.8547,-16.613794937674985,-6.831820992496118,-26.450223491650867,-3.101507668890169,46.87100000004284
312289.8557,-20.366023263793643,-11.82042092237731,-30.07535392664445,-6.7825313613862415,46.87200000003213
312289.8567,-23.50308558171005,-16.43969557986289,-33.06627327778112,-10.37772295511854,46.87300000002142
312289.8577,-25.952081586076904,-20.602916294411482,-35.34970991720471,-13.820349084946928,46.87400000001071
312289.8587,-27.674698192406776,-24.248334565824923,-36.886110662265395,-17.06111994687863,46.875
312289.8597,-28.668064766909904,-27.339328008489243,-37.670445520624746,-20.067891558784144,46.87599999998929
312289.8607,-28.96318826395724,-29.8626915975028,-37.73066142690152,-22.82362574972614,46.87700000003679
312289.8617,-28.621259125883682,-31.82540064490625,-37.12407832032405,-25.32296877246523,46.87800000002608
312289.8627,-27.728290732750427,-33.2503058037689,-35.932185224819825,-27.56794788313041,46.87900000001537
312289.8637,-26.388673551441485,-34.17130280875119,-34.25440573307814,-29.563367884376397,46.88000000000466
312289.8647,-24.718279725613417,-34.62854285668205,-32.20145204864559,-31.312508062012466,46.880999999993946
312289.8657,-22.837741203930403,-34.66421188523144,-29.888871595699953,-32.81367240093122,46.882000000041444
312289.8667,-20.866448163664664,-34.31931317547222,-27.431313963717034,-34.0580375431059,46.883000000030734
312289.8677,-18.917684560357117,-33.63174813294451,-24.937918643439787,-35.02908510857386,46.88400000002002
312289.8687,-17.095149700849095,-32.635819971133756,-22.509060788334864,-35.70371441823629,46.88500000000931
312289.8697,-15.490928189219645,-31.36310270456342,-20.23451177217573,-36.05492855385673,46.8859999999986
312289.8707,-14.184786596066067,-29.84444306203308,-18.192893831128934,-36.05579277551023,46.8870000000461
312289.8717,-13.244514458240577,-28.112714687646584,-16.452153242883927,-35.684200571426096,46.88800000003539
312289.8727,-12.726907793812405,-26.20583871714193,-15.070661365326899,-34.92786712549908,46.88900000002468
312289.8737,-12.678928715829102,-24.16953457644319,-14.098490105262355,-33.78891604677625,46.89000000001397
312289.8747,-13.13857242237338,-22.059276102881316,-13.578404964996503,-32.287439882565415,46.89100000000326
312289.8757,-14.135033434296984,-19.94100093218491,-13.546175203301818,-30.463498267145457,46.89199999999255
312289.8767,-15.68788005251666,-17.89024916040972,-14.029910778561485,-28.377162441458584,46.89300000004005
312289.8777,-17.80510682945885,-15.989578308544546,-15.048287593582865,-26.106407712750613,46.89400000002934
312289.8787,-20.48012150572722,-14.324298576973977,-16.607699376398294,-23.742877406028896,46.89500000001863
312289.8797,-23.6879141979036,-12.976775185456582,-18.698556531307354,-21.38577083981725,46.896000000007916
312289.8807,-27.380830411749468,-12.019732070206832,-21.291118715187103,-19.13432053531887,46.896999999997206
312289.8817,-31.484504735058295,-11.509143202201157,-24.331379133372018,-17.079498118871413,46.8980000000447
312289.8827,-35.89459136693211,-11.477397219309438,-27.737598214366873,-15.295705485779083,46.89900000003399
312289.8837,-40.47493889235963,-11.927455677109487,-31.398100975975737,-13.833254349611476,46.90000000002328
312289.8847,-45.05779462168037,-12.828688901633601,-35.1709008288269,-12.712406596635644,46.90100000001257
312289.8857,-49.44649060083464,-14.114966914185377,-38.885594471062795,-11.919640645189103,46.90200000000186
312289.8867,-53.42086876902193,-15.685413865036177,-42.34779650625982,-11.406633506710488,46.90299999999115
312289.8877,-56.74546312366981,-17.408016854990738,-45.34616327482898,-11.092219484778846,46.90400000003865
312289.8887,-59.18019382602827,-19.12603302967225,-47.66181282586906,-10.867324888288032,46.90500000002794
312289.8897,-60.49306683443773,-20.66688482980564,-49.079704717617304,-10.602607756572631,46.90600000001723
312289.8907,-60.474138579221595,-21.852995932550094,-49.40132302860983,-10.158277632364305,46.90700000000652
312289.8917,-58.949822345335754,-22.513822354138323,-48.45783074832704,-9.395356943962923,46.90799999999581
312289.8927,-55.79650120160141,-22.498193809459096,-46.12275210548618,-8.18749315628458,46.90900000004331
312289.8937,-50.95238511046375,-21.68601402034276,-42.32320437945301,-6.432354623342423,46.910000000032596
312289.8947,-44.42661323621807,-19.998382964635404,-37.048748469348936,-4.061651166297178,46.911000000021886
312289.8957,-36.304754077451555,-17.405299453090013,-30.35705658566033,-1.0489131925037338,46.912000000011176
312289.8967,-26.75008530572804,-13.930271866199401,-22.375797028553265,2.5856667791089443,46.913000000000466
312289.8977,-16.00032423403129,-9.651394518580746,-13.30039456867849,6.773793586961009,46.913999999989755
312289.8987,-4.359805137161116,-4.698717536091159,-3.387619581935069,11.401218217089792,46.91500000003725
312289.8997,7.812565836784683,0.7519738400049678,7.054734492325201,16.313371043668244,46.91600000002654
312289.9007,20.118931772979206,6.488573769885226,17.681533158527508,21.32408916374407,46.91700000001583
312289.9017,32.140765526443786,12.274617923380656,28.126535803924252,26.226794779813357,46.91800000000512
312289.9027,43.458691078802964,17.86295017418869,38.020182393221084,30.80728372614721,46.91899999999441
312289.9037,53.67261011238179,23.010123402402705,47.00781208505173,34.857157218680086,46.92000000004191
312289.9047,62.420875766712854,27.49051615302302,54.76716109113206,38.186886205356565,46.9210000000312
312289.9057,69.39732909149748,31.109182118431296,61.02404256134124,40.63753933896365,46.92200000002049
312289.9067,74.36517648116128,33.712563590659876,65.56525000562621,42.09032797094641,46.92300000000978
312289.9077,77.16692408721393,35.19638222463042,68.24793563631208,42.47331288931042,46.92399999999907
312289.9087,77.72987736755424,35.510253883029335,69.00497792892128,41.76485998389162,46.925000000046566
312289.9097,76.06703571117887,34.65883795633958,67.84614620433942,39.99370345774969,46.926000000035856
312289.9107,72.27353652056432,32.699602031640794,64.85516935754009,37.235751174047515,46.927000000025146
312289.9117,66.51910357398866,29.73753664227035,60.18309613724601,33.608022773419336,46.928000000014435
312289.9127,59.03720689225231,25.91737058608286,54.0385728966494,29.26032507891654,46.929000000003725
312289.9137,50.11182638802292,21.413997397958273,46.67584292450505,24.36542302296504,46.929999999993015
312289.9147,40.06281633468695,16.421915913973137,38.38137653910441,19.108545725777518,46.93100000004051
312289.9157,29.230886620120653,11.144506861814312,29.460067137910745,13.677071164968556,46.9320000000298
312289.9167,17.963152091111414,5.783914325422399,20.221876664364757,8.251161138542834,46.93300000001909
312289.9177,6.600062720133086,0.5321836666849671,10.969692818339414,2.9959799964395866,46.93400000000838
312289.9187,-4.535669076350435,-4.435860278079613,1.9889842500299393,-1.944058951983205,46.93499999999767
312289.9197,-15.147760972868946,-8.96771111561684,-6.460371961294839,-6.448796616792741,46.93600000004517
312289.9207,-24.972536722101967,-12.936183322119843,-14.149942179310433,-10.423588528590013,46.93700000003446
312289.9217,-33.78268489055015,-16.240450187141125,-20.88633654773502,-13.79854680553816,46.93800000002375
312289.9227,-41.38890212953785,-18.805421842464472,-26.512815068780167,-16.52616996853051,46.93900000001304
312289.9237,-47.639873742359626,-20.579896241820133,-30.909298331255986,-18.57789679675347,46.94000000000233
312289.9247,-52.421131222988066,-21.5339878314049,-33.99126501687424,-19.940186590274543,46.94099999999162
312289.9257,-55.65334371362471,-21.65634905417997,-35.70803771935195,-20.610725650262445,46.942000000039116
312289.9267,-57.290549819385944,-20.951650281298264,-36.040915758223676,-20.595290698754596,46.943000000028405
312289.9277,-57.31872694815728,-19.438682107226512,-35.0015168137519,-19.905673463497227,46.944000000017695
312289.9287,-55.75494244572058,-17.14930344586657,-32.630552328638146,-18.55890180561095,46.945000000006985
312289.9297,-52.64715382290755,-14.128296722912099,-28.997102815065702,-16.577800928392357,46.945999999996275
312289.9307,-48.074546130533264,-10.4340269113609,-24.19829864633549,-13.992744952408128,46.94700000004377
312289.9317,-42.14813470396581,-6.139653377174606,-18.359169595462212,-10.84427596022737,46.94800000003306
312289.9327,-35.011240269636744,-1.3345295398800938,-11.6323199175192,-7.1861336167830405,46.94900000002235
312289.9337,-26.839375460595967,3.874641667400627,-4.197028476412361,-3.0881584037480554,46.95000000001164
312289.9347,-17.839075772798793,9.36334077931614,3.742627080525967,1.3614857550622477,46.95100000000093
312289.9357,-8.245265673089603,14.989853070914833,11.960965607005006,6.055276006120697,46.95199999999022
312289.9367,1.6831332795207987,20.597281290288276,20.215450533384224,10.866880819121842,46.95300000003772
312289.9377,11.669482412280951,26.017114003597758,28.253072365898294,15.653537462158699,46.95400000002701
312289.9387,21.427530949764797,31.074346858340935,35.81826981577361,20.260308032484446,46.9550000000163
312289.9397,30.671079759687238,35.59397693485813,42.66210938413861,24.52606182430207,46.95600000000559
312289.9407,39.1247456949504,39.40852171516218,48.55227171307737,28.2908359530005,46.95699999999488
312289.9417,46.53520857053333,42.366072187531515,53.28325323032,31.404058441368807,46.958000000042375
312289.9427,52.68221277311758,44.33828989877023,56.686099603680226,33.732996209198504,46.959000000031665
312289.9437,57.38854838318404,45.227712011112686,58.63695490188556,35.17072798614516,46.960000000020955
312289.9447,60.528259694706115,44.97374306280737,59.06374316820228,35.642946747271665,46.961000000010245
312289.9457,62.032422651000154,43.55678773106025,57.950397160524126,35.112968993348176,46.961999999999534
312289.9467,61.89199064931528,41.00010999951004,55.33820579884051,33.5844635187859,46.962999999988824
312289.9477,60.157417739213,37.369179708073816,51.324055082793485,31.10159845493496,46.96400000003632
312289.9487,56.93501154405575,32.768471869669476,46.055569820002354,27.7465253923836,46.96500000002561
312289.9497,52.38022371480868,27.335898547108275,39.72340508133546,23.634352697288488,46.9660000000149
312289.9507,46.688330143023606,21.23525723356458,32.55116506524659,18.905984475477382,46.96700000000419
312289.9517,40.08316376792456,14.647253815082768,24.783621772302734,13.719395176199457,46.96799999999348
312289.9527,32.8047195353243,7.759785000783092,16.674047921630667,8.240053315959656,46.96900000004098
312289.9537,25.09653848417301,0.7582314712206932,8.471553681403233,2.6312865091957014,46.97000000003027
312289.9547,17.193786875593553,-6.1834886078427145,0.4093167503420976,-2.9546147602267743,46.97100000001956
312289.9557,9.312874834718706,-12.910426691441163,-7.305481301504517,-8.38382704924206,46.97200000000885
312289.9567,1.6433128523602623,-19.292126570475602,-14.499346986807867,-13.546369243123333,46.97299999999814
312289.9577,-5.657703394476005,-25.22580309585116,-21.037335445458044,-18.35903101160672,46.974000000045635
312289.9587,-12.467740095074172,-30.637036911011958,-26.824865609136324,-22.765696766843732,46.975000000034925
312289.9597,-18.698634494667278,-35.47807811656662,-31.806539378046377,-26.73515801058359,46.976000000024214
312289.9607,-24.29336051257116,-39.72407554009517,-35.96227084884999,-30.256749194972254,46.977000000013504
312289.9617,-29.22077793666621,-43.367740937369874,-39.30125757927448,-33.33435230586428,46.978000000002794
312289.9627,-33.46897171937889,-46.41309986460091,-41.85449984447448,-35.979472346783986,46.978999999992084
312289.9637,-37.03799654025495,-48.86905872754844,-43.66667938870732,-38.204173792487595,46.98000000003958
312289.9647,-39.932869258318796,-50.74352247432017,-44.78823636764032,-40.01467758692931,46.98100000002887
312289.9657,-42.15759562767929,-52.03872855090218,-45.268429636548525,-41.40634774348231,46.98200000001816
312289.9667,-43.71088340898713,-52.74832642757955,-45.15003676169165,-42.36065235146872,46.98300000000745
312289.9677,-44.58399523557057,-52.856541377687144,-44.46615900113987,-42.844479473735575,46.98399999999674
312289.9687,-44.760951199324246,-52.33953495254475,-43.23936206587713,-42.81194380410551,46.98500000004424
312289.9697,-44.22102752507014,-51.16883518837452,-41.48312908408932,-42.208558992166395,46.98600000003353
312289.9707,-42.94324040329129,-49.3164809576307,-39.20535319578661,-40.977399014008576,46.98700000002282
312289.9717,-40.912278983348706,-46.761330112479186,-36.41337841019268,-39.06665491590167,46.98800000001211
312289.9727,-38.125181452342176,-43.495840027935905,-33.11993054936173,-36.43783248957004,46.9890000000014
312289.9737,-34.5979503287465,-39.53255647584338,-29.34918184712433,-33.07374832581276,46.98999999999069
312289.9747,-30.37128765826811,-34.90955036228701,-25.142172758572567,-28.98547552138279,46.991000000038184
312289.9757,-25.514699552449894,-29.694122105321544,-20.560874595803746,-24.217467329181996,46.992000000027474
312289.9767,-20.12836588497384,-23.984243072932813,-15.690310552726876,-18.850240314156682,46.993000000016764
312289.9777,-14.342380641042475,-17.907408399181854,-10.638346952415805,-13.000213682302372,46.994000000006054
312289.9787,-8.31322079786817,-11.616816012012613,-5.533001601960632,-6.816557902481239,46.99499999999534
312289.9797,-2.217571889840818,-5.28503966578036,-0.517368447746619,-0.47517903236596937,46.99600000004284
312289.9807,3.7560999386917095,0.9043952272807045,4.257497824979411,5.829770805920207,46.99700000003213
312289.9817,9.41761214592363,6.766918342747408,8.641181178347118,11.89623668420977,46.99800000002142
312289.9827,14.585977892883054,12.127538227322436,12.493271932799205,17.525664093170462,46.99900000001071
312289.9837,19.100279322905976,16.83133593903869,15.692695798189646,22.534566849097917,47.0
312289.9847,22.829599081478175,20.752976622429333,18.14618268033664,26.765344076863634,47.00099999998929
312289.9857,25.681174305167783,23.804459480186928,19.795116936817234,30.095492754847207,47.00200000003679
312289.9867,27.606081151200208,25.940469007612535,20.620145121924484,32.44450018090648,47.00300000002608
312289.9877,28.601964490135444,27.160889139387457,20.64310938263258,33.7779006610693,47.00400000001537
312289.9887,28.712576898337893,27.510278346810445,19.926105809493116,34.10822338561763,47.00500000000466
312289.9897,28.024160040611317,27.074355692754416,18.56771505544981,33.49282081833164,47.005999999993946
312289.9907,26.658964944975562,25.973792279100465,16.696694051839227,32.02882456685335,47.007000000041444
312289.9917,24.766441513045052,24.355817404148276,14.46363037871498,29.845705176831242,47.008000000030734
312289.9927,22.512811071703556,22.38431526339393,12.031225662789188,27.096093334984662,47.00900000002002
312289.9937,20.069853169395465,20.229192247009042,9.563977076818007,23.945637351236048,47.01000000000931
312289.9947,17.60377996199724,18.055828979342266,7.218058543939346,20.5627166568504,47.0109999999986
312289.9957,15.265036439467993,16.015394067057237,5.132164312493443,17.108801588240482,47.0120000000461
312289.9967,13.179757662023762,14.236693558515784,3.4199725735000044,13.73015114187376,47.01300000003539
312289.9977,11.443446904333621,12.820072790610029,2.1647271814357505,10.551384251377506,47.01400000002468
312289.9987,10.117228228162642,11.833691735386765,1.416237536234762,7.67126310042252,47.01500000001397
312289.9997,9.226794137011137,11.312280339010996,1.1903796547480507,5.160809054022617,47.01600000000326
312290.0007,8.763935741632435,11.258267021709234,1.4709660034395522,3.0636543501188687,47.01699999999255
312290.0017,8.69033080994437,11.644981059441221,2.2136576525497813,1.398336434216258,47.01800000004005
312290.0027,8.943093105824028,12.421474988916515,3.351437044582867,0.1620847925818117,47.01900000002934
312290.0037,9.441469130044775,13.518409345816604,4.801056315233322,-0.6644539038424545,47.02000000001863
312290.0047,10.09401475258354,14.854396618738699,6.469832560709596,-1.1121493587667357,47.021000000007916
312290.0057,10.80559692443071,16.342216115206273,8.262179710180646,-1.218556503655764,47.021999999997206
312290.0067,11.48364087066226,17.894382461184676,10.085342761793008,-1.0238168213157728,47.0230000000447
312290.0077,12.043171097856646,19.427668296804136,11.853924610048761,-0.567660959268273,47.02400000003399
312290.0087,12.410360444539577,20.86633262621737,13.49295455951107,0.11228106230339331,47.02500000002328
312290.0097,12.524487046743541,22.143973500089192,14.939423803037563,0.980834383698854,47.02600000001257
312290.0107,12.33838461983846,23.204089234521852,16.142388131197965,2.0044462107621186,47.02700000000186
312290.0117,11.817637339879587,23.999578682284337,17.06189380712478,3.1494657099903454,47.02799999999115
312290.0127,10.93889958989988,24.491522904585107,17.667102928677952,4.379951649147454,47.02900000003865
312290.0137,9.687799685944539,24.647656466978393,17.934067500801664,5.655485397080536,47.03000000002794
312290.0147,8.056907559334821,24.440949987417902,17.843619636207816,6.929471463893763,47.03100000001723
312290.0157,6.044207600720478,23.8486856341119,17.379807317216784,8.148353221333293,47.03200000000652
312290.0167,3.652424240163354,22.852318908578237,16.529215445011957,9.252063322676273,47.03299999999581
312290.0177,0.8894100794000244,21.43829344446077,15.281380455474197,10.175878015425509,47.03400000004331
312290.0187,-2.2303598846897557,19.59982513987482,13.630348106389826,10.853668101976579,47.035000000032596
312290.0197,-5.683320337032907,17.33951489784172,11.577255708880347,11.222355924536409,47.036000000021886
312290.0207,-9.43367185584446,14.672503686114512,9.133660895054097,11.227217688514001,47.037000000011176
312290.0217,-13.429994767867743,11.629766660425874,6.325207059921306,10.82753290342907,47.038000000000466
312290.0227,-17.60214371471027,8.26106900735547,3.1951263140736064,10.001993827100907,47.038999999989755
312290.0237,-21.858977790994405,4.637084853789307,-0.19295474629730483,8.753258827282394,47.04000000003725
312290.0247,-26.087449483620397,0.8502164758631798,-3.753417305208275,7.111069725265572,47.04100000002654
312290.0257,-30.1534815741261,-2.9862574730566718,-7.378688833907128,5.133452964305192,47.04200000001583
312290.0267,-33.904912269586966,-6.740936418172617,-10.941211312692623,2.905679742178438,47.04300000000512
312290.0277,-37.17659861011868,-10.269011756525039,-14.297458072374253,0.5368570956637323,47.04399999999441
312290.0287,-39.79755475220429,-13.418803311590633,-17.29392032371934,-1.8457581409648773,47.04500000004191
312290.0297,-41.59978593210979,-16.039788183350808,-19.77478259404243,-4.104408717532412,47.0460000000312
312290.0307,-42.42828238774288,-17.99161835136085,-21.5908204675176,-6.099933878964769,47.04700000002049
312290.0317,-42.151480464276446,-19.153487720711155,-22.60890307657819,-7.701636049963385,47.04800000000978
312290.0327,-40.6713973341479,-19.43312616671074,-22.721382510463688,-8.797134391531017,47.04899999999907
312290.0337,-37.93261291358583,-18.77467750032222,-21.85461387159915,-9.301385521887434,47.050000000046566
312290.0347,-33.929313056635344,-17.164764316144563,-19.97587856226422,-9.164088432281925,47.051000000035856
312290.0357,-28.709720483552484,-14.636153296178918,-17.098078657651854,-8.374799220753276,47.052000000025146
312290.0367,-22.37741588971213,-11.2686014707145,-13.281724779812992,-6.965253238478433,47.053000000014435
312290.0377,-15.089276958316427,-7.186673491748595,-8.63394095515328,-5.0086130859300395,47.054000000003725
312290.0387,-7.05001849052293,-2.554554272727015,-3.304440273244055,-2.615611396770439,47.054999999993015
312290.0397,1.4964194901560874,2.431880030599057,2.521335352409,0.07218463938698476,47.05600000004051
312290.0407,10.278140009925917,7.55524784459433,8.631490525383612,2.8915175706520353,47.0570000000298
312290.0417,19.008506024704353,12.588434565371157,14.79875070154265,5.668318165252749,47.05800000001909
312290.0427,27.400441326351675,17.307148964040383,20.792573676177483,8.22949411985352,47.05900000000838
312290.0437,35.18086312477109,21.502393744351696,26.39145320292723,10.414725114407863,47.05999999999767
312290.0447,42.10428282692624,24.991984150315023,31.394556468770194,12.08735718088811,47.06100000004517
312290.0457,47.96467782061895,27.630323099269745,35.631894883216084,13.143563392983344,47.06200000003446
312290.0467,52.604874681799636,29.315780101582437,38.97235103063739,13.519082576613874,47.06300000002375
312290.0477,55.9228807902129,29.995211891133103,41.32906244704547,13.193050166433212,47.06400000001304
312290.0487,57.87483938070049,29.66538832711832,42.66187902886143,12.188677373610268,47.06500000000233
312290.0497,58.474541625110604,28.371327835974864,42.97684592991072,10.570794840404561,47.06599999999162
312290.0507,57.78968595776239,26.20178139495021,42.3228968024198,8.440531768931582,47.067000000039116
312290.0517,55.9353076037995,23.28231257323718,40.78615268061751,5.927628580844794,47.068000000028405
312290.0527,53.06499078065923,19.76658586777824,38.482391543168006,3.1810606606731104,47.069000000017695
312290.0537,49.36060725724584,15.82658319002864,35.5483685145066,0.358767372278875,47.070000000006985
312290.0547,45.02138843447265,11.642511015679567,32.132717989388524,-2.3826750282966453,47.070999999996275
312290.0557,40.25313080855735,7.3931366403270475,28.387153986042172,-4.897628302417407,47.07200000004377
312290.0567,35.25826009272767,3.2472055939439426,24.458607292712593,-7.0595074214003,47.07300000003306
312290.0577,30.227346970085822,-0.6435464005360907,20.482806810504545,-8.766888805755189,47.07400000002235
312290.0587,25.332492018883993,-4.149449856181949,16.57964204903836,-9.94726804098542,47.07500000001164
312290.0597,20.72279690041578,-7.165885499106264,12.850451484951883,-10.558350571638716,47.07600000000093
312290.0607,16.521933258948252,-9.614251989521923,9.377186538389488,-10.586987575586376,47.07699999999022
312290.0617,12.827629587565644,-11.44115278592755,6.223222103867005,-10.046078035434508,47.07800000003772
312290.0627,9.712737156511732,-12.61618250109604,3.435438698988731,-8.969927730236515,47.07900000002701
312290.0637,7.227422923466935,-13.128791096221548,1.047101586321582,-7.408671317266494,47.0800000000163
312290.0647,5.401979207762302,-12.984747458056962,-0.9189828791592437,-5.422415156727901,47.08100000000559
312290.0657,4.249740239611069,-12.202709961488427,-2.4475409800113677,-3.07574264210377,47.08199999999488
312290.0667,3.769652073723987,-10.811343830775925,-3.5285755064396436,-0.4331436658884228,47.083000000042375
312290.0677,3.9481468621050304,-8.847312006584275,-4.1561059011662245,2.4442052264909413,47.084000000031665
312290.0687,4.76011254019604,-6.354320680757308,-4.3280828228435615,5.500058947196217,47.085000000020955
312290.0697,6.1689086557478925,-3.383238610732306,-4.0474891043767585,8.683066835309344,47.086000000010245
312290.0707,8.125540655893392,0.006851812687810987,-3.324472324488837,11.945226579335309,47.086999999999534
312290.0717,10.567250732473518,3.746956805913412,-2.179204430176285,15.239156253375736,47.087999999988824
312290.0727,13.41589734192091,7.756221452568049,-0.645046880940002,18.514655917531634,47.08900000003632
312290.0737,16.576565119964034,11.940187075627943,1.228471805719878,21.715123122246187,47.09000000002561
312290.0747,19.936864029099652,16.189726610456304,3.3733773815901174,24.774418637490623,47.0910000000149
312290.0757,23.367338499495833,20.38108604121326,5.702143278920691,27.614746310919852,47.09200000000419
312290.0767,26.723316976588066,24.377365963830705,8.108137815127046,30.146016986577557,47.09299999999348
312290.0777,29.848397950102537,28.03164077776871,10.467870035222392,32.26701976938962,47.09400000004098
312290.0787,32.57960304970593,31.19174684307162,12.645109418479752,33.86853865884744,47.09500000003027
312290.0797,34.75404732865033,33.706591244900665,14.496768274387186,34.838346587894726,47.09600000001956
312290.0807,36.21679939439134,35.43365726114723,15.880250305973584,35.06780221697247,47.09700000000885
312290.0817,36.829447650526205,36.24722883601042,16.661802575663863,34.45958772576842,47.09799999999814
312290.0827,36.47877001821297,36.04674018733551,16.725277548030867,32.93597693681238,47.099000000045635
312290.0837,35.084836311176936,34.76459071516829,15.980630549538567,30.446927600521857,47.100000000034925
312290.0847,32.6078636082821,32.372757723643495,14.371455082616672,26.977259906617537,47.101000000024214
312290.0857,29.05319870387236,28.887592859746675,11.880897893102858,22.55221971216945,47.102000000013504
312290.0867,24.47391533280169,24.372299643917508,8.535395707242959,17.240827672191045,47.103000000002794
312290.0877,18.970678902669164,18.93675050947578,4.405828624377849,11.156576236766044,47.103999999992084
312290.0887,12.688734344708566,12.734499019322673,-0.39412134207729593,4.455241573644837,47.10500000003958
312290.0897,5.8120958964376275,5.957059343905866,-5.712400790817128,-2.6701912267656365,47.10600000002887
312290.0907,-1.4447587289524217,-1.1742585176562772,-11.365576855120935,-9.997254602855891,47.10700000001816
312290.0917,-8.847183635092959,-8.41847243826151,-17.147956319255393,-17.283920985554076,47.10800000000745
312290.0927,-16.15197852357447,-15.526366149376974,-22.84222535491228,-24.280081371786387,47.10899999999674
312290.0937,-23.119539648100258,-22.25248986094918,-28.230880919127262,-30.73980909499225,47.11000000004424
312290.0947,-29.52572146182026,-28.366927120562618,-33.107663730301965,-36.43357210511078,47.11100000003353
312290.0957,-35.17260715735609,-33.666053279200405,-37.28820844517885,-41.159562395156044,47.11200000002282
312290.0967,-39.897478909730104,-37.98159719844672,-40.619198474744636,-44.753386791547854,47.11300000001211
312290.0977,-43.579430792060926,-41.1874605379772,-42.985443821369515,-47.095501687450515,47.1140000000014
312290.0987,-46.143264950769755,-43.203934721710105,-44.314477824241294,-48.11596208299762,47.11499999999069
312290.0997,-47.56053624724925,-43.99916710190283,-44.57847584615848,-47.796274591229064,47.116000000038184
312290.1007,-47.847841183399936,-43.587945223234684,-43.79351613738814,-46.16837419787562,47.117000000027474
312290.1017,-47.06266203520522,-42.02807137367688,-42.016410079677755,-43.31096414813478,47.118000000016764
312290.1027,-45.29725688799954,-39.41477035976749,-39.33950677429228,-39.343647413667384,47.119000000006054
312290.1037,-42.671214508154755,-35.87369666807831,-35.88400972689114,-34.41942018743866,47.11999999999534
312290.1047,-39.3233587655412,-31.553172789175168,-31.792420186657473,-28.716181163491104,47.12100000004284
312290.1057,-35.403686043627985,-26.616294273766076,-27.220737305930676,-22.42792944517731,47.12200000003213
312290.1067,-31.06595291053506,-21.23348108173159,-22.331000734656342,-15.756279764059517,47.12300000002142
312290.1077,-26.46140894727859,-15.575946943013207,-17.284663634517464,-8.902823557426359,47.12400000001071
312290.1087,-21.73400528067495,-9.810411810503327,-12.237145706737618,-2.062721069869182,47.125
312290.1097,-17.017221355791666,-4.095213754075274,-7.333752878830495,4.580260204385074,47.12599999998929
312290.1107,-12.43246125988901,1.4221955669916122,-2.706981143783962,10.857222687754996,47.12700000003679
312290.1117,-8.088796933425431,6.6065448395179605,1.52493475381272,16.616258817392175,47.12800000002608
312290.1127,-4.083697190679792,11.335124869371505,5.258494743568474,21.723477329110995,47.12900000001537
312290.1137,-0.5042928770919328,15.497637492483989,8.40478117811773,26.06329150494215,47.13000000000466
312290.1147,2.5713015929147813,18.995919365874766,10.88906764437878,29.538365349004476,47.130999999993946
312290.1157,5.073059418831888,21.74392237173601,12.65055685525859,32.06959852622873,47.132000000041444
312290.1167,6.938867484597527,23.66825591219072,13.64254717516436,33.596463703100305,47.133000000030734
