TimeStamp,ECR,FCR,ECU,FCU,time_index
312243.9837,-4.68532432724453,-4.106963108907554,-2.045576969588811,-4.687074157439907,1.0
312243.9847,-3.424002408920333,-2.5778742713565537,-1.3094526824092576,-3.1066019044643185,1.0009999999892898
312243.9857,-2.274723963487081,-1.117677995666901,-0.7400197633689425,-1.6355619063421722,1.0020000000367872
312243.9867,-1.2552935475680114,0.24596690240180855,-0.34716839243972825,-0.31457367874164943,1.003000000026077
312243.9877,-0.3671254174345837,1.4992818374922454,-0.12283397028160636,0.8329225750189237,1.0040000000153668
312243.9887,0.40419497302462626,2.642213375122396,-0.041679025864330914,1.8009611554825102,1.0050000000046566
312243.9897,1.086578902178979,3.6866773297514324,-0.06360095216740191,2.5994994992520093,1.0059999999939464
312243.9907,1.7175601929366326,4.653407479338357,-0.13783794959851564,3.251221295601522,1.0070000000414439
312243.9917,2.339270710639818,5.5677646573018125,-0.20827918879990032,3.787065018295023,1.0080000000307336
312243.9927,2.9927823713742225,6.454976062428581,-0.21945685290841543,4.240980690925402,1.0090000000200234
312243.9937,3.7124062593566483,7.335340562560993,-0.12262056102041038,4.64449813251779,1.0100000000093132
312243.9947,4.520554087186497,8.21994644959344,0.11872312067043808,5.021710547075059,1.010999999998603
312243.9957,5.42372067764902,9.107401950651978,0.5243794758533857,5.385235732398581,1.0120000000461005
312243.9967,6.410042426695377,9.981979951630281,1.0946143194763223,5.733617221414184,1.0130000000353903
312243.9977,7.448735569159727,10.813436326645624,1.8092039346103757,6.050479043495059,1.01400000002468
312243.9987,8.491534051608543,11.558589909629946,2.6285234428073534,6.305565163566309,1.0150000000139698
312243.9997,9.476047854313608,12.164568496485384,3.4966104804004536,6.457596208838938,1.0160000000032596
312244.0007,10.330768280834617,12.573447750792525,4.345944256309933,6.458681757597664,1.0169999999925494
312244.0017,10.981276365877312,12.72785652479375,5.103506232466769,6.259855951404247,1.0180000000400469
312244.0027,11.357081284722977,12.577008727039852,5.69755517350831,5.817175031757683,1.0190000000293367
312244.0037,11.39844074852827,12.082560508494144,6.064469740314438,5.097741187217478,1.0200000000186265
312244.0047,11.06250289384456,11.223689221640445,6.154994578887629,4.085006098368187,1.0210000000079162
312244.0057,10.328161128679099,10.000848588994534,5.939273385490682,2.782761865628304,1.021999999997206
312244.0067,9.199125492640366,8.437768105258524,5.410160804569078,1.2173422205278635,1.0230000000447035
312244.0077,7.704876107812852,6.581423646966404,4.584464348198668,-0.5622774149199806,1.0240000000339933
312244.0087,5.899361043221734,4.4998957269479885,3.5019628537550327,-2.4865919359217528,1.025000000023283
312244.0097,3.8575136554053495,2.2782337636701646,2.222260701531965,-4.469785403017675,1.0260000000125729
312244.0107,1.669872728253604,0.01263962818554677,0.8197466009149793,-6.415740767243095,1.0270000000018626
312244.0117,-0.5642277135187339,-2.196547499765885,-0.6228881706106676,-8.225339954296873,1.0279999999911524
312244.0127,-2.744291217510305,-4.252457083019579,-2.0219729323846782,-9.804413908344431,1.0290000000386499
312244.0137,-4.776422575300826,-6.0692060108131844,-3.300335003081894,-11.071621363325761,1.0300000000279397
312244.0147,-6.580511922785539,-7.578645515180159,-4.3942214842060565,-11.965522139498065,1.0310000000172295
312244.0157,-8.09617796844676,-8.735709736690303,-5.259001055760019,-12.450167992470883,1.0320000000065193
312244.0167,-9.286921807572078,-9.52185794798122,-5.873091345378276,-12.518657037910959,1.032999999995809
312244.0177,-10.142108815660755,-9.946270689932794,-6.239721796178286,-12.19427569595477,1.0340000000433065
312244.0187,-10.676599839280652,-10.044662663085456,-6.3863453957293235,-11.529068682546093,1.0350000000325963
312244.0197,-10.928074970552874,-9.875793280266567,-6.361735873079803,-10.59991265687108,1.036000000021886
312244.0207,-10.952312343855304,-9.515968793360265,-6.231028688659632,-9.50240056002121,1.0370000000111759
312244.0217,-10.81687950711006,-9.052017620142541,-6.069162980946687,-8.343049420864054,1.0380000000004657
312244.0227,-10.59384705459492,-8.573364919751253,-5.953338289659141,-7.2305046782536735,1.0389999999897555
312244.0237,-10.352228454779615,-8.163919587083168,-5.955198972174751,-6.2665132581340055,1.040000000037253
312244.0247,-10.150876958418136,-7.894508004628357,-6.1334908332393425,-5.537465832746077,1.0410000000265427
312244.0257,-10.0325271703697,-7.816541675405999,-6.5278950992903715,-5.1072626531389975,1.0420000000158325
312244.0267,-10.019559129595848,-7.95749432739733,-7.154637803579267,-5.012140910623759,1.0430000000051223
312244.0277,-10.111896827996071,-8.318598434760974,-8.004307757427817,-5.257925300462027,1.043999999994412
312244.0287,-10.28724676261629,-8.87496674745585,-9.042109038771022,-5.819943639963123,1.0450000000419095
312244.0297,-10.503655104279265,-9.578120508452168,-10.210543963002163,-6.645606562788753,1.0460000000311993
312244.0307,-10.704136228022918,-10.360683644673774,-11.434291730071825,-7.659407272584183,1.047000000020489
312244.0317,-10.822922530498671,-11.142802338520633,-12.62683846377135,-8.769876984788421,1.0480000000097789
312244.0327,-10.792725375471411,-11.839690918651062,-13.698246319967257,-9.877854801437932,1.0489999999990687
312244.0337,-10.552295330482524,-12.369602932969128,-14.563338979390348,-10.885314025039502,1.0500000000465661
312244.0347,-10.053536665707488,-12.66149020082011,-15.149538904878968,-11.703941275662656,1.051000000035856
312244.0357,-9.267469866407971,-12.661645904317718,-15.403622429121382,-12.262694395407904,1.0520000000251457
312244.0367,-8.188443188871716,-12.338727063573513,-15.296759264328662,-12.513666977943487,1.0530000000144355
312244.0377,-6.836159941120482,-11.686707427540249,-14.827363876538838,-12.43575151626555,1.0540000000037253
312244.0387,-5.255296376987906,-10.725508894033842,-14.021492003555782,-12.035803745396882,1.054999999993015
312244.0397,-3.5127158646981056,-9.499279104101557,-12.930746721341515,-11.347247491135093,1.0560000000405125
312244.0407,-1.6925160948596827,-8.072503787009543,-11.627892729471272,-10.426299507157834,1.0570000000298023
312244.0417,0.11064479358579199,-6.524343645466329,-10.20059247256803,-9.346214442269405,1.0580000000190921
312244.0427,1.7993304056618413,-4.94174792631738,-8.743852750489596,-8.190130266636885,1.059000000008382
312244.0437,3.281495362234961,-3.4120050078261452,-7.351888872408722,-7.043217252429195,1.0599999999976717
312244.0447,4.478280892808579,-2.015434342510481,-6.1101639478499585,-5.984887644109686,1.0610000000451691
312244.0457,5.3307092985503335,-0.8189001761209133,-5.088338931410054,-5.081803877249398,1.062000000034459
312244.0467,5.804652788801165,0.12926152600795626,-4.334776925187382,-4.382333155792366,1.0630000000237487
312244.0477,5.893614862180457,0.8024564184362025,-3.873092159271303,-3.9129447717674437,1.0640000000130385
312244.0487,5.6190690684885665,1.1969251358629653,-3.701035065081588,-3.676849046208329,1.0650000000023283
312244.0497,5.028330680194709,1.3306656120964493,-3.7917793828343873,-3.6549528618972995,1.065999999991618
312244.0507,4.190169248010631,1.2403447916497023,-4.097447253128941,-3.8089785561257843,1.0670000000391155
312244.0517,3.188581808718683,0.9765533035225189,-4.5544960295985,-4.086382808596239,1.0680000000284053
312244.0527,2.1153173045938907,0.5979127129014239,-5.090416576326672,-4.426540520989879,1.0690000000176951
312244.0537,1.0618562485402934,0.16464896753273164,-5.631073712530952,-4.767542033390047,1.070000000006985
312244.0547,0.1115951329702924,-0.2677121209039588,-6.10796642787602,-5.052901321016434,1.0709999999962747
312244.0557,-0.6670415134535652,-0.6538946552376705,-6.464703190252748,-5.237492448465048,1.0720000000437722
312244.0567,-1.225934195341522,-0.9631205943544773,-6.662073837925304,-5.292118944846133,1.073000000033062
312244.0577,-1.5405745067579426,-1.1816478159245323,-6.681245240082353,-5.206266647381204,1.0740000000223517
312244.0587,-1.6110711242316036,-1.3133685209508368,-6.524798405955183,-4.988779972094793,1.0750000000116415
312244.0597,-1.4608061805371237,-1.3784376608932687,-6.215541014551299,-4.666415335298817,1.0760000000009313
312244.0607,-1.1329185046895103,-1.4101017475252766,-5.7932500191733824,-4.280442115559989,1.0769999999902211
312244.0617,-0.6849968402679991,-1.450080345126198,-5.309702368546208,-3.881659515718332,1.0780000000377186
312244.0627,-0.1825334469757459,-1.5429977764706777,-4.822518148526352,-3.524357355069836,1.0790000000270084
312244.0637,0.30819948895386745,-1.7304568858088707,-4.388453544533255,-3.2598545114326063,1.0800000000162981
312244.0647,0.7271418833423493,-2.0453810176699814,-4.056830255897715,-3.13029020969903,1.081000000005588
312244.0657,1.0266207587269303,-2.5072216159848937,-3.863769015682411,-3.163316815616671,1.0819999999948777
312244.0667,1.1761127487592262,-3.1185402192422766,-3.827810076201111,-3.368251207004694,1.0830000000423752
312244.0677,1.1651458855910162,-3.8633342355972364,-3.9473617561315963,-3.734094561061716,1.084000000031665
312244.0687,1.004082026745962,-4.7072998187820305,-4.200233788455091,-4.229642387086004,1.0850000000209548
312244.0697,0.7227341781177349,-5.6000300816800115,-4.545303717179614,-4.805696689496457,1.0860000000102445
312244.0707,0.3669880751080325,-6.47895222402098,-4.926152656990556,-5.3991811936872764,1.0869999999995343
312244.0717,-0.006206473050942234,-7.27463222147253,-5.276312230054246,-5.938769542570252,1.0879999999888241
312244.0727,-0.3349509245043264,-7.91693779014948,-5.525606436556215,-6.351484151185472,1.0890000000363216
312244.0737,-0.5589917670063486,-8.341462931790801,-5.6069658870623815,-6.569624954415853,1.0900000000256114
312244.0747,-0.6261229250444282,-8.495588958206755,-5.46304731669982,-6.537352191639992,1.0910000000149012
312244.0757,-0.49775229463736687,-8.343590106924935,-5.052012556156408,-6.216278942710863,1.092000000004191
312244.0767,-0.15307688098693506,-7.870283224926507,-4.351905604790074,-5.589524073548994,1.0929999999934807
312244.0777,0.4085455575806621,-7.0828613343370135,-3.3632053967263915,-4.663825043953338,1.0940000000409782
312244.0787,1.167257190883935,-6.010726247540918,-2.10931124427748,-3.4694978849947273,1.095000000030268
312244.0797,2.0844172788529822,-4.703328438820951,-0.634919887465745,-2.058239993693151,1.0960000000195578
312244.0807,3.106194293670317,-3.2262141240162743,0.9975424042407838,-0.49897970677991416,1.0970000000088476
312244.0817,4.168665176536826,-1.6556511934179257,2.7130822212607635,1.127835516022501,1.0979999999981374
312244.0827,5.2039052927591145,-0.0723405989381163,4.430394139565591,2.736971362572079,1.0990000000456348
312244.0837,6.146456215295877,1.4451949778409583,6.068605798660804,4.2455225355427055,1.1000000000349246
312244.0847,6.939523450708034,2.8269259001222404,7.553868890028356,5.579741755964693,1.1010000000242144
312244.0857,7.540285743347221,4.016747183136962,8.825174081173483,6.68094312876847,1.1020000000135042
312244.0867,7.923788386458824,4.976529554667575,9.838850592280927,7.509934626257828,1.103000000002794
312244.0877,8.085035739637682,5.688429323418571,10.57134581902113,8.049580333519797,1.1039999999920838
312244.0887,8.039078533972388,6.15526700863613,11.020053370584112,8.30527678504474,1.1050000000395812
312244.0897,7.819091543264833,6.398972296904457,11.202151819384131,8.303331028256066,1.106000000028871
312244.0907,7.472636978388245,6.457279126722201,11.15161206309699,8.08743099015989,1.1070000000181608
312244.0917,7.056488811693675,6.3790214353319055,10.914709188693859,7.71358147001466,1.1080000000074506
312244.0927,6.630535508307754,6.218511249765959,10.544517691724653,7.244023906954,1.1089999999967404
312244.0937,6.251369462004267,6.029563873267646,10.094963014931867,6.74075107478353,1.1100000000442378
312244.0947,5.966202059311549,5.859762204649189,9.615038721171942,6.259260297656018,1.1110000000335276
312244.0957,5.807710935771774,5.745521532387435,9.14377406426522,5.843157908506705,1.1120000000228174
312244.0967,5.790334049858705,5.708430948200146,8.706454162313316,5.5201369563996,1.1130000000121072
312244.0977,5.90838292198034,5.753216606690901,8.312463018475482,5.299708922432977,1.114000000001397
312244.0987,6.1361689032581594,5.867508601649087,7.954951709202651,5.1728926361175445,1.1149999999906868
312244.0997,6.4301392713366115,6.023413501046893,7.6123470767200025,5.113867379383156,1.1160000000381842
312244.1007,6.732823657859084,6.180716315036357,7.251528910758953,5.083401728045142,1.117000000027474
312244.1017,6.9782149869662025,6.291376318499401,6.832334500809877,5.03369422190332,1.1180000000167638
312244.1027,7.09806989194711,6.304856178651931,6.312915291305172,4.914123608643451,1.1190000000060536
312244.1037,7.0285249082522645,6.173745226045804,5.655384337952528,4.677318560297653,1.1199999999953434
312244.1047,6.716395035142961,5.859112792051614,4.831163679304313,4.284927761355237,1.1210000000428408
312244.1057,6.124553127668926,5.335058329533935,3.8254703201488045,3.712503631392056,1.1220000000321306
312244.1067,5.235878607074402,4.592008062292821,2.64046513349822,2.9530031447452485,1.1230000000214204
312244.1077,4.0554030804393335,3.6384345933414823,1.2967219714979128,2.0185480542558314,1.1240000000107102
312244.1087,2.6104548168735016,2.500833435019252,-0.1671586577421038,0.9402603953182112,1.125
312244.1097,0.9487964530222558,1.2219630582494077,-1.6967824377707215,-0.23381981570670066,1.1259999999892898
312244.1107,-0.8650580515075104,-0.14247432454478448,-3.2258479262925084,-1.442538147983072,1.1270000000367872
312244.1117,-2.7549889721730123,-1.52838222462427,-4.681329496179616,-2.6167844726939133,1.128000000026077
312244.1127,-4.639384507206189,-2.868602404306512,-5.989469170328543,-3.6855077675808428,1.1290000000153668
312244.1137,-6.437641135428908,-4.098510150169686,-7.08200800415665,-4.582004519684176,1.1300000000046566
312244.1147,-8.076439295388072,-5.161330760090869,-7.902061473098294,-5.2498722911148565,1.1309999999939464
312244.1157,-9.495212795856975,-6.012668115330299,-8.409075394008944,-5.648053828626006,1.1320000000414439
312244.1167,-10.650316374212904,-6.623818625529792,-8.58238601156056,-5.754487074631807,1.1330000000307336
312244.1177,-11.517529179558773,-6.983567738554534,-8.423041391939195,-5.568013479639491,1.1340000000200234
312244.1187,-12.092699190597598,-7.0983190242970515,-7.953708042803616,-5.10836745452754,1.1350000000093132
312244.1197,-12.390517967456743,-6.990572216564272,-7.216670356973025,-4.414256758401279,1.135999999998603
312244.1207,-12.441598391961948,-6.695929928257927,-6.270113087247253,-3.5397286820828855,1.1370000000461005
312244.1217,-12.28819211729242,-6.258956843079012,-5.183040788636377,-2.5491819275338123,1.1380000000353903
312244.1227,-11.979012280909483,-5.728325835211323,-4.029317100703062,-1.5115130268867183,1.13900000002468
312244.1237,-11.563708168449486,-5.151751875744802,-2.8813884272545716,-0.49396654260807615,1.1400000000139698
312244.1247,-11.087564272753564,-4.571230395849064,-1.8042832031706812,0.4437174803962212,1.1410000000032596
312244.1257,-10.586964412704877,-4.019060688959875,-0.8504471251450724,1.2542993546740184,1.1419999999925494
312244.1267,-10.08607580771722,-3.5150508018262596,-0.05588969316688744,1.9067080381923847,1.1430000000400469
312244.1277,-9.595077121751183,-3.0651767953176536,0.5620133212572038,2.3880452532288126,1.1440000000293367
312244.1287,-9.110091803370098,-2.661818742709621,1.0048803425414956,2.703755247232941,1.1450000000186265
312244.1297,-8.614809965028718,-2.2855335039619167,1.291846372661865,2.8759721261651365,1.1460000000079162
312244.1307,-8.083606446798594,-1.9081664304063077,1.4564253377754628,2.940236523976726,1.146999999997206
312244.1317,-7.485807180926396,-1.496966499677087,1.5420509588368234,2.9409332392394676,1.1480000000447035
312244.1327,-6.790636065244889,-1.019265704869907,1.5967610037368059,2.9259257194793094,1.1490000000339933
312244.1337,-5.972302252834418,-0.44722418406398856,1.6675696214481295,2.940939806755437,1.150000000023283
312244.1347,-5.014670317879101,0.23786647301416214,1.795098190353813,3.024270603220078,1.1510000000125729
312244.1357,-3.9149949570329405,1.0421871069910167,2.009004407215185,3.20235073873281,1.1520000000018626
312244.1367,-2.6862939008874296,1.9572781065337386,2.3246654207829747,3.4866294038762704,1.1529999999911524
312244.1377,-1.3580684662784184,2.9594581688395944,2.741442116795929,3.8720781718327393,1.1540000000386499
312244.1387,0.02475274621672272,4.010869755658566,3.2426910160221563,4.3374751483644065,1.1550000000279397
312244.1397,1.4045915633279584,5.062082399601252,3.797513601245154,4.847439682718651,1.1560000000172295
312244.1407,2.715487957778851,6.056026815277536,4.364057740308684,5.35601350355636,1.1570000000065193
312244.1417,3.8884719110643524,6.932895980578744,4.89402954762469,5.811428163823197,1.157999999995809
312244.1427,4.85753601708297,7.635547613222134,5.337951978832292,6.1615785136071235,1.1590000000433065
312244.1437,5.565636643641961,8.114885995609438,5.65063074201791,6.359649457836177,1.1600000000325963
312244.1447,5.970138523534365,8.334695688089646,5.796266214478761,6.369325677072827,1.161000000021886
312244.1457,6.047162145316702,8.275446104263715,5.752684142743499,6.169053064520137,1.1620000000111759
312244.1467,5.79439123252581,7.936679900658371,5.514244615640672,5.75491254660476,1.1630000000004657
312244.1477,5.23203966614557,7.337730680444562,5.093119581692229,5.141802685873422,1.1639999999897555
312244.1487,4.401849794605953,6.5166738473462305,4.518791128122618,4.362793670294036,1.165000000037253
312244.1497,3.364180537057692,5.527583233820498,3.8357998644076226,3.4666956199137164,1.1660000000265427
312244.1507,2.193425960981631,4.436328966892681,3.099947566686116,2.5140608349781286,1.1670000000158325
312244.1517,0.9721653983271994,3.315293063069459,2.373313461840609,1.5719952547797562,1.1680000000051223
312244.1527,-0.21543097317510526,2.2374846832123985,1.7185637942017886,0.7082736299767814,1.168999999994412
312244.1537,-1.290343841960396,1.2705964821852715,1.1931076772565676,-0.014676071931128432,1.1700000000419095
312244.1547,-2.184980009174379,0.4715511516558802,0.8436713362058367,-0.5453377941733494,1.1710000000311993
312244.1557,-2.8484094538419984,-0.11795780463863152,0.7018256629974353,-0.8476820759228826,1.172000000020489
312244.1567,-3.2500891970343986,-0.47452057234382444,0.780912025621428,-0.9043046351536997,1.1730000000097789
312244.1577,-3.3817410913354915,-0.594383406897723,1.074677178275739,-0.7178214384920028,1.1739999999990687
312244.1587,-3.257224640124206,-0.4930213384266917,1.557762933873589,-0.3103815874719729,1.1750000000465661
312244.1597,-2.9104350457938115,-0.2029648339007179,2.188016086706841,0.2786578709567228,1.176000000035856
312244.1607,-2.391442700310688,0.22989994414932655,2.9104065164923023,0.9966721391412999,1.1770000000251457
312244.1617,-1.761255352415631,0.751192855616379,3.6621838534978286,1.782943160599625,1.1780000000144355
312244.1627,-1.0857123236447503,1.3035894748918428,4.378781004915706,2.574566838518709,1.1790000000037253
312244.1637,-0.4290990793149758,1.8325209744670814,4.999898262898372,3.3125191986783635,1.179999999993015
312244.1647,0.15190736171563607,2.2914745784700004,5.47518203984263,3.9472912897572514,1.1810000000405125
312244.1657,0.613388321019362,2.6463861729002063,5.76894955716876,4.4435436702450035,1.1820000000298023
312244.1667,0.9279465739695456,2.8787068747847036,5.863501538151181,4.783325951819135,1.1830000000190921
312244.1677,1.0867385124255688,2.9868557914323564,5.760700386411895,4.967545906096765,1.184000000008382
312244.1687,1.0996017656751025,2.9859291530165524,5.481658357277826,5.0155426074365685,1.1849999999976717
312244.1697,0.9932912998179498,2.9057061255264776,5.064562640720377,4.962802466982113,1.1860000000451691
312244.1707,0.8080214924434066,2.787157388943366,4.560844349544813,4.857037886754827,1.187000000034459
312244.1717,0.5926760917314935,2.6778079205623966,4.030058639308981,4.75300803616051,1.1880000000237487
312244.1727,0.3991763713322006,2.626416283656145,3.5339679978978475,4.706584385227322,1.1890000000130385
312244.1737,0.27657777546646967,2.6774983875657927,3.130398000498363,4.7686381422273305,1.1900000000023283
312244.1747,0.2654892462619379,2.8662378681191814,2.8674570277484195,4.979345392596219,1.190999999991618
312244.1757,0.39337505585303756,3.214286667163327,2.778676449221991,5.363466712784914,1.1920000000391155
312244.1767,0.6712098385984521,3.7268719340636585,2.8795390058988644,5.927065140255276,1.1930000000284053
312244.1777,1.0918224843385838,4.391497651074823,3.1657292378854014,6.655988661681295,1.1940000000176951
312244.1787,1.6300969323515653,5.178373925986132,3.613273833330038,7.51627423252126,1.195000000006985
312244.1797,2.245014180972449,6.042538905456357,4.180557864726489,8.456446204242102,1.1959999999962747
312244.1807,2.8833380310313057,6.92747413675103,4.812022704193773,9.411500789889867,1.1970000000437722
312244.1817,3.4845850261945817,7.769869925509964,5.443190450737456,10.308207413734744,1.198000000033062
312244.1827,3.9867925930896826,8.505086807163163,6.0065335423868715,11.071233009173838,1.1990000000223517
312244.1837,4.332520860357762,9.0727933296204,6.4376290301652785,11.629518549964676,1.2000000000116415
312244.1847,4.474500672000674,9.422245211633548,6.681012324301886,11.922315609523173,1.2010000000009313
312244.1857,4.380375067940859,9.516707880798768,6.695177317337676,11.904326409561722,1.2019999999902211
312244.1867,4.036070474791401,9.336609586393397,6.456255330324692,11.549479919913283,1.2030000000377186
312244.1877,3.447468202208474,8.881137183113726,5.960035790817561,10.853010169196345,1.2040000000270084
312244.1887,2.6402132949953603,8.168138880308542,5.222154038239501,9.831667759752337,1.2050000000162981
312244.1897,1.6576799282029375,7.232362696869825,4.276450167284524,8.522075378174591,1.206000000005588
312244.1907,0.5572924096424977,6.122219854980106,3.1716798411437495,6.977415180695565,1.2069999999948777
312244.1917,-0.5944392250573202,4.8954031382,1.9669162073671438,5.262792978330585,1.2080000000423752
312244.1927,-1.7276857835398038,3.6137975862881313,0.7261060008190025,3.449745866342037,1.209000000031665
312244.1937,-2.775307994512505,2.338184410313773,-0.4876793994437208,1.6104346031026426,1.2100000000209548
312244.1947,-3.678527294727153,1.1232526667246652,-1.6177332145536014,-0.1879173895111373,1.2110000000102445
312244.1957,-4.391713650426599,0.01339595895838751,-2.6184099205003815,-1.887811711801807,1.2119999999995343
312244.1967,-4.8858354511460895,-0.9603127878496125,-3.458580728117563,-3.445049715492853,1.2129999999888241
312244.1977,-5.150250860334596,-1.7816980046380224,-4.123527518067406,-4.8307845456656535,1.2140000000363216
312244.1987,-5.192685635519847,-2.449487681741647,-4.615114128045584,-6.031900303478356,1.2150000000256114
312244.1997,-5.0374229135416675,-2.975786792167688,-4.950248317517453,-7.049741166326846,1.2160000000149012
312244.2007,-4.72190791576472,-3.3832103741642996,-5.157819968241143,-7.897382388388959,1.217000000004191
312244.2017,-4.292127401150925,-3.7010031656565254,-5.27445401290054,-8.595783257865447,1.2179999999934807
312244.2027,-3.7972444666238956,-3.960573489771867,-5.339535055599028,-9.169274448554878,1.2190000000409782
312244.2037,-3.2840420266945243,-4.190926273900505,-5.390032927272274,-9.640897522499387,1.220000000030268
312244.2047,-2.7917458129575787,-4.414488026131056,-5.455677364854289,-10.02812609467576,1.2210000000195578
312244.2057,-2.3477582927148375,-4.643774579905872,-5.554993762225926,-10.339455213946472,1.2220000000088476
312244.2067,-1.9647424154103734,-4.879264705429435,-5.692624127625568,-10.572252192205271,1.2229999999981374
312244.2077,-1.6393576978275661,-5.1087180690416965,-5.8582267178749525,-10.712127832711168,1.2240000000456348
312244.2087,-1.3527843366541328,-5.308026957860819,-6.027087271808788,-10.733925304099925,1.2250000000349246
312244.2097,-1.072990286113335,-5.4435325644828865,-6.1624002680069925,-10.604251097935244,1.2260000000242144
312244.2107,-0.7585194455476996,-5.4755842909856804,-6.219007516553287,-10.285306076887812,1.2270000000135042
312244.2117,-0.3634237849231962,-5.362989721724968,-6.148230682092148,-9.739631472901902,1.228000000002794
312244.2127,0.15715617945259552,-5.067906759132827,-5.903319059857005,-8.935279473775783,1.2289999999920838
312244.2137,0.8413278468865255,-4.56067763938873,-5.444965652355947,-7.850861661633991,1.2300000000395812
312244.2147,1.7152791660671562,-3.8241025031759466,-4.746330275701562,-6.47992713592459,1.231000000028871
312244.2157,2.7891433008556885,-2.856698350462469,-3.7970497141384993,-4.834176322754824,1.2320000000181608
312244.2167,4.054334559855165,-1.6745830664428545,-2.605808021923549,-2.945121371230086,1.2330000000074506
312244.2177,5.482654243377926,-0.3117547588162342,-1.2011760231897923,-0.8639497307544838,1.2339999999967404
312244.2187,7.027294171317608,1.1813087598453182,0.3694052722432073,1.3404800477090886,1.2350000000442378
312244.2197,8.625681092788026,2.7406419446993997,2.0424433421610564,3.5853988139992548,1.2360000000335276
312244.2207,10.203924959056968,4.2931300205714695,3.742785516604383,5.779357616498686,1.2370000000228174
312244.2217,11.68247579686745,5.761814997133865,5.389199259754461,7.82849336840456,1.2380000000121072
312244.2227,12.98247317306055,7.071691795491528,6.900639387535333,9.643284538155202,1.239000000001397
312244.2237,14.032200889484704,8.155464243540521,8.202629851135574,11.145193682328756,1.2399999999906868
312244.2247,14.77304469200361,8.958728838615013,9.23317216243112,12.272592558265833,1.2410000000381842
312244.2257,15.16439402876357,9.444103784613898,9.947633505784216,12.985422377464621,1.242000000027474
312244.2267,15.187026203890769,9.593917353525319,10.322161262606222,13.268151521570386,1.2430000000167638
312244.2277,14.844653327929597,9.411203967069921,10.355308127978741,13.130745612254143,1.2440000000060536
312244.2287,14.163485583934921,8.918915686387196,10.067720013082297,12.607545874359717,1.2449999999953434
312244.2297,13.189851789954593,8.157425693039883,9.499921309873075,11.754144096282976,1.2460000000428408
312244.2307,11.986101917090274,7.180562500485345,8.708411243311344,10.642527828187793,1.2470000000321306
312244.2317,10.625178346581936,6.050553300722432,7.760443653958118,9.354930011303567,1.2480000000214204
312244.2327,9.184367537777353,4.832358406949034,6.727985331008802,7.976937552970131,1.2490000000107102
312244.2337,7.738819368031895,3.587936049969346,5.681423122730337,6.590481816855995,1.25
312244.2347,6.355440426245676,2.370982146437765,4.683610287176684,5.267343900663685,1.2509999999892898
312244.2357,5.087728225914515,1.2226424445435506,3.784806038445907,4.0637578513660975,1.2520000000367872
312244.2367,3.972019553806972,0.16859914853724065,3.0189726267219408,3.0165902778288753,1.253000000026077
312244.2377,3.0254871745113876,-0.7822000992475256,2.4017603460059966,2.141425112290182,1.2540000000153668
312244.2387,2.2460484406395786,-1.6370631629511259,1.9303456615622492,1.4327018341038902,1.2550000000046566
312244.2397,1.614163639640929,-2.417387148986665,1.5851072698754811,0.865861551166969,1.2559999999939464
312244.2407,1.0963191963362928,-3.155032243801104,1.332946869058731,0.40126648000479254,1.2570000000414439
312244.2417,0.6498288675758188,-3.887605309022796,1.1319029834762606,-0.010507383066939947,1.2580000000307336
312244.2427,0.2284604744314654,-4.653129310655717,0.9365826656365709,-0.42253145514002977,1.2590000000200234
312244.2437,-0.21168140049252573,-5.484634828200908,0.7038591745957699,-0.885142606678422,1.2600000000093132
312244.2447,-0.7066076358662684,-6.405217977769584,0.398261108278236,-1.4399389495418449,1.260999999998603
312244.2457,-1.2797862276735348,-7.424064325662614,-0.003488026951788013,-2.1147327077424083,1.2620000000461005
312244.2467,-1.9388375755287344,-8.53384513421109,-0.5092346315412082,-2.919942715893975,1.2630000000353903
312244.2477,-2.6739123190986707,-9.709759640170944,-1.1097887087983471,-3.846766651699203,1.26400000002468
312244.2487,-3.4579137421388317,-10.910337900481425,-1.779109311058263,-4.867298964506747,1.2650000000139698
312244.2497,-4.248544613432637,-12.079948488135487,-2.4762675242088323,-5.936571559999748,1.2660000000032596
312244.2507,-4.991978758999474,-13.152790470781559,-3.1489975551851375,-6.996308942656543,1.2669999999925494
312244.2517,-5.627798177782297,-14.058005593884758,-3.738490209185948,-7.980025579197185,1.2680000000400469
312244.2527,-6.094712636312317,-14.725438259703152,-4.184960911931357,-8.818966448093635,1.2690000000293367
312244.2537,-6.336502403935178,-15.091508148287303,-4.433448282816298,-9.448314129546802,1.2700000000186265
312244.2547,-6.307603437642523,-15.104649133554325,-4.439276420877141,-9.813064585278727,1.2710000000079162
312244.2557,-5.9777898287777465,-14.729809462760935,-4.1726466335238195,-9.873010683945179,1.271999999997206
312244.2567,-5.335497054247793,-13.951597854669918,-3.621909012236076,-9.606363594462728,1.2730000000447035
312244.2577,-4.389462705546957,-12.775789412070855,-2.795192655189817,-9.011678193349871,1.2740000000339933
312244.2587,-3.168525747243756,-11.22906140467879,-1.720232818760802,-8.107916076016135,1.275000000023283
312244.2597,-1.7196047983041165,-9.356996846815507,-0.4424082037257606,-6.932662090547652,1.2760000000125729
312244.2607,-0.10405280769285268,-7.220557065904246,0.9788251726579438,-5.53868961775526,1.2770000000018626
312244.2617,1.6072575316331248,-4.8913673250822205,2.4747624229451928,-3.9892285759532635,1.2779999999911524
312244.2627,3.339641577256705,-2.4462682547406485,3.9730784867099085,-2.3524128983411585,1.2790000000386499
312244.2637,5.020553114375178,0.03835003370165164,5.403719464988206,-0.6954591741300957,1.2800000000279397
312244.2647,6.585206478697998,2.491900749369939,6.704496147047579,0.9208518391722413,1.2810000000172295
312244.2657,7.98133561453337,4.854147854631774,7.82585128730559,2.446855716774042,1.2820000000065193
312244.2667,9.172643862271586,7.078541617142936,8.734355772778276,3.8474010782389443,1.282999999995809
312244.2677,10.140630622585233,9.134060552995503,9.414615678300214,5.103649681255727,1.2840000000433065
312244.2687,10.884644010191538,11.005429389118657,9.869429796042603,6.21313037255715,1.2850000000325963
312244.2697,11.420186036450614,12.691745594366049,10.118209998735603,7.188074716235095,1.286000000021886
312244.2707,11.775671167308987,14.203705413131237,10.19384772134202,8.052235867705319,1.2870000000111759
312244.2717,11.987993012228467,15.55975856955993,10.1383620818863,8.83654515798256,1.2880000000004657
312244.2727,12.09737213631611,16.781625303147095,9.99778371153191,9.57407772596289,1.2889999999897555
312244.2737,12.14202879128868,17.889669912564116,9.816801551088053,10.29486779101685,1.290000000037253
312244.2747,12.153240650723248,18.898635648510172,9.633720494210117,11.021128919339208,1.2910000000265427
312244.2757,12.151305718166096,19.814205666404526,9.476243802908208,11.763393429566205,1.2920000000158325
312244.2767,12.142838324238092,20.630767905344634,9.35850906649563,12.517991977549901,1.2930000000051223
312244.2777,12.119690604045187,21.3306368947344,9.27967856225711,13.266158575465008,1.293999999994412
312244.2787,12.059626418412043,21.884835050970658,9.224226881339732,13.97488129391992,1.2950000000419095
312244.2797,11.928695714842144,22.25537498251909,9.163896270052131,14.599441035657472,1.2960000000311993
312244.2807,11.685082563298213,22.39882868594315,9.061120410676343,15.087407718988977,1.297000000020489
312244.2817,11.284046929000262,22.27083476629457,8.873567186833961,15.383712182570818,1.2980000000097789
312244.2827,10.683463959871,21.83109437105306,8.559335295039874,15.43629818635739,1.2989999999990687
312244.2837,9.849396877660142,21.048350425373144,8.082269936617822,15.201793467012205,1.3000000000465661
312244.2847,8.76112742408899,19.90483866882618,7.416846281252664,14.650628576801749,1.301000000035856
312244.2857,7.415112735213088,18.399743668499532,6.552107735131618,13.77107843821712,1.3020000000251457
312244.2867,5.827435401799652,16.551284174090675,5.494235662107328,12.57179988045645,1.3030000000144355
312244.2877,4.03445500943672,14.397181065000076,4.2674594239811485,11.082579459127224,1.3040000000037253
312244.2887,2.0915410156405194,11.993415184583332,2.9131775406240004,9.353175962037241,1.304999999993015
312244.2897,0.06995180184302884,9.411346547900242,1.4873365844119313,7.45032466381118,1.3060000000405125
312244.2907,-1.9478948428407932,6.7334247195823815,0.05628687703720087,5.4531478423417274,1.3070000000298023
312244.2917,-3.874356284507006,4.047857116266313,-1.3085138013721866,3.447371017671705,1.3080000000190921
312244.2927,-5.6231805109097746,1.442704189439701,-2.5364604521096816,1.5188616882243693,1.309000000008382
312244.2937,-7.116207249989363,-1.0000721370221817,-3.5638670704922415,-0.2529244716008974,1.3099999999976717
312244.2947,-8.289544981704804,-3.2100734339210817,-4.339564824018776,-1.8009926566408885,1.3110000000451691
312244.2957,-9.0986577851239,-5.132954039665117,-4.829497822362741,-3.07580076313804,1.312000000034459
312244.2967,-9.521893832296557,-6.733536758415837,-5.019873722942857,-4.048739330229079,1.3130000000237487
312244.2977,-9.562130078570624,-7.99728648665913,-4.9185612500462055,-4.713786257295934,1.3140000000130385
312244.2987,-9.246381643066673,-8.930028290284193,-4.55459175283882,-5.087194272255994,1.3150000000023283
312244.2997,-8.623412823613872,-9.555962078555241,-3.975801215012153,-5.205253888946322,1.315999999991618
312244.3007,-7.7595715350325625,-9.91418618906398,-3.2448252736072485,-5.120354995906897,1.3170000000391155
312244.3017,-6.733232435808951,-10.054081382632894,-2.4338157143083996,-4.895728878695008,1.3180000000284053
312244.3027,-5.628360433898842,-10.03001147530297,-1.618367455727621,-4.599374126173022,1.3190000000176951
312244.3037,-4.527783563461264,-9.895857000618207,-0.8712185301982001,-4.297742842621427,1.320000000006985
312244.3047,-3.5067851091315227,-9.699908149335288,-0.25630491451358123,-4.049780950769037,1.3209999999962747
312244.3057,-2.627587520276253,-9.480601941195276,0.17628455802809648,-3.9018765994034292,1.3220000000437722
312244.3067,-1.9352089596506985,-9.263500305592435,0.3939969265861775,-3.8841778053343465,1.323000000033062
312244.3077,-1.4550363973609808,-9.059779232244976,0.3838237473709101,-4.008603637748068,1.3240000000223517
312244.3087,-1.1922904939021224,-8.866346875703378,0.15246910676754188,-4.26870592304653,1.3250000000116415
312244.3097,-1.1333736647157517,-8.667545442672523,-0.2753056819464231,-4.641356983989894,1.3260000000009313
312244.3107,-1.2489116581857205,-8.438233883920807,-0.8599681894157608,-5.090061049882709,1.3269999999902211
312244.3117,-1.4981383506585142,-8.147911351427517,-1.5517838207065127,-5.569530026416081,1.3280000000377186
312244.3127,-1.8341488490567692,-7.765438520728712,-2.2961990267983685,-6.031043565876784,1.3290000000270084
312244.3137,-2.2094693967215973,-7.2638553098754635,-3.039496118977227,-6.428040541680246,1.3300000000162981
312244.3147,-2.5813712525692853,-6.624784987996039,-3.7341565911423498,-6.721371112129926,1.331000000005588
312244.3157,-2.9163914514726983,-5.8419569760664904,-4.343404903400961,-6.883677172977507,1.3319999999948777
312244.3167,-3.193612320495886,-4.923469612732218,-4.8444916071759705,-6.902460211972638,1.3330000000423752
312244.3177,-3.406384739259686,-3.892541001611544,-5.230404793793584,-6.781530288271569,1.334000000031665
312244.3187,-3.562343960726234,-2.786648244155134,-5.509859178043476,-6.540694684274686,1.3350000000209548
312244.3197,-3.6817448937913277,-1.6551178498912278,-5.7055867666454505,-6.213723369454925,1.3360000000102445
312244.3207,-3.7943182350009836,-0.5553868225361211,-5.851124684504675,-5.844803066219397,1.3369999999995343
312244.3217,-3.9350022344540774,0.4517106898352854,-5.986447316314029,-5.483845089667232,1.3379999999888241
312244.3227,-4.139021801744794,1.3071756777210937,-6.152906426213198,-5.181129009352011,1.3390000000363216
312244.3237,-4.436855341485913,1.9590841936648389,-6.38801277057889,-4.981832910903103,1.3400000000256114
312244.3247,-4.849643194994986,2.3673183034329597,-6.720608958991679,-4.9210147273553595,1.3410000000149012
312244.3257,-5.385548394784927,2.5073172761806317,-7.166944291222293,-5.019566309481387,1.342000000004191
312244.3267,-6.0374848053781385,2.3724708236958243,-7.72807182191426,-5.28156674410934,1.3429999999934807
312244.3277,-6.782489070483925,1.9749065800869778,-8.388854899230546,-5.693323229554525,1.3440000000409782
312244.3287,-7.582844878676468,1.3445794404332905,-9.118708035814565,-6.224220172980245,1.345000000030268
312244.3297,-8.388887630582232,0.5267356169286884,-9.87402128221581,-6.829316620382251,1.3460000000195578
312244.3307,-9.143242688370247,-0.42201691033196903,-10.60204572032411,-7.453456513433741,1.3470000000088476
312244.3317,-9.786098590128427,-1.4386631133907548,-11.24586734979207,-8.036502990810627,1.3479999999981374
312244.3327,-10.261003280058963,-2.4592911825931734,-11.749982529008733,-8.519192255318181,1.3490000000456348
312244.3337,-10.520608159565327,-3.4246331314634797,-12.065921746348602,-8.8490359853885,1.3500000000349246
312244.3347,-10.531778317350772,-4.285106138733773,-12.157356656410046,-8.985690640149954,1.3510000000242144
312244.3357,-10.279538774250241,-5.0048723860267526,-12.004169482845198,-8.905258564291028,1.3520000000135042
312244.3367,-9.769431386975329,-5.564529749733292,-11.605060013425685,-8.603085194555069,1.353000000002794
312244.3377,-9.028005312714832,-5.962178386749354,-10.978404313629692,-8.094759354360402,1.3539999999920838
312244.3387,-8.101341427338305,-6.212766104743554,-10.161247540520273,-7.415195776484455,1.3550000000395812
312244.3397,-7.0517006443976396,-6.345783027499439,-9.206494492586677,-6.615863876524444,1.356000000028871
312244.3407,-5.952569252262885,-6.4015370724535225,-8.178538089106985,-5.7604063923652244,1.3570000000181608
312244.3417,-4.88253324942836,-6.426380394096242,-7.147720532538326,-4.9190482729852585,1.3580000000074506
312244.3427,-3.9185325702858727,-6.467359628514326,-6.184139255000872,-4.1623148135636745,1.3589999999967404
312244.3437,-3.129113227877862,-6.566819421994352,-5.351378251572846,-3.554646870282726,1.3600000000442378
312244.3447,-2.568303908888262,-6.757493757502893,-4.700758151896951,-3.148513272331703,1.3610000000335276
312244.3457,-2.270692252384814,-7.058572469829005,-4.266653882515205,-2.979575018401045,1.3620000000228174
312244.3467,-2.2481695299783757,-7.4731356259961155,-4.063331099989873,-3.063356876795157,1.3630000000121072
312244.3477,-2.4886606778686047,-7.987215359162996,-4.083610987237974,-3.3937391895503097,1.364000000001397
312244.3487,-2.956973965056194,-8.570586250790662,-4.2995010511224505,-3.9434098715551045,1.3649999999906868
312244.3497,-3.5977083834412262,-9.179216909322816,-4.664743764231713,-4.666230570699667,1.3660000000381842
312244.3507,-4.339965814533954,-9.759153416581768,-5.119053156171736,-5.501289761445719,1.367000000027474
312244.3517,-5.1034473882903635,-10.251465591935872,-5.593649308973114,-6.378256733060539,1.3680000000167638
312244.3527,-5.805385187655094,-10.597783165454358,-6.017577601215465,-7.223529342396746,1.3690000000060536
312244.3537,-6.3676837692579005,-10.74589105139378,-6.324225349166703,-7.966596653677691,1.3699999999953434
312244.3547,-6.723628106650148,-10.654846574021297,-6.457430346356453,-8.546021962471993,1.3710000000428408
312244.3557,-6.823557101806565,-10.299127280956304,-6.376615410109212,-8.914493475460112,1.3720000000321306
312244.3567,-6.639000536785829,-9.67141135692996,-6.060476514738336,-9.042484756154193,1.3730000000214204
312244.3577,-6.164922651443456,-8.783724453580062,-5.508890325315109,-8.920205440922125,1.3740000000107102
312244.3587,-5.419893393847725,-7.666844070272276,-4.742876523250822,-8.55769094625459,1.375
312244.3597,-4.4442016841618015,-6.368020077893347,-3.8026348097322673,-7.983061330668465,1.3759999999892898
312244.3607,-3.2961152392721,-4.9472312308060875,-2.7438580588915147,-7.239156322205158,1.3770000000367872
312244.3617,-2.0466604927279852,-3.4723368588459866,-1.6326842810273083,-6.378908484365136,1.378000000026077
312244.3627,-0.773427923759464,-2.0135868427434938,-0.5397753988344636,-5.45993450479891,1.3790000000153668
312244.3637,0.4460096264969281,-0.6380114187314209,0.46591157329062943,-4.538894284906078,1.3800000000046566
312244.3647,1.540452772761723,0.595780231741292,1.3230727473795296,-3.6661823179437825,1.3809999999939464
312244.3657,2.4506262136311494,1.6419078287432953,1.9831709931726593,-2.8814746300149814,1.3820000000414439
312244.3667,3.1334334366276333,2.4702407658790984,2.414248349312166,-2.210561705729569,1.3830000000307336
312244.3677,3.5645592614238137,3.06786755169648,2.603102224293888,-1.6637627848238554,1.3840000000200234
312244.3687,3.739230854293322,3.438904101300097,2.5556532162741483,-1.2360532826437118,1.3850000000093132
312244.3697,3.6711305162426306,3.6026954264241144,2.2955102854662566,-0.9088612234487546,1.385999999998603
312244.3707,3.3896340135643,3.5906233733550197,1.8609145206089386,-0.6533180148464051,1.3870000000461005
312244.3717,2.9357088268135514,3.441869338026999,1.3003986920738135,-0.434600608169204,1.3880000000353903
312244.3727,2.3569318559167693,3.1985819571496066,0.6676210182693678,-0.21689082841234025,1.38900000002468
312244.3737,1.702163834071132,2.9009557200697977,0.015906404471764075,0.03158551312993139,1.3900000000139698
312244.3747,1.016440715245566,2.582731799973504,-0.6069502327348555,0.3339858847305569,1.3910000000032596
312244.3757,0.3366087899775226,2.267586675850857,-1.1630978572174862,0.7012442944081348,1.3919999999925494
312244.3767,-0.3118559744136413,1.9667818455342503,-1.62782525207905,1.129832844609406,1.3930000000400469
312244.3777,-0.9165339050064454,1.6783182344978675,-1.9912322525960189,1.6011553733905977,1.3940000000293367
312244.3787,-1.4781029715792187,1.3876845948511891,-2.2582278953299717,2.082670941494456,1.3950000000186265
312244.3797,-2.008760350848642,1.0701255117021664,-2.4468795880829,2.5306677878363923,1.3960000000079162
312244.3807,-2.529220437980272,0.6941977838274985,-2.5853067868489106,2.8944376980189044,1.396999999997206
312244.3817,-3.0646362982245847,0.22624947809045973,-2.707462074163183,3.1214534962197034,1.3980000000447035
312244.3827,-3.6399065081128645,-0.36464273380327794,-2.848257092828978,3.1630433194072407,1.3990000000339933
312244.3837,-4.27489688749031,-1.1017953436493635,-3.0385590833541753,2.979995509135569,1.400000000023283
312244.3847,-4.980119890785042,-1.9966181026947918,-3.3005989666678768,2.5475236202566025,1.4010000000125729
312244.3857,-5.7533719299012755,-3.045361871249233,-3.644292422543973,1.8590730478635578,1.4020000000018626
312244.3867,-6.577734716222577,-4.227286802652008,-4.064885064662804,0.9285544543818296,1.4029999999911524
312244.3877,-7.421210067633155,-5.504488749408245,-4.542200467151249,-0.2092651941129396,1.4040000000386499
312244.3887,-8.238092016088714,-6.823462174284285,-5.041608485064879,-1.5003094736959435,1.4050000000279397
312244.3897,-8.972001893321284,-8.118308751440331,-5.516656955374632,-2.874587630717951,1.4060000000172295
312244.3907,-9.56033910776817,-9.315338661512369,-5.9131397201781715,-4.251169785817949,1.4070000000065193
312244.3917,-9.939749868240499,-10.33867212492002,-6.1742248733871605,-5.544319224456124,1.407999999995809
312244.3927,-10.052103334888237,-11.116345641238244,-6.246154067633953,-6.670242942474601,1.4090000000433065
312244.3937,-9.850401118396197,-11.586370893344519,-6.083958013880064,-7.553856133959457,1.4100000000325963
312244.3947,-9.304038442065218,-11.70219004092839,-5.656621732206834,-8.134947790649152,1.411000000021886
312244.3957,-8.402884887957327,-11.437019834917118,-4.951177147089551,-8.373184155385372,1.4120000000111759
312244.3967,-7.159755101589391,-10.786674181795163,-3.9752962914416075,-8.251489963812686,1.4130000000004657
312244.3977,-5.610985544564122,-9.770591330768248,-2.758096641721472,-7.7774945623419365,1.4139999999897555
312244.3987,-3.8150084780851463,-8.430954791662797,-1.3490376996012488,-6.982907188788436,1.415000000037253
312244.3997,-1.8490019989140676,-6.8299709042277295,0.18503130233147747,-5.92087610519501,1.4160000000265427
312244.4007,0.19612301032848897,-5.04553410355183,1.764436267373186,-4.661571743168973,1.4170000000158325
312244.4017,2.2219793921966025,-3.1656573483613513,3.302464413877795,-3.286396879897778,1.4180000000051223
312244.4027,4.129664062880992,-1.2821559908484141,4.711862106387244,-1.8813515936877845,1.418999999994412
312244.4037,5.826813109388313,0.515861889863444,5.911464399735254,-0.5301555038564476,1.4200000000419095
312244.4047,7.234130519637085,2.148132995375882,6.832361112913895,0.6922524560647587,1.4210000000311993
312244.4057,8.290816193515282,3.548478833787092,7.4230456233278685,1.72525730102025,1.422000000020489
312244.4067,8.958420101964405,4.668712226331887,7.653086662925073,2.52667016243722,1.4230000000097789
312244.4077,9.22279552558541,5.480903634724143,7.515001198487624,3.0750457039453383,1.4239999999990687
312244.4087,9.09400125833194,5.977857475541811,7.0241747511848915,3.370043141745709,1.4250000000465661
312244.4097,8.604193553909962,6.171817640876118,6.216858072293587,3.4308461538142896,1.426000000035856
312244.4107,7.803735115803672,6.091586404287367,5.146448385174018,3.292840788038833,1.4270000000251457
312244.4117,6.755912696869193,5.778385928264111,3.878422198701624,3.002913549242806,1.4280000000144355
312244.4127,5.530781141017969,5.280902897707722,2.4844097629187,2.61385857102811,1.4290000000037253
312244.4137,4.1987279012365155,4.650023933267959,1.0359768155407592,2.178461144877095,1.429999999993015
312244.4147,2.8243709813593263,3.933786297070492,-0.4012997886522644,1.743847599727607,1.4310000000405125
312244.4157,1.4613631926913604,3.1730338345124753,-1.7729115095568169,1.346656739826711,1.4320000000298023
312244.4167,0.14858061536012557,2.3981859706216615,-3.039189941738221,1.0094994904628067,1.4330000000190921
312244.4177,-1.0919674526359215,1.6274064000947392,-4.1774408270859364,0.7390400203784795,1.434000000008382
312244.4187,-2.255342241757064,0.8663101600471262,-5.182273617804017,0.5258666879536233,1.4349999999976717
312244.4197,-3.3520156426871908,0.10918790035053594,-6.064138563620734,0.3461410015897505,1.4360000000451691
312244.4207,-4.404553706189944,-0.6584296894067473,-6.846259530780099,0.16483512244290005,1.437000000034459
312244.4217,-5.443013653513774,-1.4561807088837329,-7.560307435255972,-0.05978931522391934,1.4380000000237487
312244.4227,-6.499550726016645,-2.3046709644615673,-8.241281056337865,-0.37093073726279924,1.4390000000130385
312244.4237,-7.602808189840754,-3.22114013000291,-8.922137284660373,-0.807770451292177,1.4400000000023283
312244.4247,-8.772684174369937,-4.215483696896812,-9.628734321876852,-1.4003345708048367,1.440999999991618
312244.4257,-10.01603085390672,-5.287080764502811,-10.375617033801575,-2.1652255162655925,1.4420000000391155
312244.4267,-11.323748569576322,-6.42279334617979,-11.163087069962183,-3.102665707223644,1.4430000000284053
312244.4277,-12.669598944659695,-7.596381167099065,-11.97587011355803,-4.195164528361883,1.4440000000176951
312244.4287,-14.01089041472551,-8.769429163253196,-12.783531589690481,-5.407957570032807,1.445000000006985
312244.4297,-15.291003528601838,-9.893727790468928,-13.542616204728043,-6.691190597917485,1.4459999999962747
312244.4307,-16.44354002240222,-10.914894569962275,-14.200313124687106,-7.983647164736286,1.4470000000437722
312244.4317,-17.39771689874465,-11.776894245001191,-14.69929448165476,-9.217665367434254,1.448000000033062
312244.4327,-18.084500421893402,-12.427017670564089,-14.983255361408279,-10.32477108184349,1.4490000000223517
312244.4337,-18.442897386425635,-12.820825930661824,-15.002610212956776,-11.241483676835268,1.4500000000116415
312244.4347,-18.425799813717486,-12.926561689639433,-14.719780931613807,-11.914732688064497,1.4510000000009313
312244.4357,-18.004816488031704,-12.72857508947078,-14.113547660445086,-12.30636186986534,1.4519999999902211
312244.4367,-17.173616901019997,-12.229402333585483,-13.182021160212173,-12.396286625012273,1.4530000000377186
312244.4377,-15.949451345062613,-11.45026266701727,-11.943926856841669,-12.184003129478898,1.4540000000270084
312244.4387,-14.372681738279624,-10.429891338134999,-10.438052579150279,-11.68830940820905,1.4550000000162981
312244.4397,-12.504344772261327,-9.221787439695422,-8.720888741293065,-10.945274148554489,1.456000000005588
312244.4407,-10.421954085861488,-7.890110430503915,-6.862664044871613,-10.004660795748004,1.4569999999948777
312244.4417,-8.213913521979439,-6.504592366660089,-4.942134650512097,-8.92516547153268,1.4580000000423752
312244.4427,-5.973043191123987,-5.134931236247351,-3.0406050734691243,-7.7689425567515835,1.459000000031665
312244.4437,-3.789801599297667,-3.8451844851145665,-1.2357330469076546,-6.595959971256271,1.4600000000209548
312244.4447,-1.7458127401913415,-2.6886853830809447,0.4043089478383457,-5.458740513507239,1.4610000000102445
312244.4457,0.09172551842874987,-1.7039577389496237,1.825777846882827,-4.3980046547404035,1.4619999999995343
312244.4467,1.6742628733789227,-0.912011013772695,2.992959365136575,-3.4396379548304408,1.4629999999888241
312244.4477,2.9743926422746676,-0.3152670248854256,3.8901027315612895,-2.593271891903708,1.4640000000363216
312244.4487,3.986434002699206,0.10178622883490653,4.521532405982865,-1.8526036724189223,1.4650000000256114
312244.4497,4.725095543966223,0.37028351228083484,4.909954768712069,-1.1974046892439194,1.4660000000149012
312244.4507,5.2223977196171685,0.5332431071786025,5.093151851641536,-0.5969961883637301,1.467000000004191
312244.4517,5.523195403818295,0.6407658072430875,5.119408914763706,-0.014821427161501945,1.4679999999934807
312244.4527,5.679770679828168,0.744640838098189,5.04214292096249,0.5863689141207227,1.4690000000409782
312244.4537,5.746047815097775,0.8928844613685487,4.914272957011455,1.239265731211025,1.470000000030268
312244.4547,5.772009345542545,1.1247432649806974,4.782894156746598,1.967242273932187,1.4710000000195578
312244.4557,5.7988619461942,1.466648810152149,4.684781720433893,2.78059782133618,1.4720000000088476
312244.4567,5.855416583201476,1.9295176680067967,4.643164662856871,3.6742174542046606,1.4729999999981374
312244.4577,5.9560179039006975,2.5076598111749964,4.666078553852457,4.626920959418125,1.4740000000456348
312244.4587,6.100195963687682,3.1794014615645287,4.74644561739362,5.602605123626099,1.4750000000349246
312244.4597,6.274035413520684,3.909361006716997,4.863855034398944,6.553102816871622,1.4760000000242144
312244.4607,6.453080947551001,4.652154724191895,4.987843522782303,7.422507141392646,1.4770000000135042
312244.4617,6.606440711808408,5.357168526661105,5.082323377221172,8.152556871618891,1.478000000002794
312244.4627,6.701627146794412,5.973926447885389,5.110687342687933,8.688565611785323,1.4789999999920838
312244.4637,6.70959954622184,6.457526441005746,5.041048740651826,8.985313052317679,1.4800000000395812
312244.4647,6.6094519469808635,6.773605178059453,4.8510583374939324,9.012309109713685,1.481000000028871
312244.4657,6.392225886717681,6.902336876950565,4.53177839907388,8.757891797908638,1.4820000000181608
312244.4667,6.063416515450274,6.841062626539386,4.090185562952936,8.231722990648711,1.4830000000074506
312244.4677,5.643873694313127,6.605277449396671,3.5500087693232314,7.4653931707453065,1.4839999999967404
312244.4687,5.168963826542566,6.227859834077542,2.9507734077711296,6.511022907298514,1.4850000000442378
312244.4697,4.686036919937253,5.7565974884863325,2.345101920575985,5.437938286972556,1.4860000000335276
312244.4707,4.250418972679031,5.25022729739633,1.7944967707466515,4.3276816568303484,1.4870000000228174
312244.4717,3.920304678488151,4.773351058532674,1.3639866286206497,3.2677800565209467,1.4880000000121072
312244.4727,3.7510441408789075,4.390697671519123,1.1161355230668772,2.3448160253789427,1.489000000001397
312244.4737,3.789387784462904,4.1612665528286845,1.104985689456889,1.637417134036175,1.4899999999906868
312244.4747,4.068268688208933,4.132899994958156,1.3705207182050745,1.2097945103935217,1.4910000000381842
312244.4757,4.602659315351,4.33779277473138,1.9341945131622866,1.1064152327242214,1.492000000027474
312244.4767,5.3869438775501814,4.789359397715352,2.7959772034315287,1.3482928635396902,1.4930000000167638
312244.4777,6.394107409123205,5.480751474898656,3.9332304056162606,1.931234013551713,1.4940000000060536
312244.4787,7.57687148534743,6.385162239794447,5.301554333909707,2.826200474406359,1.4949999999953434
312244.4797,8.870720916438204,7.457887143211891,6.837564487083982,3.9817530365213263,1.4960000000428408
312244.4807,10.198583671596737,8.639945001928421,8.463373766238432,5.328352960427835,1.4970000000321306
312244.4817,11.476765436236445,9.862919125889503,10.092394411709954,6.784128228085079,1.4980000000214204
312244.4827,12.621616271626156,11.054566081305952,11.635948663956,8.261580145343125,1.4990000000107102
312244.4837,13.556331983287842,12.14467187271044,13.010099668832206,9.674623989217181,1.5
312244.4847,14.217274442967483,13.070617665657673,14.142092350009221,10.945332804110604,1.5009999999892898
312244.4857,14.559235229280652,13.782151150820535,14.97582989180459,12.009788250192372,1.5020000000367872
312244.4867,14.5591618862109,14.244941677578572,15.475901682602805,12.82253299055578,1.503000000026077
312244.4877,14.218006879048536,14.442619110383044,15.629814398473828,13.359256519535709,1.5040000000153668
312244.4887,13.560532549818983,14.37714589024648,15.448246300753311,13.617517157522357,1.5050000000046566
312244.4897,12.633094490788393,14.067534267960255,14.963329592193332,13.615490577000111,1.5059999999939464
312244.4907,11.499612672602153,13.547080159054083,14.225149073327001,13.388921537281322,1.5070000000414439
312244.4917,10.236106496344057,12.859425954723797,13.29680977111057,12.986622558827111,1.5080000000307336
312244.4927,8.924300738590757,12.053873197232813,12.248555946575182,12.46499508067319,1.5090000000200234
312244.4937,7.644891663647677,11.18043181434919,11.151506587460712,11.882132735376553,1.5100000000093132
312244.4947,6.471088621916722,10.285109386498585,10.071600401882947,11.292094971314947,1.510999999998603
312244.4957,5.463013922350011,9.405910340772644,9.064314031778697,10.73991003119489,1.5120000000461005
312244.4967,4.663456018410885,8.56993466973069,8.170633845940868,10.257782601488598,1.5130000000353903
312244.4977,4.095336782106126,7.791847028278769,7.414632645964266,9.86285194350022,1.51400000002468
312244.4987,3.761086050279697,7.073841937135478,6.802840737599882,9.556684120358785,1.5150000000139698
312244.4997,3.643932098768776,6.407073981819073,6.325422056155924,9.326503314933209,1.5160000000032596
312244.5007,3.710933211005377,5.774369143242509,5.95898794830951,9.147990002764377,1.5169999999925494
312244.5017,3.9174108656388484,5.1539000944824975,5.67072123213486,8.989315495612203,1.5180000000400469
312244.5027,4.212315167730299,4.523407846855008,5.423356872433717,8.815958747356829,1.5190000000293367
312244.5037,4.543970420851032,3.864494627408637,5.180485249774441,8.595774466420073,1.5200000000186265
312244.5047,4.865620941114189,3.1665041173435986,4.911617249767297,8.303758976949423,1.5210000000079162
312244.5057,5.14022668732597,2.4295460966889926,4.596479643978175,7.92599397431331,1.521999999997206
312244.5067,5.344041730640405,1.666309076176285,4.22809135312095,7.4623347866730905,1.5230000000447035
312244.5077,5.46863742887505,0.902428038200164,3.8142978610846554,6.927540200891534,1.5240000000339933
312244.5087,5.521193392841731,0.17532263079619265,3.377599603563136,6.350702193835517,1.525000000023283
312244.5097,5.523056788599778,-0.46842074870453626,2.9532847949248984,5.773009832850905,1.5260000000125729
312244.5107,5.50674653012033,-0.9768974069612371,2.5860505354203713,5.244054532046896,1.5270000000018626
312244.5117,5.5117360131676225,-1.2976068636119693,2.325450966353711,4.8170364404243795,1.5279999999911524
312244.5127,5.579470687721874,-1.3825964597520266,2.220632366659868,4.543348683355015,1.5290000000386499
312244.5137,5.748152886156624,-1.1935208926926346,2.3148904146380467,4.467085707811245,1.5300000000279397
312244.5147,6.047848481162303,-0.7061100151142121,2.640606903160183,4.620037022374434,1.5310000000172295
312244.5157,6.496436067102892,0.0864149536187007,3.215089778792426,5.017686502260767,1.5320000000065193
312244.5167,7.096832922605506,1.171342940571845,4.037754722646908,5.656644037028648,1.532999999995809
312244.5177,7.835801704012195,2.5161276995207427,5.088956989908972,6.513799702565154,1.5340000000433065
312244.5187,8.68448065985782,4.069776019372947,6.330621572430187,7.547324192897283,1.5350000000325963
312244.5197,9.600604216030915,5.76588537276327,7.708643702138556,8.699459276045,1.536000000021886
312244.5207,10.532207593785085,7.527089082194035,9.156857545057816,9.900866232616467,1.5370000000111759
312244.5217,11.422455959430815,9.27053124026492,10.602215743614796,11.076145915675026,1.5380000000004657
312244.5227,12.215120774442806,10.913893048200897,11.970701499772124,12.150026482693347,1.5389999999897555
312244.5237,12.860155358955419,12.381436805911358,13.193420070628271,13.053645672085025,1.540000000037253
312244.5247,13.318805406766451,13.609529003086779,14.212295293550687,13.73034068585519,1.5410000000265427
312244.5257,13.567730154189412,14.551150423052082,14.984831273330057,14.140401847364297,1.5420000000158325
312244.5267,13.601702426211212,15.178994507641518,15.48748641873333,14.264342212901006,1.5430000000051223
312244.5277,13.434591988064577,15.486886520566092,15.717338257376516,14.104375027996033,1.543999999994412
312244.5287,13.098503311134682,15.489412680115114,15.69188022031051,13.683960841769062,1.5450000000419095
312244.5297,12.641119760632336,15.219815337326343,15.446970121168038,13.045469752257981,1.5460000000311993
312244.5307,12.121483604024554,14.726371381580243,15.033127054351244,12.246183805947373,1.547000000020489
312244.5317,11.604597666001313,14.067610855193887,14.510531724933488,11.353022539488027,1.5480000000097789
312244.5327,11.15535443902725,13.306837820382828,13.943209420843067,10.436495637063288,1.5489999999990687
312244.5337,10.832370022260886,12.506475798481715,13.39295286381839,9.56445888228785,1.5500000000465661
312244.5347,10.682316117637082,11.722769908341606,12.913566424221653,8.796265962185089,1.551000000035856
312244.5357,10.735301589103443,11.001336399846293,12.545981271486925,8.177867635945757,1.5520000000251457
312244.5367,11.001759535911932,10.373961828105047,12.314706029531395,7.738315327879844,1.5530000000144355
312244.5377,11.471155458409356,9.856927432867575,12.225947649997751,7.487987579947098,1.5540000000037253
312244.5387,12.112660322090163,9.45098187075234,12.267575104631863,7.418688562458528,1.554999999993015
312244.5397,12.877745672789956,9.142922268828013,12.410919869121878,7.505584542852038,1.5560000000405125
312244.5407,13.70447443951656,8.908585611228553,12.614229368056483,7.710764773559073,1.5570000000298023
312244.5417,14.523098438674666,8.716915163966133,12.827429832499616,7.988055215918372,1.5580000000190921
312244.5427,15.262447627419723,8.534663348113325,12.997728875172418,8.2885922959317,1.559000000008382
312244.5437,15.85651907108366,8.331233175275203,13.075507714942816,8.566591296563095,1.5599999999976717
312244.5447,16.250652881331384,8.08315070001643,13.019926103779879,8.78472705780316,1.5610000000451691
312244.5457,16.40672006778126,7.777701663630346,12.803692111151198,8.91858493847558,1.562000000034459
312244.5467,16.306839674321647,7.415352382327354,12.416531011265084,8.959733430744926,1.5630000000237487
312244.5477,15.955280774819725,7.010699211102545,11.867014426617196,8.917107128132931,1.5640000000130385
312244.5487,15.37837547695589,6.591840162681326,11.182570066232126,8.81655634510889,1.5650000000023283
312244.5497,14.62245550103588,6.198221610246975,10.407668189381724,8.69860102096532,1.565999999991618
312244.5507,13.750009135802587,5.877166616045438,9.60035607738486,8.614603730313407,1.5670000000391155
312244.5517,12.83441966609513,5.67942406615542,8.827469185758279,8.621732216551413,1.5680000000284053
312244.5527,11.953774965998882,5.654176319967212,8.158971971961044,8.777200566741,1.5690000000176951
312244.5537,11.184318651981377,5.84399776984722,7.661960670931844,9.132348325066179,1.570000000006985
312244.5547,10.594138525370315,6.280262186765787,7.394887043393809,9.727131680514274,1.5709999999962747
312244.5557,10.237655989460285,6.979452533588823,7.402534100727859,10.585559034448638,1.5720000000437722
312244.5567,10.151394325739261,7.940737536556028,7.712195200590118,11.712509047530983,1.573000000033062
312244.5577,10.351373037525807,9.145053697634653,8.331384996891288,13.092232170371881,1.5740000000223517
312244.5587,10.832313164117304,10.555782201270747,9.247257066474182,14.688670420065137,1.5750000000116415
312244.5597,11.568660822981391,12.12095228095267,10.427734174518774,16.4475514072955,1.5760000000009313
312244.5607,12.517260961822974,13.776751908570647,11.824190077358836,18.30003921513444,1.5769999999902211
312244.5617,13.62135777041853,15.45199830382344,13.37537323692835,20.167574009139916,1.5780000000377186
312244.5627,14.8154777295241,17.073127677847268,15.012147652235763,21.96741927899836,1.5790000000270084
312244.5637,16.03067760203242,18.569215267956974,16.66255561329823,23.618371661844115,1.5800000000162981
312244.5647,17.19961980532127,19.876538073904882,18.25668842193137,25.04607975810951,1.581000000005588
312244.5657,18.26097312142808,20.942243779908914,19.730885640540087,26.187466050454542,1.5819999999948777
312244.5667,19.162723599822257,21.72678514829914,21.030867463862037,26.99384515194526,1.5830000000423752
312244.5677,19.86410960022421,22.204910174174145,22.11352956772352,27.432472129855498,1.584000000031665
312244.5687,20.336052755433926,22.365151357506374,22.947282320620282,27.486422355863713,1.5850000000209548
312244.5697,20.560126822024607,22.207917112702038,23.51098072190944,27.152882192887798,1.5860000000102445
312244.5707,20.52627124945506,21.74243832357917,23.791650733052556,26.440099690332985,1.5869999999995343
312244.5717,20.22959862725789,20.982947901418637,23.781355094743983,25.363388850857206,1.5879999999888241
312244.5727,19.666749958685116,19.944557810018797,23.47364267688415,23.940684909087345,1.5890000000363216
312244.5737,18.832307672727563,18.63933696623852,22.860078885844928,22.18820032982665,1.5900000000256114
312244.5747,17.715777022781495,17.073079954769888,21.927354382876366,20.11672588204006,1.5910000000149012
312244.5757,16.299591195618408,15.243191054904596,20.655414491242748,17.72905790335182,1.592000000004191
312244.5767,14.558488942779135,13.137996328823498,19.016946894049486,15.018917291361687,1.5929999999934807
312244.5777,12.460466006349858,10.737648863744827,16.97842041980469,11.971568738972593,1.5940000000409782
312244.5787,9.969327534848201,8.016622870444497,14.502696996608565,8.56616549808112,1.595000000030268
312244.5797,7.048685511389684,4.947617834425191,11.553059247972984,4.779653619471882,1.5960000000195578
312244.5807,3.6670716353874364,1.5065317548885873,8.09832597475577,0.5918894228399186,1.5970000000088476
312244.5817,-0.1963097876543464,-2.3219707021032447,4.118584646167681,-4.008526597683877,1.5979999999981374
312244.5827,-4.545766879475712,-6.538859454864493,-0.3890305745826028,-9.018301202741261,1.5990000000456348
312244.5837,-9.363868446748008,-11.125710869822626,-5.405133277491325,-14.414034597970035,1.6000000000349246
312244.5847,-14.607366524527409,-16.04082987397724,-10.88405574984531,-20.14797480383705,1.6010000000242144
312244.5857,-20.204827880625082,-21.21702229880812,-16.751525310593777,-26.14549372478229,1.6020000000135042
312244.5867,-26.056376209521048,-26.561385738182477,-22.904444019358262,-32.30470066756348,1.603000000002794
312244.5877,-32.035768516771405,-31.95731467032647,-29.212994022294513,-38.49842521324121,1.6039999999920838
312244.5887,-37.99482166564333,-37.26871763968335,-35.52508587016896,-44.578587956869335,1.6050000000395812
312244.5897,-43.76998744009837,-42.34623912115352,-41.672951843177266,-50.38275444546903,1.606000000028871
312244.5907,-49.190667412406306,-47.03508559519036,-47.481480937101914,-55.7424557910393,1.6070000000181608
312244.5917,-54.08868248086851,-51.183892911254645,-52.77771653384322,-60.49267939222793,1.6080000000074506
312244.5927,-58.30818374947531,-54.65395624773499,-57.4008093348118,-64.48180282154115,1.6089999999967404
312244.5937,-61.71522479167358,-57.328086823921396,-61.211650202679856,-67.58117669234375,1.6100000000442378
312244.5947,-64.20621799562156,-59.11836760588548,-64.10140798725651,-69.69356592352167,1.6110000000335276
312244.5957,-65.71457089462511,-59.972154161908676,-65.99826772969654,-70.75973439202023,1.6120000000228174
312244.5967,-66.21493672740968,-59.875800967767766,-66.87179978656381,-70.76259982620961,1.6130000000121072
312244.5977,-65.72470526515092,-58.85577649460182,-66.73457912212619,-69.72858190887213,1.614000000001397
312244.5987,-64.30258826441188,-56.97704623892624,-65.64089978403646,-67.72599959277885,1.6149999999906868
312244.5997,-62.04439814797857,-54.338832097399155,-63.68267217350369,-64.86062253869773,1.6160000000381842
312244.6007,-59.076356308670505,-51.06807828384085,-60.98282806448924,-61.26872357311065,1.617000000027474
312244.6017,-55.54647676384603,-47.31114794492343,-57.68676856805281,-57.10819174792694,1.6180000000167638
312244.6027,-51.61473221968067,-43.22442278131012,-53.95255384700081,-52.54842913288037,1.6190000000060536
312244.6037,-47.4428077573057,-38.964566492954916,-49.94063503645822,-47.75985351330808,1.6199999999953434
312244.6047,-43.184273005328556,-34.67923340087541,-45.8039588970071,-42.90385429972723,1.6210000000428408
312244.6057,-38.97595428685963,-30.498954136574817,-41.679231267621134,-38.123997688803925,1.6220000000321306
312244.6067,-34.931168380347174,-26.53081537618229,-37.680010445088556,-33.539154149476566,1.6230000000214204
312244.6077,-31.135300461641073,-22.85438093725432,-33.89212690292626,-29.23903813222262,1.6240000000107102
312244.6087,-27.643987400458887,-19.52009303997085,-30.371707656621474,-25.28242372796982,1.625
312244.6097,-24.48392482447399,-16.550164738946098,-27.145842597364645,-21.69805215501292,1.6259999999892898
312244.6107,-21.656075253296667,-13.941748870384725,-24.215688953201482,-18.48800082625824,1.6270000000367872
312244.6117,-19.140838006629934,-11.67196653868686,-21.56159141178122,-15.63306258712663,1.628000000026077
312244.6127,-16.90457001314777,-9.704218153688506,-19.149619905564712,-13.099508369200729,1.6290000000153668
312244.6137,-14.906736251811765,-7.995097223720173,-16.938811025580794,-10.846493427738123,1.6300000000046566
312244.6147,-13.106929588537312,-6.501190899364416,-14.888353166177039,-8.83332697795115,1.6309999999939464
312244.6157,-11.471035546196443,-5.185084611657676,-12.963983709798306,-7.025860854135479,1.6320000000414439
312244.6167,-9.97592412213941,-4.019987300058932,-11.142965577832454,-5.401360864784836,1.6330000000307336
312244.6177,-8.61221731256688,-2.992548561435796,-9.417170191196766,-3.9513938907972417,1.6340000000200234
312244.6187,-7.384890840453747,-2.103634070367669,-7.793998319180449,-2.682477614631256,1.6350000000093132
312244.6197,-6.311700811156298,-1.3670414463082756,-6.2950991413386275,-1.6144769049987682,1.635999999998603
312244.6207,-5.4196575469662065,-0.8063540117886754,-4.953078453593216,-0.7769678859986743,1.6370000000461005
312244.6217,-4.7399766573667135,-0.4503233376458596,-3.806596529402673,-0.20400418646101437,1.6380000000353903
312244.6227,-4.3021007900118935,-0.32732403102322705,-2.894424005668397,0.07211130207719336,1.63900000002468
312244.6237,-4.127488143655083,-0.45952087094592003,-2.2491337263601663,0.027338354579703673,1.6400000000139698
312244.6247,-4.223895347356222,-0.8574196481734568,-1.8911469169279667,-0.34805118949183594,1.6410000000032596
312244.6257,-4.580839364682641,-1.5154358999230912,-1.8238193652359933,-1.0445925034261028,1.6419999999925494
312244.6267,-5.166809664420622,-2.409013888681721,-2.0301506497607615,-2.0305091269577775,1.6430000000400469
312244.6277,-5.928628987443462,-3.4936717962464927,-2.471536990375125,-3.2507772941713475,1.6440000000293367
312244.6287,-6.793145530840189,-4.7061537258276545,-3.088782031487249,-4.628576809708383,1.6450000000186265
312244.6297,-7.671202441997695,-5.967654130967272,-3.805350188150589,-6.069092226815986,1.6460000000079162
312244.6307,-8.46359555632201,-7.1888670815066105,-4.532616839453805,-7.465389186212588,1.646999999997206
312244.6317,-9.068520635639773,-8.276422548220856,-5.176661515746597,-8.705876415165145,1.6480000000447035
312244.6327,-9.389847919204461,-9.140123617011392,-5.645985055375374,-9.682695340031389,1.6490000000339933
312244.6337,-9.34546110900061,-9.700307102960211,-5.859426100992779,-10.300273388712554,1.650000000023283
312244.6347,-8.874870439272097,-9.894624725012902,-5.753517065720353,-10.48324462386259,1.6510000000125729
312244.6357,-7.945358585917884,-9.683585635074818,-5.288558756029939,-10.182985974312219,1.6520000000018626
312244.6367,-6.556039757196858,-9.054309712505693,-4.452802851351164,-9.38213512442874,1.6529999999911524
312244.6377,-4.73939519615028,-8.022104292440075,-3.26430211166443,-8.096636034990873,1.6540000000386499
312244.6387,-2.5600753307597404,-6.629679175493842,-1.7702032507699232,-6.3750829837431295,1.6550000000279397
312244.6397,-0.11100839271168686,-4.944036311887468,-0.04349622674591562,-4.295382397316557,1.6560000000172295
312244.6407,2.492896313201435,-3.051289985811943,1.8225267599412123,-1.958999752977876,1.6570000000065193
312244.6417,5.122938930350926,-1.049869343610365,3.7216321590100305,0.5167173790653238,1.657999999995809
312244.6427,7.646024825908612,0.9572913323922452,5.5431817947766096,3.0074710154384006,1.6590000000433065
312244.6437,9.934463498825885,2.870873031768459,7.181088010733449,5.391414778688094,1.6600000000325963
312244.6447,11.87532923065278,4.602872106580864,8.542387807313718,7.558200473134697,1.661000000021886
312244.6457,13.378580945568128,6.083189240668237,9.554670010896732,9.416879771440874,1.6620000000111759
312244.6467,14.38325204564307,7.264522430414135,10.171695308699253,10.90198202817342,1.6630000000004657
312244.6477,14.8611979282879,8.125140535039174,10.37671698075847,11.97726307470046,1.6639999999897555
312244.6487,14.818112600045922,8.669315243875904,10.183224230281953,12.636840227753979,1.665000000037253
312244.6497,14.291774963019245,8.92541099158897,9.633069605812345,12.9036743829701,1.6660000000265427
312244.6507,13.347736281790922,8.941853012228773,8.792184145070355,12.825607313755642,1.6670000000158325
312244.6517,12.072889268360973,8.781392080262203,7.744305378676417,12.469387429857225,1.6680000000051223
312244.6527,10.567544584996782,8.514241471472392,6.583323093323467,11.913298771058415,1.668999999994412
312244.6537,8.93676507441764,8.21076228157149,5.404968747749737,11.239128729438814,1.6700000000419095
312244.6547,7.281760332215992,7.934407975956107,4.29862538135913,10.524258684632072,1.6710000000311993
312244.6557,5.692119996734669,7.7356048535286925,3.3400112966628672,9.83463421710802,1.672000000020489
312244.6567,4.239566408522536,7.647145652866759,2.5853955109171247,9.219271078284086,1.6730000000097789
312244.6577,2.973746222332712,7.681518819659435,2.0678456811605357,8.706789975125059,1.6739999999990687
312244.6587,1.920372337727259,7.830401355348676,1.7958056064800068,8.304263860640054,1.6750000000465661
312244.6597,1.0817928068458158,8.066327884179895,1.7540696215460962,7.998426637448398,1.676000000035856
312244.6607,0.43982526333009314,8.346333766815313,1.9069877798839818,7.759055192027961,1.6770000000251457
312244.6617,-0.03952285853280771,8.617176784601595,2.2035214771562694,7.5441207993702095,1.6780000000144355
312244.6627,-0.4000053429393596,8.821588963009717,2.5835948753410314,7.306132306411099,1.6790000000037253
312244.6637,-0.6884358280393004,8.904912308610463,2.9850699183904466,6.998979003588233,1.679999999993015
312244.6647,-0.948060676672358,8.821438940962485,3.3506229794540467,6.584536719418773,1.6810000000405125
312244.6657,-1.2127095494786202,8.539810274523871,3.6338236217293938,6.038330460584924,1.6820000000298023
312244.6667,-1.5023335836284348,8.04692786572326,3.8038078295598217,5.353647577574703,1.6830000000190921
312244.6677,-1.8203870222596983,7.349980342869916,3.8480897785910186,4.543656688318823,1.684000000008382
312244.6687,-2.1533094336720286,6.476381272048583,3.773252302411049,3.641293212948438,1.6849999999976717
312244.6697,-2.472142492387741,5.471622917441336,3.6034768938313393,2.6969017971591778,1.6860000000451691
312244.6707,-2.7360901840757625,4.39525978975532,3.3770972090199014,1.773856261852495,1.687000000034459
312244.6717,-2.8976268589155514,3.315422980343325,3.1415633127290143,0.9425860971307236,1.6880000000237487
312244.6727,-2.908594271985523,2.302413100228497,2.9473670404126118,0.2736042104850513,1.6890000000130385
312244.6737,-2.726622937948339,1.4220117506548065,2.841585620934438,-0.16976282714752758,1.6900000000023283
312244.6747,-2.321175354614819,0.7291798412184127,2.8617404973772964,-0.3382040346375629,1.690999999991618
312244.6757,-1.6785426874793294,0.26277304028653997,3.0306371716920673,-0.2021115138141438,1.6920000000391155
312244.6767,-0.8052289719149509,0.04180404102557257,3.3527530047564778,0.2444683517646914,1.6930000000284053
312244.6777,0.2706824139518194,0.06362816861727172,3.8125830911467293,0.9820482385351923,1.6940000000176951
312244.6787,1.5003823196698116,0.3042383226779537,4.375155225530696,1.9662964503678357,1.695000000006985
312244.6797,2.8173867927594114,0.720646195761009,4.988703431672448,3.131003124311217,1.6959999999962747
312244.6807,4.142538255869701,1.255119799151697,5.589267640006337,4.39317031548495,1.6970000000437722
312244.6817,5.39050799246494,1.8408630058837072,6.106787053809203,5.659770955703195,1.698000000033062
312244.6827,6.477192404889062,2.4085793027955593,6.4720965966854935,6.835555954881213,1.6990000000223517
312244.6837,7.327295947705112,2.8932734224761862,6.624135541032749,7.831182852252528,1.7000000000116415
312244.6847,7.881363363395025,3.240619779347494,6.516645248102792,8.570903909893893,1.7010000000009313
312244.6857,8.10156624713644,3.412268158083945,6.123672466343548,8.99908996796275,1.7019999999902211
312244.6867,7.975660268968644,3.3895608647557522,5.443302326284149,9.084975098864392,1.7030000000377186
312244.6877,7.518699007784699,3.1752913848730664,4.499210791258617,8.825175568855787,1.7040000000270084
312244.6887,6.772301951149171,2.793327194685235,3.3398338890429957,8.243748450516366,1.7050000000162981
312244.6897,5.801507262529544,2.2861298064767728,2.035180399455621,7.389789795172714,1.706000000005588
312244.6907,4.6894717242135435,1.7104126879313406,0.6715434445396522,6.3328067202315435,1.7069999999948777
312244.6917,3.530488201745444,1.131361938375593,-0.6554277529747383,5.15630926605188,1.7080000000423752
312244.6927,2.4219546954874165,0.6159873661725173,-1.8486720039898115,3.9502358654106384,1.709000000031665
312244.6937,1.4560324732617194,0.22625879105410482,-2.8179487473241513,2.802934454794076,1.7100000000209548
312244.6947,0.7117636927891304,0.012705343558195428,-3.4875976579187293,1.7934592146600739,1.7110000000102445
312244.6957,0.24837795634868365,0.009111904643154242,-3.803102847080987,0.9849071081263127,1.7119999999995343
312244.6967,0.10040621240968334,0.22884081094442008,-3.7358477528564467,0.4194124638817939,1.7129999999888241
312244.6977,0.27504996664681786,0.6631488605098556,-3.285614533472971,0.11525233722187339,1.7140000000363216
312244.6987,0.7520403060842481,1.2816749232893212,-2.4805926242765612,0.06630661031195834,1.7150000000256114
312244.6997,1.4859853763480044,2.0350611309684297,-1.3748948343885607,0.24388529082051924,1.7160000000149012
312244.7007,2.4109694618909083,2.859461477648221,-0.043813445334717704,0.6007039588789591,1.717000000004191
312244.7017,3.446954442787748,3.6825062031722595,1.4227393168142162,1.0765794821872954,1.7179999999934807
312244.7027,4.507365629976237,4.430146755885001,2.9279927382782542,1.6052523982178406,1.7190000000409782
312244.7037,5.5071350639175,5.033718563332269,4.376556848833095,2.121635926643125,1.720000000030268
312244.7047,6.3704367316798285,5.436535933809228,5.682374269509093,2.5687547636881485,1.7210000000195578
312244.7057,7.0373834166305995,5.59937750411304,6.775651826081825,2.9036731145674626,1.7220000000088476
312244.7067,7.469060467815261,5.504327516560414,7.608141451981092,3.1018171418632257,1.7229999999981374
312244.7077,7.650437259540024,5.156597473834412,8.156302315827729,3.1592616186765596,1.7240000000456348
312244.7087,7.590906288702917,4.584148858340554,8.422082716607912,3.0927577480823722,1.7250000000349246
312244.7097,7.322432277352497,3.8351514539494795,8.431290980222956,2.937508316960381,1.7260000000242144
312244.7107,6.895526619644856,2.9735224514993615,8.229756935130725,2.742924878294056,1.7270000000135042
312244.7117,6.373473317304265,2.0729783232196746,7.877696978952916,2.5668068328944478,1.728000000002794
312244.7127,5.825400657607749,1.2101760980682104,7.44286577396646,2.4685437185377377,1.7289999999920838
312244.7137,5.318901970429926,0.4576089597640097,6.993189792846997,2.5020436117085874,1.7300000000395812
312244.7147,4.912948316617632,-0.12305566027919293,6.589621510407097,2.7091220895837202,1.731000000028871
312244.7157,4.651802193875443,-0.48655141686904413,6.279923955355079,3.114044375290089,1.7320000000181608
312244.7167,4.560537771068849,-0.6079648670453436,6.093996665221628,3.7198020270228174,1.7330000000074506
312244.7177,4.642610096104892,-0.4846865003615876,6.041195705900078,4.506535627033311,1.7339999999967404
312244.7187,4.879709317065454,-0.136180277677062,6.109898043458946,5.432302989129666,1.7350000000442378
312244.7197,5.233906606247328,0.39839486243907535,6.269334204324553,6.436159228500164,1.7360000000335276
312244.7207,5.65186881675398,1.0644673141731193,6.473485173540561,7.443283564998666,1.7370000000228174
312244.7217,6.070711580037947,1.7978080439599267,6.666632335842902,8.371680790448377,1.7380000000121072
312244.7227,6.424896007579202,2.5311835931978965,6.789983363089264,9.139823398709169,1.739000000001397
312244.7237,6.653468609703451,3.2012439445939918,6.788688620984264,9.674499565678074,1.7399999999906868
312244.7247,6.70690789969464,3.7549597679882663,6.618522560113109,9.918102638420336,1.7410000000381842
312244.7257,6.552877995231958,4.154968347575221,6.25153660794392,9.834642764120032,1.742000000027474
312244.7267,6.1802957713490425,4.383295274009025,5.680091130882782,9.413876709323526,1.7430000000167638
312244.7277,5.601283352474562,4.443079222488023,4.918834149451419,8.673126859751822,1.7440000000060536
312244.7287,4.850785756870461,4.35812416124677,4.004397924564013,7.656578105208451,1.7449999999953434
312244.7297,3.983863925660706,4.170317875641155,2.99281129255944,6.432080865241659,1.7460000000428408
312244.7307,3.0709035817162107,3.9351667671402226,1.9548534204939865,5.085726801682582,1.7470000000321306
312244.7317,2.1911877864014007,3.7158838422651783,0.9697810803120518,3.7146777774392583,1.7480000000214204
312244.7327,1.4254453347767522,3.5766113387666896,0.11802628332000127,2.4188976538810887,1.7490000000107102
312244.7337,0.8480921074891127,3.575447371465492,-0.5264320706857333,1.2925441895219292,1.75
312244.7347,0.5199178262890106,3.757968657356498,-0.903280576584318,0.4158141368877864,1.7509999999892898
312244.7357,0.48193278440145004,4.151896494334402,-0.9719598904784447,-0.1520049179479386,1.7520000000367872
312244.7367,0.7509816276617185,4.763444996029408,-0.716024951800955,-0.3776336515946433,1.753000000026077
312244.7377,1.3175645162611584,5.575729565511117,-0.14533492431906364,-0.25658098566233345,1.7540000000153668
312244.7387,2.1460961348926597,6.549415307541433,0.7041629527484013,0.1866482709746087,1.7550000000046566
312244.7397,3.1776003627279836,7.625568745409544,1.7730617282689631,0.9009307459999979,1.7559999999939464
312244.7407,4.334605488308072,8.730462795813946,2.983310477181111,1.81325808471362,1.7570000000414439
312244.7417,5.527794190079317,9.781895155442053,4.2447827223431664,2.8353790895881428,1.7580000000307336
312244.7427,6.66379444965183,10.696432467829265,5.462994447060916,3.8717269621408685,1.7590000000200234
312244.7437,7.653388313649299,11.396901195870063,6.547257943089788,4.827892345318188,1.7600000000093132
312244.7447,8.419375441330422,11.819419888630495,7.4185154895220045,5.618857796271042,1.760999999998603
312244.7457,8.903361412478947,11.919309047043383,8.016127042885607,6.176239039315462,1.7620000000461005
312244.7467,9.070843491404844,11.675320047224561,8.302985729430628,6.453879638751374,1.7630000000353903
312244.7477,8.914128880102783,11.09178339180591,8.26849423339164,6.43130847094063,1.76400000002468
312244.7487,8.452826635176145,10.19847357367316,7.929138670416318,6.114777540109238,1.7650000000139698
312244.7497,7.731884362914879,9.04820401610755,7.32662447577522,5.535830914294702,1.7660000000032596
312244.7507,6.817372297275687,7.712380029422676,6.523769155274509,4.74759115491271,1.7669999999925494
312244.7517,5.790428084565624,6.274929821330916,5.59855720681616,3.8191647470704346,1.7680000000400469
312244.7527,4.739945320616444,4.825184841349062,4.636932880296822,2.8287419790846307,1.7690000000293367
312244.7537,3.7547014437791173,3.450376645902071,3.7250204204001856,1.8560828575052153,1.7700000000186265
312244.7547,2.9156654342304726,2.2284489534337215,2.9415082835714874,0.9751280972813055,1.7710000000079162
312244.7557,2.2891989939901767,1.221847803850351,2.3509093585989604,0.24744889313798774,1.771999999997206
312244.7567,1.9217695645632515,0.4728534686831056,1.9983162305557256,-0.28284588437847363,1.7730000000447035
312244.7577,1.836639433666681,0.0008648682312384672,1.9061184603604746,-0.5922813208291668,1.7740000000339933
312244.7587,2.0327977381045113,-0.19814417795596304,2.072952884380719,-0.6790021616164591,1.775000000023283
312244.7597,2.486180998731015,-0.1499887178886091,2.4749374746731774,-0.5615309052288149,1.7760000000125729
312244.7607,3.1530047629219684,0.10134143384965968,3.069016059713132,-0.2754814616563287,1.7770000000018626
312244.7617,3.9748258897802784,0.4988827008317207,3.79803708589499,0.1313841809502536,1.7779999999911524
312244.7627,4.884791820181402,0.9789455933270471,4.597024529346269,0.6052053982592043,1.7790000000386499
312244.7637,5.81442562588823,1.4777743794222655,5.399989051041248,1.0925210853321934,1.7800000000279397
312244.7647,6.700253954698857,1.9379517534805453,6.146583046336188,1.5465199265858394,1.7810000000172295
312244.7657,7.489612843474943,2.313915820297914,6.787928388580325,1.9323779277710345,1.7820000000065193
312244.7667,8.145060514860871,2.5760531023385878,7.291037538525809,2.2311176163491253,1.782999999995809
312244.7677,8.646976900886195,2.7129800955570507,7.641397838022732,2.4415799222837005,1.7840000000433065
312244.7687,8.994121369063047,2.731812195058054,7.843480145268196,2.5802978347937615,1.7850000000325963
312244.7697,9.202133551637631,2.6564239811208865,7.919147284338868,2.6792805039239243,1.786000000021886
312244.7707,9.300175784327907,2.5239084819073545,7.904153631126497,2.7819354015330475,1.7870000000111759
312244.7717,9.326107973771306,2.3796248968458644,7.8431229918483,2.93755242523168,1.7880000000004657
312244.7727,9.320737428419868,2.2713663543110414,7.783548220431608,3.194927627185977,1.7889999999897555
312244.7737,9.321782081746795,2.2432675368597836,7.769457183534231,3.5958000011214826,1.790000000037253
312244.7747,9.358215970999199,2.3300977330027894,7.835425610363167,4.168802649385008,1.7910000000265427
312244.7757,9.445627707396902,2.5525455620102915,8.001584421201619,4.924586595703536,1.7920000000158325
312244.7767,9.583119723220987,2.914001203524739,8.270170499585936,5.852665469758993,1.7930000000051223
312244.7777,9.752118515761875,3.3991904300009126,8.624015252794619,6.920362887298118,1.793999999994412
312244.7787,9.917269596918777,3.9748271309980794,9.027169943986726,8.074037824479959,1.7950000000419095
312244.7797,10.029374985303084,4.592245955767213,9.427649986919517,9.242536906259048,1.7960000000311993
312244.7807,10.030117414851928,5.191774551158403,9.762063646963446,10.342598605577697,1.797000000020489
312244.7817,9.85812540840146,5.708425744208925,9.961695426595584,11.285735044777104,1.7980000000097789
312244.7827,9.455786148542584,6.078351785434236,9.959460312419047,11.985962239910174,1.7989999999990687
312244.7837,8.7761236918745,6.245419307060288,9.697047536873548,12.367654792548583,1.8000000000465661
312244.7847,7.789037893832802,6.16724347302625,9.131541572495873,12.372775958279167,1.801000000035856
312244.7857,6.486247232467819,5.820065207896562,8.24084724218285,11.966781666992132,1.8020000000251457
312244.7867,4.884392450715966,5.2019622453715275,7.027351743571213,11.142613301817365,1.8030000000144355
312244.7877,3.0259269790282564,4.334042833608816,5.519419137563668,9.922368011138483,1.8040000000037253
312244.7887,0.9776283582768551,3.2594650027071967,3.770516913981831,8.356450504502268,1.804999999993015
312244.7897,-1.1732076831186815,2.0403354789519494,1.8559999773275921,6.5202460582104536,1.8060000000405125
312244.7907,-3.324604275741218,0.7527500064729367,-0.13219706563030592,4.508588132154839,1.8070000000298023
312244.7917,-5.367285554864216,-0.5195793477847725,-2.092505033930149,2.428502994747725,1.8080000000190921
312244.7927,-7.192962464562529,-1.6925224861111898,-3.921687063877343,0.39087780097321595,1.809000000008382
312244.7937,-8.702785168112516,-2.6888819646560265,-5.523108163428575,-1.4981983041107971,1.8099999999976717
312244.7947,-9.815198902216157,-3.4452018157699094,-6.814553125292246,-3.145638393415089,1.8110000000451691
312244.7957,-10.4724865091484,-3.9173863349991778,-7.734875263648152,-4.478367819666814,1.812000000034459
312244.7967,-10.645395779442751,-4.084589737948345,-8.248863929445367,-5.448513244465476,1.8130000000237487
312244.7977,-10.335422483999999,-3.950999378116527,-8.349883033476837,-6.036315932508109,1.8140000000130385
312244.7987,-9.574534275718822,-3.545334250348045,-8.060040193801832,-6.250529865122772,1.8150000000023283
312244.7997,-8.422356129073584,-2.918097644601987,-7.427876733975989,-6.126302823929362,1.815999999991618
312244.8007,-6.961072184385298,-2.1368370931658793,-6.5238004125536495,-5.720775624050567,1.8170000000391155
312244.8017,-5.288509362337652,-1.2798554140073453,-5.433693156117107,-5.106848278436774,1.8180000000284053
312244.8027,-3.510034747235958,-0.4289651705308427,-4.251294939125134,-4.365731467992204,1.8190000000176951
312244.8037,-1.7300055425601815,0.33802923538088436,-3.07007607081159,-3.579010975188366,1.820000000006985
312244.8047,-0.04354717608697053,0.9544113597858424,-1.975352888340095,-2.820991281019303,1.8209999999962747
312244.8057,1.4706015758767104,1.3705259634783042,-1.0373722373554748,-2.1520487826674977,1.8220000000437722
312244.8067,2.755544124217958,1.558083644926276,-0.30599119644310396,-1.613618749532133,1.823000000033062
312244.8077,3.779515953074011,1.5123952948738157,0.19257995220858248,-1.2252737554770972,1.8240000000223517
312244.8087,4.536751913764748,1.2523339551822874,0.45670594441229606,-0.9841413000715533,1.8250000000116415
312244.8097,5.045906437834845,0.8180402139579005,0.5078870275303571,-0.8666752916938076,1.8260000000009313
312244.8107,5.346235259025651,0.26660407639599215,0.38714155397291455,-0.8325628612370376,1.8269999999902211
312244.8117,5.49195846585822,-0.3338496730053851,0.149609116606243,-0.8303374447739585,1.8280000000377186
312244.8127,5.545393791778304,-0.9110930472800226,-0.14205907092850628,-0.8041018101075497,1.8290000000270084
312244.8137,5.569559829341436,-1.3960675341166768,-0.4248441622953727,-0.7006570403611161,1.8300000000162981
312244.8147,5.620990874852283,-1.7297913439053427,-0.6423151935143016,-0.4762959056096236,1.831000000005588
312244.8157,5.743474629591042,-1.8692325045460358,-0.7507001044463555,-0.10255514637087479,1.8319999999948777
312244.8167,5.963324328956084,-1.7915816341977346,-0.7234713998431044,0.42967267901440814,1.8330000000423752
312244.8177,6.286638097442844,-1.496515484102213,-0.5539994375410024,1.1081014853368913,1.834000000031665
312244.8187,6.698796229097919,-1.0062389463635564,-0.25602352121751504,1.8993129935936377,1.8350000000209548
312244.8197,7.166221649827133,-0.36330998248445057,0.1380880815243795,2.751310665467927,1.8360000000102445
312244.8207,7.640202236604919,0.37353228283242274,0.581095247591446,3.598128734513409,1.8369999999995343
312244.8217,8.062368208158524,1.135122255456086,1.0162635798314337,4.366050852361715,1.8379999999888241
312244.8227,8.371253594931035,1.84863833490457,1.3838032054136222,4.980828526193915,1.8390000000363216
312244.8237,8.5092638816423,2.4447248264982027,1.6277030307809441,5.375185088483125,1.8400000000256114
312244.8247,8.429332672109641,2.8642687319887115,1.7022547299290094,5.495856809171443,1.8410000000149012
312244.8257,8.100582361469746,3.064170663445807,1.5775911929962827,5.309462434283355,1.842000000004191
312244.8267,7.512403997830236,3.0215493628205894,1.2436619523300396,4.806602169597919,1.8429999999934807
312244.8277,6.67652976326787,2.735974031348913,0.7122235245761797,4.003756298399945,1.8440000000409782
312244.8287,5.626872089659181,2.229512625941383,0.01662027596334635,2.9427657601428163,1.845000000030268
312244.8297,4.417126480858928,1.5445983970272257,-0.7906482086516708,1.6879114212180026,1.8460000000195578
312244.8307,3.116358574313473,0.7399302168857981,-1.642355971444756,0.32084253276696195,1.8470000000088476
312244.8317,1.8029977509862887,-0.11518620537361057,-2.4625581020451612,-1.0661848769434135,1.8479999999981374
312244.8327,0.5578197478600831,-0.9474980202734278,-3.173599490205854,-2.378132780710777,1.8490000000456348
312244.8337,-0.5433965942391754,-1.6868116901409722,-3.703444631082302,-3.52533646469304,1.8500000000349246
312244.8347,-1.436818274582847,-2.272660509594274,-3.9926119843462904,-4.4312228128263795,1.8510000000242144
312244.8357,-2.076428700220595,-2.6599833268422874,-4.000030675126309,-5.038863392237125,1.8520000000135042
312244.8367,-2.4382395573871856,-2.8232640821780812,-3.7072388771352687,-5.3157441230447136,1.853000000002794
312244.8377,-2.522424892242004,-2.7587349975701256,-3.120502183707342,-5.256303195497331,1.8539999999920838
312244.8387,-2.353161180711049,-2.4844380163345035,-2.2706311498344913,-4.882002218148364,1.8550000000395812
312244.8397,-1.9761817535715427,-2.038150464242461,-1.2105003456289685,-4.238931625791622,1.856000000028871
312244.8407,-1.4542781572990857,-1.4733910564264856,-0.010494857830292375,-3.3931872195574933,1.8570000000181608
312244.8417,-0.8611828114145446,-0.8539106446872626,1.247687700548449,-2.424467458229322,1.8580000000074506
312244.8427,-0.27442679630408523,-0.24722001690289278,2.4782907973997896,-1.4185101366766957,1.8589999999967404
312244.8437,0.23213195952240057,0.28219984252644287,3.599115639957022,-0.4590960139144114,1.8600000000442378
312244.8447,0.5953814709012158,0.6793303938269798,4.538771996389452,0.3796147080518788,1.8610000000335276
312244.8457,0.7689389419292522,0.9040538389000146,5.242869000524176,1.0396830208586019,1.8620000000228174
312244.8467,0.7274598487022147,0.9350600338494686,5.678554213497718,1.4843052945032347,1.8630000000121072
312244.8477,0.46885165887939106,0.7718380147790668,5.8369694959452305,1.700584033786944,1.864000000001397
312244.8487,0.014175966666928656,0.4345588401246156,5.733394756898229,1.6999086310603115,1.8649999999906868
312244.8497,-0.5947506813374368,-0.038134028304621,5.405075642273828,1.5159331900242838,1.8660000000381842
312244.8507,-1.299821153286924,-0.5932029355049468,4.906956729925586,1.2003725957890694,1.867000000027474
312244.8517,-2.032728126285987,-1.1687536668493166,4.305745753749355,0.8170497452364786,1.8680000000167638
312244.8527,-2.7220810087304317,-1.70047864878906,3.6728968121728207,0.4347956304902738,1.8690000000060536
312244.8537,-3.300848037723454,-2.128362025000662,3.077205495381368,0.11991341202125498,1.8699999999953434
312244.8547,-3.71338887282887,-2.402976762039538,2.5777460710008415,-0.07104282758619393,1.8710000000428408
312244.8557,-3.921381557507725,-2.4907440115361545,2.217846611116014,-0.09745799868534383,1.8720000000321306
312244.8567,-3.90805445710841,-2.3776272725716043,2.0206955369694635,0.060797925936535394,1.8730000000214204
312244.8577,-3.680298340275321,-2.0708883410210572,1.9870124965623883,0.40091632451649073,1.8740000000107102
312244.8587,-3.268440116293203,-1.5987233527046185,2.0950134757646452,0.8970300304489041,1.875
312244.8597,-2.7236877449384327,-1.0078065485954768,2.3026744435372937,1.5024377796459105,1.8759999999892898
312244.8607,-2.1134832437652737,-0.3589760749003801,2.5520717320621653,2.1539526301290777,1.8770000000367872
312244.8617,-1.5152053310028717,0.2785201871204114,2.7753728887742533,2.7779451517808242,1.878000000026077
312244.8627,-1.0088250884381111,0.8336581745265137,2.9018889247922557,3.297485986531438,1.8790000000153668
312244.8637,-0.6692213157628196,1.2405025204581897,2.8654936575818435,3.6398850337494446,1.8800000000046566
312244.8647,-0.5588969044709096,1.4446309439092577,2.611678501391202,3.743886434293938,1.8809999999939464
312244.8657,-0.721800213691308,1.408488629058964,2.1035452530670375,3.565813303274047,1.8820000000414439
312244.8667,-1.178849732771893,1.1151472363137747,1.3261418175444903,3.084060230538002,1.8830000000307336
312244.8677,-1.9255965751227773,0.5700989796279257,0.2887064215082028,2.3014945665531465,1.8840000000200234
312244.8687,-2.932253519978985,-0.19909168854426856,-0.9754109974554744,1.2455333075586887,1.8850000000093132
312244.8697,-4.146091442997908,-1.1452466956210456,-2.411155682741814,-0.034109321875332936,1.885999999998603
312244.8707,-5.495976219573635,-2.2059047729246846,-3.946282141353833,-1.469780206272911,1.8870000000461005
312244.8717,-6.898613677708217,-3.3091021856603358,-5.4975491774364915,-2.981922384962121,1.8880000000353903
312244.8727,-8.265906859649025,-4.380040641442871,-6.978005881283314,-4.486194438863389,1.88900000002468
312244.8737,-9.512724529853916,-5.347992903090808,-8.30467217392381,-5.9009773658417775,1.8900000000139698
312244.8747,-10.564342678292308,-6.152774046559129,-9.40587881719156,-7.1545364832761065,1.8910000000032596
312244.8757,-11.362855197640835,-6.750149705379607,-10.227564582416383,-8.191142580460104,1.8919999999925494
312244.8767,-11.871952460582206,-7.115657774497245,-10.737929316622047,-8.975561814283962,1.8930000000400469
312244.8777,-12.079627053323014,-7.2464765921726455,-10.930001085685966,-9.495487238886767,1.8940000000293367
312244.8787,-11.998568658844986,-7.161165209206287,-10.821877848015356,-9.761690200195904,1.8950000000186265
312244.8797,-11.664235161438235,-6.89731107350512,-10.45462948381838,-9.80589679705362,1.8960000000079162
312244.8807,-11.130812448876398,-6.507326694917612,-9.888072489576661,-9.676620770090219,1.896999999997206
312244.8817,-10.46547911214254,-6.052819327144537,-9.194835157998996,-9.433387164814551,1.8980000000447035
312244.8827,-9.741554432669682,-5.598098442971981,-8.45329556704718,-9.13994084333798,1.8990000000339933
312244.8837,-9.031212944445866,-5.203470897244754,-7.740082172760475,-8.857134562782353,1.900000000023283
312244.8847,-8.398486332709966,-4.918994723212912,-7.122866787733021,-8.636222886174975,1.9010000000125729
312244.8857,-7.8932399658668215,-4.7793173226710906,-6.654148372212423,-8.513247436247806,1.9020000000018626
312244.8867,-7.546710388946001,-4.800116715790467,-6.36662648165976,-8.505089863127422,1.9029999999911524
312244.8877,-7.369031684493954,-4.976505922448773,-6.270605186870332,-8.607602042360341,1.9040000000386499
312244.8887,-7.348978406672834,-5.2835659371108825,-6.3536673111062285,-8.796014830204635,1.9050000000279397
312244.8897,-7.455930585229731,-5.678961186641575,-6.5826346194636685,-9.02759767010658,1.9060000000172295
312244.8907,-7.643844003128119,-6.107383589850125,-6.907604137211868,-9.24631406507797,1.9070000000065193
312244.8917,-7.856808508645619,-6.506387818601463,-7.2676461873626215,-9.389014892675869,1.907999999995809
312244.8927,-8.035618320255512,-6.8130392251676435,-7.5975861120807515,-9.392552910174338,1.9090000000433065
312244.8937,-8.124676823456273,-6.970711183232239,-7.835185063672171,-9.201103437950097,1.9100000000325963
312244.8947,-8.078524310520336,-6.935348841482449,-7.9279962195312015,-8.7729481028969,1.911000000021886
312244.8957,-7.867313911920728,-6.6805637239139335,-7.839205168996468,-8.086023780833184,1.9120000000111759
312244.8967,-7.48066506656457,-6.2010338735242705,-7.551863902272386,-7.1416534088170955,1.9130000000004657
312244.8977,-6.9294850891152295,-5.513846805898058,-7.071086950353906,-5.966048239172458,1.9139999999897555
312244.8987,-6.245551879052355,-4.657621744361126,-6.423980171371942,-4.60938570521905,1.915000000037253
312244.8997,-5.478874641542011,-3.689464143818026,-5.657297614661325,-3.142502546633022,1.9160000000265427
312244.9007,-4.693072577827092,-2.6800183153505226,-4.833047697840847,-1.6514762665187186,1.9170000000158325
312244.9017,-3.9592118071749107,-1.7070722745438796,-4.022474373942706,-0.23057655424913698,1.9180000000051223
312244.9027,-3.348698460943147,-0.848314313908052,-3.2990018927082727,1.025768443146103,1.918999999994412
312244.9037,-2.9259252593850977,-0.1739289311536004,-2.7308370818484002,2.0312442724137374,1.9200000000419095
312244.9047,-2.741399968992274,0.26025815340977115,-2.3739603458625593,2.71538372553646,1.9210000000311993
312244.9057,-2.8260436634397204,0.4184224771120353,-2.2662020326691583,3.030029234264945,1.922000000020489
312244.9067,-3.1872384196842396,0.28861789943664096,-2.4229977302282406,2.9539067220638375,1.9230000000097789
312244.9077,-3.807038380291374,-0.11550045324877618,-2.835254432612817,2.4948684733852113,1.9239999999990687
312244.9087,-4.642751058761541,-0.755293836793603,-3.4695551114158523,1.6895805489222833,1.9250000000465661
312244.9097,-5.629867490022187,-1.5700637450666461,-4.270702002796809,0.6006703201370968,1.926000000035856
312244.9107,-6.687092577167741,-2.4820293065850607,-5.166371083078074,-0.6884112940349895,1.9270000000251457
312244.9117,-7.7230229374851245,-3.4029108437421374,-6.073444044972256,-2.080343361969553,1.9280000000144355
312244.9127,-8.64385865236369,-4.241519793149768,-6.905419788247859,-3.472064556926227,1.9290000000037253
312244.9137,-9.361433339137896,-4.911659700239834,-7.580201111163402,-4.763330173718319,1.929999999993015
312244.9147,-9.80081392243468,-5.339613610568086,-8.027514385117325,-5.864910498206289,1.9310000000405125
312244.9157,-9.906760708584471,-5.4705326631033815,-8.195254285972693,-6.705682278905782,1.9320000000298023
312244.9167,-9.648446134599187,-5.273145180539147,-8.054148857303357,-7.237974246207804,1.9330000000190921
312244.9177,-9.021996460126898,-4.742364913228704,-7.600302269212867,-7.440697545173389,1.934000000008382
312244.9187,-8.05062860506755,-3.8995759083970367,-6.855377821868988,-7.320006035248734,1.9349999999976717
312244.9197,-6.7823841025944285,-2.7905905412491054,-5.864412010094764,-6.907468837445935,1.9360000000451691
312244.9207,-5.285691388838129,-1.481495435916277,-4.691479527600765,-6.2559752077811845,1.937000000034459
312244.9217,-3.6431940755667824,-0.052796329614218464,-3.4136365677823686,-5.433806722414147,1.9380000000237487
312244.9227,-1.9444463579130558,1.4075714300093978,-2.113735391712621,-4.517483067000759,1.9390000000130385
312244.9237,-0.2781813874179916,2.8116999437897805,-0.87281068813075,-3.5840989067633036,1.9400000000023283
312244.9247,1.2751058714969508,4.07893135568484,0.237222774521858,-2.7039097482945205,1.940999999991618
312244.9257,2.6495565031132067,5.142176717957128,1.1598551160949473,-1.9338906968792855,1.9420000000391155
312244.9267,3.798726878392926,5.952759009164265,1.8586453631221738,-1.312887165042102,1.9430000000284053
312244.9277,4.698313717117072,6.483359885009003,2.3198225174440843,-0.8588114378952668,1.9440000000176951
312244.9287,5.346595418476696,6.728840852780028,2.5525864471005266,-0.5681299894123228,1.945000000006985
312244.9297,5.762588038240442,6.704921142000002,2.587099253930267,-0.4176542978590455,1.9459999999962747
312244.9307,5.982141732769553,6.444905715085396,2.4703863948477998,-0.3684156036736036,1.9470000000437722
312244.9317,6.052408051598083,5.994846853734294,2.2605737401802486,-0.3711945536607574,1.948000000033062
312244.9327,6.025269989089495,5.407672955001873,2.020051601364939,-0.3731106763912412,1.9490000000223517
312244.9337,5.95042926596574,4.736913942418354,1.8082633201293838,-0.3245705247892343,1.9500000000116415
312244.9347,5.868878749875959,4.030684823145502,1.6748537531323313,-0.18583757538629803,1.9510000000009313
312244.9357,5.8074488694183355,3.326554495413833,1.6538781185126123,0.06747488463093866,1.9519999999902211
312244.9367,5.77500907414943,2.647829611775127,1.759667514872557,0.44057838785372466,1.9530000000377186
312244.9377,5.7607393449185125,2.0016330258498676,1.9847840909425984,0.9177742401358197,1.9540000000270084
312244.9387,5.734678696040249,1.3789682120531894,2.3002922525669947,1.4630210195435374,1.9550000000162981
312244.9397,5.6505279113190525,0.7567538943370647,2.6583426111156805,2.022784166976977,1.956000000005588
312244.9407,5.4504549543633525,0.10160765844126939,2.9968350550769576,2.5309154293111726,1.9569999999948777
312244.9417,5.071446081733871,-0.6250259225441874,3.2457189076586412,2.915101941009249,1.9580000000423752
312244.9427,4.452583919939251,-1.4609498271765209,3.3343220549341033,3.1042611719100126,1.959000000031665
312244.9437,3.5425316867253205,-2.437126824539661,3.1989935313653954,3.0361551002101983,1.9600000000209548
312244.9447,2.3064706099835575,-3.5720885548358994,2.7903059842944233,2.6644651369014127,1.9610000000102445
312244.9457,0.7317789122026818,-4.867458333418168,2.0790996333622664,1.9646119387179082,1.9619999999995343
312244.9467,-1.1681481495621477,-6.305099858808742,1.0607546140285098,0.9377174360103611,1.9629999999888241
312244.9477,-3.352367180234452,-7.846246946495719,-0.2427560362827932,-0.387720592799163,1.9640000000363216
312244.9487,-5.753360746350858,-9.432775252084175,-1.7832708457482984,-1.9566548623176998,1.9650000000256114
312244.9497,-8.280496420066743,-10.99056463583973,-3.489306134433131,-3.6907907459717606,1.9660000000149012
312244.9507,-10.825713845688213,-12.434691145173646,-5.271152861130578,-5.494101346099842,1.967000000004191
312244.9517,-13.270968839872246,-13.676001160737709,-7.027758543939638,-7.260078491175592,1.9679999999934807
312244.9527,-15.496792681458722,-14.628475485669194,-8.654776020833998,-8.880073192361115,1.9690000000409782
312244.9537,-17.391213613721668,-15.216702490692523,-10.053046540660304,-10.251970687761732,1.970000000030268
312244.9547,-18.858246981972467,-15.382755896112148,-11.136739888960241,-11.288408529069423,1.9710000000195578
312244.9557,-19.825194429680604,-15.091817120389496,-11.840403353011817,-11.923784950544055,1.9720000000088476
312244.9567,-20.24809810179772,-14.335990524426206,-12.124271603819492,-12.119415449307903,1.9729999999981374
312244.9577,-20.114862928918352,-13.13592227904095,-11.977351457678408,-11.866367594293633,1.9740000000456348
312244.9587,-19.44577296400966,-11.540034662323245,-11.418003487164514,-11.18572112274011,1.9750000000349246
312244.9597,-18.291366207671896,-9.621408237412773,-10.491976658699695,-10.126241573948052,1.9760000000242144
312244.9607,-16.72787374300709,-7.472563494849854,-9.268090148853021,-8.759697896506644,1.9770000000135042
312244.9617,-14.850650401852745,-5.198590166227741,-7.831975457398475,-7.174274382798689,1.978000000002794
312244.9627,-12.76620463849101,-2.9092276310062806,-6.2784709692932665,-5.4667038103962025,1.9789999999920838
312244.9637,-10.583557792384463,-0.7105986844495435,-4.703383171193236,-3.7338648710078446,1.9800000000395812
312244.9647,-8.405716067784871,1.3026681616692708,-3.1953822696730128,-2.0646317453069303,1.981000000028871
312244.9657,-6.322017619180742,3.054228963432005,-1.8287800841242399,-0.5327328517702871,1.9820000000181608
312244.9667,-4.402024510129277,4.491130418696871,-0.6578469879808391,0.8087275018960561,1.9830000000074506
312244.9677,-2.6914742939285823,5.586793095243568,0.286828588685772,1.930596447012354,1.9839999999967404
312244.9687,-1.2106038011547673,6.341632292936278,0.9996349556003966,2.8285724763109585,1.9850000000442378
312244.9697,0.045071859439935275,6.781298033553148,1.498811041543356,3.5216387834328193,1.9860000000335276
312244.9707,1.1016767947195216,6.952737432103085,1.823057445187466,4.048230440305789,1.9870000000228174
312244.9717,2.0019572170295477,6.918484008594512,2.026258820513556,4.460554543596084,1.9880000000121072
312244.9727,2.7988774730879236,6.749740152912445,2.1708697503760077,4.8176590898420955,1.989000000001397
312244.9737,3.548500462749602,6.518925626082811,2.3206391038982495,5.177963840028172,1.9899999999906868
312244.9747,4.302880380125489,6.2924066856449485,2.533403946059165,5.59201357207442,1.9910000000381842
312244.9757,5.103680660270029,6.124093488317256,2.8546683138894977,6.096186555681835,1.992000000027474
312244.9767,5.977145367238992,6.050500832483042,3.3125965743857075,6.707991788508089,1.9930000000167638
312244.9777,6.930906941341978,6.087718389693078,3.914904437862462,7.4234274779763165,1.9940000000060536
312244.9787,7.952922048508273,6.230546097119389,4.647937757322093,8.216666420339747,1.9949999999953434
312244.9797,9.012609459026216,6.453837071425234,5.478009211616815,9.042101728291426,1.9960000000428408
312244.9807,10.064041134871857,6.715875119469309,6.354837631476705,9.838551619988866,1.9970000000321306
312244.9817,11.050832077218125,6.963417609402102,7.216726291080948,10.535207713217188,1.9980000000214204
312244.9827,11.912206202746155,7.137876111520634,7.996945403650967,11.058738401315965,1.9990000000107102
312244.9837,12.589600990382563,7.182001993121301,8.63066701524014,11.340844237996638,2.0
312244.9847,13.03312386644389,7.046401942307234,9.0617487833076,11.32551689095106,2.00099999998929
312244.9857,13.207192798041431,6.695232856293792,9.248681567217185,10.975281386827756,2.0020000000367872
312244.9867,13.094779970216717,6.110513749130882,9.16910221840043,10.275800097232127,2.003000000026077
312244.9877,12.699821729230468,5.29463515062243,8.82241860048514,9.238376339170653,2.004000000015367
312244.9887,12.047545467160806,4.270829400688083,8.230284035560667,7.900099799644228,2.0050000000046566
312244.9897,11.182675852359043,3.081569940152933,7.434874043515194,6.3216051050161655,2.0059999999939464
312244.9907,10.165697487986973,1.785073767153772,6.49513792668965,4.582646235255577,2.007000000041444
312244.9917,9.067547200185755,0.4502682567863565,5.481399618188692,2.7759004699549914,2.0080000000307336
312244.9927,7.963267131031244,-0.8492668817833815,4.468846241238888,0.9995855539708963,2.0090000000200234
312244.9937,6.925253913672427,-2.0417742121564264,3.5305527942992354,-0.650413724185723,2.0100000000093132
312244.9947,6.016779129413205,-3.063565330734216,2.730736450752849,-2.08816915502791,2.010999999998603
312244.9957,5.2864281124003645,-3.864423883961596,2.118909769835953,-3.2443707409468736,2.0120000000461005
312244.9967,4.764010906780244,-4.411638864978041,1.72551116737778,-4.071411685133616,2.0130000000353903
312244.9977,4.458350227564034,-4.692284217534282,1.5594424282947708,-4.546439109444273,2.01400000002468
312244.9987,4.357161620060103,-4.713540407962209,1.6077517096400225,-4.672113722409516,2.01500000001397
312244.9997,4.4290297010854855,-4.501052736367405,1.8374854728411074,-4.475046398730803,2.0160000000032596
312245.0007,4.627272603024917,-4.0955197219071575,2.199515528122613,-4.002106045938832,2.0169999999925494
312245.0017,4.895295778604973,-3.5478830106332917,2.6339495210288377,-3.314998909902534,2.018000000040047
312245.0027,5.172885338756238,-2.9136301121233084,3.0765744594632993,-2.4836843987777066,2.0190000000293367
312245.0037,5.402795287714158,-2.246808928027957,3.4656791063360965,-1.5793004634587002,2.0200000000186265
312245.0047,5.536952095963522,-1.5943797837124112,3.7485626330716086,-0.6673121079317876,2.0210000000079162
312245.0057,5.541637259862139,-0.9914938967024195,3.8870677470565753,0.19843405278418735,2.021999999997206
312245.0067,5.4011102954550605,-0.45819063739440485,3.861573604967853,0.9801648397616215,2.0230000000447035
312245.0077,5.119291017155691,0.0021407526468203426,3.6730376550834607,1.6587173141183955,2.0240000000339933
312245.0087,4.719315510505747,0.4023714340396574,3.3428709230565246,2.2339282162952063,2.025000000023283
312245.0097,4.240995532077544,0.7693509944329951,2.9106488282959915,2.722868011675513,2.026000000012573
312245.0107,3.7364247408909215,1.1399655274561598,2.4298778136412023,3.156132911469637,2.0270000000018626
312245.0117,3.264165854778329,1.5559421192068017,1.9622352021903853,3.572607858707952,2.0279999999911524
312245.0127,2.882601401225089,2.057940121641248,1.5708561100798137,4.0132713867380945,2.02900000003865
312245.0137,2.643122161732918,2.6795499874445143,1.3133412726016298,4.514713667027966,2.0300000000279397
312245.0147,2.583852253641757,3.4418388775494173,1.2351931511435097,5.10307184197804,2.0310000000172295
312245.0157,2.724565161661689,4.349036513609161,1.364351097694188,5.789048449662347,2.0320000000065193
312245.0167,3.0633348853365967,5.385848961263597,1.7073929964196128,6.56457298511019,2.032999999995809
312245.0177,3.5753011583412158,6.516732279107014,2.247810613930942,7.401503687612306,2.0340000000433065
312245.0187,4.213723352497892,7.687267316031475,2.9465644419269097,8.25256246041599,2.0350000000325963
312245.0197,4.913274067967815,8.827569962764422,3.7449007895808175,9.054470504905522,2.036000000021886
312245.0207,5.595302387824183,9.857468137122684,4.56919114044169,9.73302802588348,2.037000000011176
312245.0217,6.1746000471822935,10.69299769422273,5.337353224475607,10.209680448133083,2.0380000000004657
312245.0227,6.567050758610223,11.253632039435796,5.966254644197746,10.408955975016775,2.0389999999897555
312245.0237,6.697448874056575,11.469578222548957,6.379398940818419,10.266060834725211,2.040000000037253
312245.0247,6.506747972732507,11.288454089228841,6.514160781106523,9.733889274363838,2.0410000000265427
312245.0257,5.958045714308782,10.680708850022613,6.3278749615204575,8.788748609108964,2.0420000000158325
312245.0267,5.040724304699061,9.643258962239035,5.802189670109368,7.4342116609067,2.0430000000051223
312245.0277,3.772335534191846,8.200972242452028,4.945257792329917,5.702679241163306,2.043999999994412
312245.0287,2.1980293671751268,6.4058303327395985,3.791545217754233,3.6544477301470732,2.0450000000419095
312245.0297,0.38755531814168936,4.33381416915144,2.3992622118786016,1.3743109095752128,2.0460000000311993
312245.0307,-1.5699058429292516,2.0797683565839162,0.8456509016374886,-1.0340415406561365,2.047000000020489
312245.0317,-3.572618185986138,-0.24931197337567282,-0.7794332889949536,-3.455356610118161,2.048000000009779
312245.0327,-5.514252040701452,-2.5419822154941456,-2.381045755015332,-5.7712431923447225,2.0489999999990687
312245.0337,-7.292206895065228,-4.690357307621475,-3.8670771775515465,-7.868945351047834,2.050000000046566
312245.0347,-8.815539577770235,-6.597722774177054,-5.155836586602756,-9.64968302414925,2.051000000035856
312245.0357,-10.011781293037322,-8.18508265667755,-6.182586397117774,-11.035817501200167,2.0520000000251457
312245.0367,-10.832035056596784,-9.39608274730856,-6.904426164546251,-11.976207298176087,2.0530000000144355
312245.0377,-11.253910772876793,-10.199903757412873,-7.303083297535315,-12.449288370290812,2.0540000000037253
312245.0387,-11.282062508666717,-10.591912746847406,-7.385372798569232,-12.46362481624944,2.054999999993015
312245.0397,-10.946321357933291,-10.592073528747038,-7.181314371161997,-12.05591196776406,2.0560000000405125
312245.0407,-10.297645503419567,-10.241327293853224,-6.740121850758298,-11.286650398565028,2.0570000000298023
312245.0417,-9.402314614142362,-9.59634304863098,-6.124484785565083,-10.23392423699844,2.058000000019092
312245.0427,-8.334958771563903,-8.723185521692129,-5.403725157929728,-8.985889672884111,2.059000000008382
312245.0437,-7.1711170559430535,-7.690541823144171,-4.646517836437256,-7.6326932886181265,2.0599999999976717
312245.0447,-5.980057792202963,-6.563178541042477,-3.913901166588499,-6.258584108727702,2.061000000045169
312245.0457,-4.818557931997317,-5.396265516188284,-3.2532705650740374,-4.934954089755382,2.062000000034459
312245.0467,-3.7262367632694695,-4.231105072051916,-2.693946484562326,-3.7149423217130413,2.0630000000237487
312245.0477,-2.7228793013672106,-3.0926558619259077,-2.244748714499959,-2.630078442327992,2.0640000000130385
312245.0487,-1.807983117724247,-1.9890536799557876,-1.8938073902954498,-1.6892364555626038,2.0650000000023283
312245.0497,-0.9625388305331486,-0.913126126575268,-1.6106171297524174,-0.8799413515593046,2.065999999991618
312245.0507,-0.1528309455662619,0.15430572713623214,-1.3501164103031773,-0.1718400167580139,2.0670000000391155
312245.0517,0.6641559129450405,1.2397274216131853,-1.0583716742969975,0.4780625976247263,2.0680000000284053
312245.0527,1.5343003782855502,2.3713637519535458,-0.6792845988419559,1.1189707747465043,2.069000000017695
312245.0537,2.499555113484648,3.5733630143038555,-0.16163730687743197,1.7993500087496206,2.070000000006985
312245.0547,3.5915182969807837,4.860377585831224,0.5342457846687267,2.5601894054123813,2.0709999999962747
312245.0557,4.826043968501211,6.233146195948866,1.4309057188650174,3.429172791647958,2.072000000043772
312245.0567,6.199466997925252,7.675582717468258,2.5298097826730617,4.416360374082198,2.073000000033062
312245.0577,7.686858900308628,9.1537245671076,3.8094882178198404,5.511827131009106,2.0740000000223517
312245.0587,9.242529669628292,10.61670586367844,5.225967174896691,6.6855048084633735,2.0750000000116415
312245.0597,10.802767940574878,11.999714941665092,6.715493370291402,7.889251217102979,2.0760000000009313
312245.0607,12.290588935983566,13.228693002451148,8.199320716972084,9.060945580444137,2.076999999990221
312245.0617,13.622058632579977,14.22635069794212,9.590125649232055,10.130204173477955,2.0780000000377186
312245.0627,14.713603054809248,14.918940144303809,10.799455801535572,11.025146559161804,2.0790000000270084
312245.0637,15.489609201372646,15.243135131871835,11.745511938343535,11.679535489932375,2.080000000016298
312245.0647,15.889588858605308,15.152350655234875,12.360525790973927,12.03957349655827,2.081000000005588
312245.0657,15.874211945429881,14.621876673711455,12.59703039877427,12.069670215012586,2.0819999999948777
312245.0667,15.429618672429346,13.6523061541652,12.432421423081673,11.75659348621857,2.083000000042375
312245.0677,14.569579750880962,12.270893865009604,11.871367866286835,11.111574408431755,2.084000000031665
312245.0687,13.335275666474486,10.530674986467057,10.945833226941415,10.170136325525137,2.0850000000209548
312245.0697,11.79269010823668,8.507382747338143,9.712693784735897,8.989640515244496,2.0860000000102445
312245.0707,10.027837357928842,6.294411651557618,8.249167656880843,7.644765174469629,2.0869999999995343
312245.0717,8.14024712364228,3.996257353535816,6.646474626076711,6.2213371680745535,2.087999999988824
312245.0727,6.235293358967893,1.7210080461309494,5.002312661757922,4.809097969027935,2.0890000000363216
312245.0737,4.416060450363517,-0.42744852946794903,3.412846638813433,3.4940903523723956,2.0900000000256114
312245.0747,2.7754806773662444,-2.356812217112334,1.9649475807915646,2.351390386122658,2.091000000014901
312245.0757,1.3894474070361564,-3.992700911496822,0.7293928787079262,1.4388763608315296,2.092000000004191
312245.0767,0.31151221800200046,-5.283374594456216,-0.24435772549097137,0.7926257547160971,2.0929999999934807
312245.0777,-0.43037933869936107,-6.202455970189358,-0.9313495824464945,0.424373025284226,2.094000000040978
312245.0787,-0.8348542447636735,-6.74944039237146,-1.3320204074090216,0.32126050414800084,2.095000000030268
312245.0797,-0.9257403104045349,-6.947995920857322,-1.4707449883338923,0.44789164112213853,2.0960000000195578
312245.0807,-0.7485361749898419,-6.842260846667701,-1.3922186420619578,0.7504721906174727,2.0970000000088476
312245.0817,-0.36510378098436186,-6.491530987295543,-1.1560652667226967,1.1626226009362008,2.0979999999981374
312245.0827,0.15287387950970138,-5.9638747486583314,-0.8302214791824122,1.6122836920199084,2.099000000045635
312245.0837,0.7310191427773814,-5.329306523301174,-0.4837591996884272,2.029033472258502,2.1000000000349246
312245.0847,1.2992760325525932,-4.65317980952032,-0.1798546715822139,2.3510958310677323,2.1010000000242144
312245.0857,1.7981468903347972,-3.990427895466568,0.030411798579575093,2.531355433067906,2.102000000013504
312245.0867,2.1835690269774557,-3.381185734150395,0.11283142516309926,2.541794065718385,2.103000000002794
312245.0877,2.4299963374765845,-2.8481813185664113,0.05297165247459335,2.3759219732599997,2.1039999999920838
312245.0887,2.5314370377876028,-2.396102982736919,-0.14304581612802159,2.0489777287701507,2.105000000039581
312245.0897,2.500407262182947,-2.012948660845351,-0.4499353545214112,1.5958922336957928,2.106000000028871
312245.0907,2.364970425864408,-1.6731640443545777,-0.8266311372518339,1.0672346036309446,2.107000000018161
312245.0917,2.1642231643241754,-1.3421984135230196,-1.2212914306056744,0.523558094253938,2.1080000000074506
312245.0927,1.9427414414796242,-0.9819672076655649,-1.577391070766005,0.028723068415916687,2.1089999999967404
312245.0937,1.7446000389286935,-0.5566228399628487,-1.8402641087704954,-0.35712439226737114,2.110000000044238
312245.0947,1.6076153756138796,-0.038008395599098556,-1.9634171751022316,-0.5842053420711001,2.1110000000335276
312245.0957,1.5584320056240268,0.5897947894716479,-1.9139608365637186,-0.6187158819735813,2.1120000000228174
312245.0967,1.6089803565961973,1.3273188105965492,-1.6765982763855556,-0.44681743651260664,2.113000000012107
312245.0977,1.7546867581663599,2.158307533903885,-1.2557587529343102,-0.07659750522238454,2.114000000001397
312245.0987,1.9746313951459196,3.050227935628522,-0.6756526604593401,0.46220893703480065,2.1149999999906868
312245.0997,2.2336442354020414,3.9566625192640843,0.021763283768021086,1.1207237977788804,2.1160000000381842
312245.1007,2.4861240105201907,4.821355255152164,0.7807093002424856,1.8354196802617309,2.117000000027474
312245.1017,2.6811817378117238,5.583510109674041,1.5369999936345045,2.534166890115788,2.118000000016764
312245.1027,2.7685667518605745,6.1838075743839225,2.2244082428725775,3.1432400066009194,2.1190000000060536
312245.1037,2.7047444964357705,6.570524237569478,2.781329075545934,3.594591303520584,2.1199999999953434
312245.1047,2.458470710259609,6.705121677403964,3.1570630972944476,3.8326674716988016,2.121000000042841
312245.1057,2.0152490343879896,6.566716018576897,3.3170733901304468,3.8200867784046237,2.1220000000321306
312245.1067,1.3801646840597728,6.154944269415225,3.246669231310196,3.5416022177544013,2.1230000000214204
312245.1077,0.5787455193572436,5.49089797995044,2.952724818827647,3.0059418914312945,2.12400000001071
312245.1087,-0.3443018995240852,4.615983792821151,2.463236192466206,2.245324673433423,2.125
312245.1097,-1.328419244517003,3.5887755505845274,1.8247354484279252,1.3126769270662506,2.12599999998929
312245.1107,-2.302312994228239,2.480123539271991,1.097796763143328,0.27680231951045436,2.1270000000367872
312245.1117,-3.1904002678830867,1.3669632565803551,0.35106224693099713,-0.7840406343186361,2.128000000026077
312245.1127,-3.919979674131939,0.3254011322501245,-0.34563208587380373,-1.789539753137287,2.129000000015367
