TimeStamp,ECR,FCR,ECU,FCU,time_index
312273.9837,-0.24200968080408813,-10.907437871527655,-9.378850810240312,2.9777534269866073,31.0
312273.9847,-0.1355894437104271,-10.85117602274076,-10.254126444343445,2.7959761601753685,31.00099999998929
312273.9857,-0.23477928064793308,-10.719521577895375,-11.07688605507373,2.4799991052402963,31.002000000036787
312273.9867,-0.5887376050551038,-10.550238981676463,-11.845253217994372,2.018033879555922,31.003000000026077
312273.9877,-1.2268410038415958,-10.369396611620626,-12.546348675022122,1.4149902534603527,31.004000000015367
312273.9887,-2.1556859753541557,-10.188920905360696,-13.154959255945732,0.6939307496274144,31.005000000004657
312273.9897,-3.3582098241369693,-10.00599900227662,-13.633966868446535,-0.1045123258074115,31.005999999993946
312273.9907,-4.795001208178994,-9.80436837386998,-13.936567990777977,-0.9247651865463014,31.007000000041444
312273.9917,-6.4076571962257685,-9.557331354332247,-14.01011622834215,-1.7007785640813227,31.008000000030734
312273.9927,-8.123844928180374,-9.232148843123243,-13.801237212903548,-2.361926479099909,31.009000000020023
312273.9937,-9.863561722880332,-8.795319319850027,-13.261715367566135,-2.839773868251069,31.010000000009313
312273.9947,-11.545973932501528,-8.21815172847874,-12.354551502808816,-3.0750448993910875,31.010999999998603
312273.9957,-13.096163120224373,-7.482003741072563,-11.05954966333937,-3.0240854056146396,31.0120000000461
312273.9967,-14.451123181369246,-6.582584334895558,-9.377815962505814,-2.664144906954935,31.01300000003539
312273.9977,-15.564432122265128,-5.532808994928639,-7.334639695153537,-1.9969037733063486,31.01400000002468
312273.9987,-16.4091591659575,-4.3638384703210304,-4.980369848404384,-1.0498300369180258,31.01500000001397
312273.9997,-16.978747841326747,-3.1241138202424032,-2.389084706521898,0.12484688196842543,31.01600000000326
312274.0007,-17.2858206647234,-1.8764035016406484,0.3449391886799778,1.453531206722582,31.01699999999255
312274.0017,-17.359060452516065,-0.6930823523065702,3.1127401475978194,2.846780884418252,31.018000000040047
312274.0027,-17.23851635195304,0.3499527708710812,5.79775260555655,4.2064996613694445,31.019000000029337
312274.0037,-16.96984019760628,1.1801786555855265,8.283883473778495,5.434179300680177,31.020000000018626
312274.0047,-16.5980652436106,1.7355057669215368,10.463903206580936,6.439458497615291,31.021000000007916
312274.0057,-16.161584262454962,1.970822887071915,12.247426623934127,7.148221865044594,31.021999999997206
312274.0067,-15.686963138108759,1.8633794594424402,13.567781374796121,7.509492225071062,31.023000000044703
312274.0077,-15.185141627345013,1.416454529366405,14.387150515673692,7.500469985420937,31.024000000033993
312274.0087,-14.649433389607466,0.6609110442596192,14.699522008979802,7.1292354483734535,31.025000000023283
312274.0097,-14.055556555847819,-0.34557587401653045,14.531168491957613,6.434838439429995,31.026000000012573
312274.0107,-13.36372188791711,-1.5216162062043734,13.938597684604444,5.484735135419036,31.027000000001863
312274.0117,-12.522598076747139,-2.767313595192384,13.004137033735757,4.369772308854507,31.027999999991152
312274.0127,-11.474783309545057,-3.971175494851924,11.829524792787069,3.1971418018593587,31.02900000003865
312274.0137,-10.163257556292843,-5.018156680480955,10.528054286579284,2.081911993372566,31.03000000002794
312274.0147,-8.53818621784352,-5.798161252229255,9.215942436982534,1.1378710939806584,31.03100000001723
312274.0157,-6.563403007625783,-6.214283563030982,8.003656343323758,0.46847736839426424,31.03200000000652
312274.0167,-4.22192244348262,-6.190089891969841,6.987927283321634,0.15869835518773978,31.03299999999581
312274.0177,-1.5199180291009424,-5.675328036042511,6.245110739192391,0.26843627756380795,31.034000000043306
312274.0187,1.5112570614069045,-4.6495931338925205,5.826421015446239,0.8280883534220536,31.035000000032596
312274.0197,4.815247671669793,-3.1236615471760416,5.755392297861114,1.8365928355968375,31.036000000021886
312274.0207,8.313107151868012,-1.1384131494299794,6.027711522485492,3.2620831727236506,31.037000000011176
312274.0217,11.907764237508877,1.238523723712584,6.613351783700206,5.045035313117432,31.038000000000466
312274.0227,15.490174844238096,3.9180711544116003,7.460728630539941,7.103569254319959,31.038999999989755
312274.0237,18.946626679072885,6.7964447605396705,8.502424772791224,9.34037645667339,31.040000000037253
312274.0247,22.16655376348012,9.762723811026808,9.661897782243306,11.650607296803317,31.041000000026543
312274.0257,25.05016762159701,12.7065724566253,10.86051217825589,13.92997989620714,31.042000000015832
312274.0267,27.5152268967096,15.525441457684364,12.02422808093805,16.082369752011655,31.043000000005122
312274.0277,29.502346189204932,18.13064774194591,13.089333479835322,18.026208134816635,31.043999999994412
312274.0287,30.97838052710296,20.451852573493085,14.006720026780071,19.699148960758375,31.04500000004191
312274.0297,31.937601249246544,22.439625602389533,14.744361492462222,21.060645502422158,31.0460000000312
312274.0307,32.40058516932719,24.065975080812308,15.28784358321856,22.092291826466795,31.04700000002049
312274.0317,32.41095207853435,25.322925103295507,15.638994793711031,22.79600817046447,31.04800000000978
312274.0327,32.03028559349524,26.21940925656073,15.812860445504061,23.190362557760295,31.04899999999907
312274.0337,31.33173993656288,26.77690821740353,15.833427020949086,23.305501920956182,31.050000000046566
312274.0347,30.392954369128294,27.02437133091146,15.728625111003343,23.17729718253156,31.051000000035856
312274.0357,29.288956212962805,26.993018286784917,15.52520488942253,22.841375372491317,31.052000000025146
312274.0367,28.085726949750697,26.71161152811707,15.244081683768465,22.327711378424276,31.053000000014435
312274.0377,26.835034362751035,26.202723915037758,14.896690795980454,21.656382593937938,31.054000000003725
312274.0387,25.57100395328485,25.48040638389968,14.482776301712175,20.83495865737928,31.054999999993015
312274.0397,24.308727474889114,24.549499194468943,13.98987982241713,19.857818901164393,31.056000000040513
312274.0407,23.045002412099052,23.406644287825515,13.394608389091678,18.707480166130644,31.057000000029802
312274.0417,21.76108347762035,22.042864256520858,12.665564553210773,17.357798459449565,31.058000000019092
312274.0427,20.427126534337656,20.447395078482327,11.76763688740599,15.778701727985371,31.059000000008382
312274.0437,19.007836496999957,18.612313416463547,10.667193981486593,13.941938762401945,31.05999999999767
312274.0447,17.468710432646144,16.537400144690398,9.337616082302963,11.827208639041508,31.06100000004517
312274.0457,15.782207275228032,14.23464039518549,7.764547203899269,9.427978792471038,31.06200000003446
312274.0467,13.933182423792566,11.731781655036135,5.950262672523292,6.756314105105922,31.06300000002375
312274.0477,11.92299860101039,9.074453887275917,3.9166221478294223,3.84612362017021,31.06400000001304
312274.0487,9.771856774248489,6.326491739382567,1.706209321137247,0.7543779772430976,31.06500000000233
312274.0497,7.519069856984099,3.56827564644066,-0.6185658133847869,-2.4399544800025086,31.065999999991618
312274.0507,5.2212098173774395,0.8931088306569753,-2.9784250140306225,-5.63928061510706,31.067000000039116
312274.0517,2.948275249478328,-1.598148890064193,-5.28205519750778,-8.732860210401071,31.068000000028405
312274.0527,0.7782299581659016,-3.8037822855263688,-7.432438372160675,-11.603967725260146,31.069000000017695
312274.0537,-1.2095666499619457,-5.628696971558302,-9.334138962416468,-14.138137830806139,31.070000000006985
312274.0547,-2.9413967663672462,-6.9920103401773055,-10.900898982882605,-16.231770171204936,31.070999999996275
312274.0557,-4.355991296132448,-7.834058315815164,-12.062842616658232,-17.800312733788324,31.072000000043772
312274.0567,-5.410421074586363,-8.122147542839267,-12.772609988347588,-18.78526176638328,31.073000000033062
312274.0577,-6.0844665800609485,-7.854476314081329,-13.009824384264727,-19.159308527458037,31.07400000002235
312274.0587,-6.383001750070524,-7.06179848101216,-12.783440443109649,-18.92912123817203,31.07500000001164
312274.0597,-6.336116289021973,-5.806599061482394,-12.13170968822949,-18.135459881538782,31.07600000000093
312274.0607,-5.9969189697390135,-4.179770234410839,-11.119716414813787,-16.850562305695647,31.07699999999022
312274.0617,-5.437190610760937,-2.2950011985094334,-9.83466076343949,-15.172989552338775,31.07800000003772
312274.0627,-4.741267435957462,-0.28130364654719686,-8.37927534964562,-13.220352554191551,31.07900000002701
312274.0637,-3.9987124058937558,1.725733535974175,-6.863936872385734,-11.12053875253211,31.080000000016298
312274.0647,-3.2964561766797984,3.593247840402461,-5.398157709192403,-9.002196735268654,31.081000000005588
312274.0657,-2.7111479909781866,5.200198087621067,-4.082202525270565,-6.985306055946057,31.081999999994878
312274.0667,-2.3024437821370536,6.445499464264801,-2.999565357866945,-5.172651097573327,31.083000000042375
312274.0677,-2.1078748185220544,7.254531669210412,-2.2109641478224815,-3.6429327858764435,31.084000000031665
312274.0687,-2.139793037191952,7.5834984767516955,-1.750369575165072,-2.446098152837459,31.085000000020955
312274.0697,-2.384692763835697,7.421309642909073,-1.6233965584861374,-1.6012598806358322,31.086000000010245
312274.0707,-2.8049816445970266,6.788877909370476,-1.8081678172900382,-1.097335933350226,31.086999999999534
312274.0717,-3.3430382589893273,5.735953989912293,-2.2585303384154116,-0.8962864235250296,31.087999999988824
312274.0727,-3.9271729168180785,4.335839193473683,-2.9092892276625952,-0.9385852138801504,31.08900000003632
312274.0737,-4.478923144104485,2.6784984141139665,-3.6829398805742732,-1.1503603439465415,31.09000000002561
312274.0747,-4.920984495607898,0.8627285578000708,-4.497246107859882,-1.4514895601035704,31.0910000000149
312274.0757,-5.185013550468406,-1.0118930378661828,-5.272941369635668,-1.7638589386445815,31.09200000000419
312274.0767,-5.2185497179083145,-2.8525550375015154,-5.9408290950639975,-2.018990966015718,31.09299999999348
312274.0777,-4.990385125879899,-4.579595923048926,-6.4476259742315225,-2.164323161225766,31.094000000040978
312274.0787,-4.4938596183007125,-6.131196504749314,-6.760022222168536,-2.167561673104565,31.095000000030268
312274.0797,-3.747756628030686,-7.466029320467003,-6.866612259683462,-2.0187319158190635,31.096000000019558
312274.0807,-2.7947063217903003,-8.563720514038264,-6.777560439667943,-1.7297806736196044,31.097000000008848
312274.0817,-1.697242700508337,-9.423197301078229,-6.522088777960022,-1.3318283853918083,31.097999999998137
312274.0827,-0.5318880890311226,-10.059200533319789,-6.144085540017552,-0.8704026439587496,31.099000000045635
312274.0837,0.6181702408821663,-10.49741716240741,-5.696314510627547,-0.3991817333527167,31.100000000034925
312274.0847,1.6711091821915527,-10.768814764027715,-5.233837446947478,0.02707882097335514,31.101000000024214
312274.0857,2.554432304624571,-10.90382770271744,-4.80733396698102,0.3596869734349922,31.102000000013504
312274.0867,3.212097180858196,-10.927045942104662,-4.457007313596741,0.5624702372973014,31.103000000002794
312274.0877,3.610116256622807,-10.852993397742342,-4.20770101339214,0.6168673760449748,31.103999999992084
312274.0887,3.7400834043371574,-10.68345999075,-4.065726949991711,0.525115067614629,31.10500000003958
312274.0897,3.6202739814480007,-10.406682817420652,-4.017732235326262,0.3111810217567566,31.10600000002887
312274.0907,3.294195358330492,-9.998474187169458,-4.031727610707288,0.01932113662328152,31.10700000001816
312274.0917,2.8267055276202226,-9.425187540140234,-4.060184056693548,-0.28962388160042035,31.10800000000745
312274.0927,2.298046583503109,-8.648217073383979,-4.044897977961099,-0.5438507408855145,31.10899999999674
312274.0937,1.796335797217589,-7.629562683985991,-3.923148865960674,-0.6676002984904402,31.110000000044238
312274.0947,1.4092012398574012,-6.33787485035234,-3.6345438564791466,-0.5888741884165005,31.111000000033528
312274.0957,1.2153279935754269,-4.754335876793295,-3.1278735867674508,-0.2471123072981342,31.112000000022817
312274.0967,1.2766878356536757,-2.877740251764888,-2.3672998833147627,0.3999193322263857,31.113000000012107
312274.0977,1.6321597160389567,-0.7282070798585583,-1.3372582842833578,1.370709411687496,31.114000000001397
312274.0987,2.293117135638227,1.650915277624054,-0.04558096862470825,2.6565925564654895,31.114999999990687
312274.0997,3.2413746473156206,4.193220584131579,1.4754837590262184,4.220703235153379,31.116000000038184
312274.1007,4.429667048337606,6.811561119215246,3.170477424060765,5.999421155794512,31.117000000027474
312274.1017,5.784602484417349,9.402370755046068,4.964071381724083,7.9062015731645525,31.118000000016764
312274.1027,7.211806829931731,11.851661318973221,6.766245351040148,9.837459238121902,31.119000000006054
312274.1037,8.602782504089078,14.042195096451435,8.478834002303493,11.679982479230182,31.119999999995343
312274.1047,9.842858422438589,15.861219916099747,10.002842261291311,13.319212568732162,31.12100000004284
312274.1057,10.819522372034081,17.20809554158672,11.245859674631436,14.647646532499616,31.12200000003213
312274.1067,11.430410002503425,18.00114668488032,12.128899065186655,15.572616048824525,31.12300000002142
312274.1077,11.590276413302355,18.183148170642482,12.592045055100172,16.022761187840374,31.12400000001071
312274.1087,11.23639085891418,17.724974719908435,12.598417684620983,15.952648632172096,31.125
312274.1097,10.331960207844473,16.627119039472973,12.136123329879606,15.34516655114889,31.12599999998929
312274.1107,8.867385484262917,14.918980639025952,11.218062810176082,14.21154433574552,31.127000000036787
312274.1117,6.859367990469891,12.656034613881433,9.879675362403676,12.589073584626068,31.128000000026077
312274.1127,4.348085946367937,9.915184323926887,8.17489636506776,10.53682459390571,31.129000000015367
312274.1137,1.3928390835772069,6.788765486449858,6.170776605417521,8.129838770673407,31.130000000004657
312274.1147,-1.9333100022799872,3.377785789741973,3.941334707671808,5.452413688569113,31.130999999993946
312274.1157,-5.549295198398099,-0.2149575057433182,1.5612798695906935,2.591170749046616,31.132000000041444
312274.1167,-9.371594818675202,-3.891244839137272,-0.8997571182480875,-0.3714012875802094,31.133000000030734
312274.1177,-13.319010644096382,-7.562717507546791,-3.3819104292038227,-3.362300200449438,31.134000000020023
312274.1187,-17.316232755863563,-11.15463160410101,-5.838231183741682,-6.321764315275163,31.135000000009313
312274.1197,-21.295902223369758,-14.607804594059937,-8.236020527765607,-9.20510818285601,31.135999999998603
312274.1207,-25.199069233871167,-17.878669510612376,-10.556256168007302,-11.98253161623947,31.1370000000461
312274.1217,-28.974138081753942,-20.937551497247547,-12.791230395324778,-14.637013745962152,31.13800000003539
312274.1227,-32.57457190803539,-23.765467592104145,-14.940711397816926,-17.160611173945977,31.13900000002468
312274.1237,-35.95577983366743,-26.349904394842202,-17.007101767480453,-19.549653006653845,31.14000000001397
312274.1247,-39.07171109048186,-28.68013396889694,-18.990181844455122,-21.799447700379194,31.14100000000326
312274.1257,-41.87172379163534,-30.74267520582776,-20.88207898819054,-23.899174560668627,31.14199999999255
312274.1267,-44.29827506769707,-32.51749100316137,-22.66309105506182,-25.827620121750385,31.143000000040047
312274.1277,-46.2858960284456,-33.97543247249967,-24.298913937646404,-27.55033726993194,31.144000000029337
312274.1287,-47.761777494979754,-35.077307759769425,-25.739686198077667,-29.01866065740944,31.145000000018626
312274.1297,-48.64811448199237,-35.77477819636772,-26.921081720263764,-30.170819734611765,31.146000000007916
312274.1307,-48.866157115643944,-36.013085887289165,-27.767471658750257,-30.935169561152538,31.146999999997206
312274.1317,-48.34171366648708,-35.73541443866475,-28.196960422303317,-31.235331428818995,31.148000000044703
312274.1327,-47.01166869773836,-34.888498795288065,-28.127898520411925,-30.996823114671642,31.149000000033993
312274.1337,-44.83093531096578,-33.42895003732292,-27.486308098596638,-30.15458377321668,31.150000000023283
312274.1347,-41.779170787234754,-31.32966200895192,-26.21354192053809,-28.660679069405685,31.151000000012573
312274.1357,-37.86655999250689,-28.585629404400677,-24.273445504670903,-26.491420858937587,31.152000000001863
312274.1367,-33.13801484037874,-25.218535992092438,-21.658311017282006,-23.65315869012673,31.152999999991152
312274.1377,-27.675248217500197,-21.27956510712294,-18.392999523521038,-20.186096588891843,31.15400000003865
312274.1387,-21.59634787098334,-16.85003415707389,-14.536757744879882,-16.165649820106005,31.15500000002794
312274.1397,-15.052684948614596,-12.039646894795409,-10.182452997023377,-11.701068043356395,31.15600000001723
312274.1407,-8.223224021848322,-6.982373614836121,-5.453177193740792,-6.9312939454437466,31.15700000000652
312274.1417,-1.3065349138085156,-1.8301897248510741,-0.49640643668531403,-2.018277338822913,31.15799999999581
312274.1427,5.488980486583582,3.254893710114873,4.523875433654883,2.861799809817528,31.159000000043306
312274.1437,11.95596130627301,8.109907410013298,9.436493879588376,7.528734300787073,31.160000000032596
312274.1447,17.899261191563472,12.580395719735177,14.07311136645297,11.809154568110385,31.161000000021886
312274.1457,23.146577419505203,16.52951986135694,18.278166760669873,15.547151066868297,31.162000000011176
312274.1467,27.557719578455927,19.846049597932094,21.91793061539608,18.613826903211304,31.163000000000466
312274.1477,31.03180290963111,22.450588343406913,24.887955760624997,20.91499595637463,31.163999999989755
312274.1487,33.51181638425066,24.299525048864936,27.11834299590269,22.396410165377883,31.165000000037253
312274.1497,34.986229929560764,25.38640121596973,28.576434124852995,23.04610788450097,31.166000000026543
312274.1507,35.48754974206717,25.740605124557465,29.266771048287712,22.89372188955329,31.167000000015832
312274.1517,35.08798326742816,25.42353703494692,29.228398916697703,22.0068459476196,31.168000000005122
312274.1527,33.892613273569324,24.522607170324964,28.529821032073194,20.484808795914486,31.168999999994412
312274.1537,32.03068190268689,23.143612408616065,27.26211186434546,18.45042090212482,31.17000000004191
312274.1547,29.64573242458954,21.402170744710016,25.53084383390635,16.04042272979173,31.1710000000312
312274.1557,26.885435486495666,19.414962509143155,23.44756984297893,13.395458757991138,31.17200000002049
312274.1567,23.891931165378,17.29152786279922,21.12161945559423,10.650421054245538,31.17300000000978
312274.1577,20.79344827141826,15.127301658657558,18.652911473881545,7.925948867646923,31.17399999999907
312274.1587,17.697825285488772,12.998436362959454,16.126365619546032,5.3217428761789565,31.175000000046566
312274.1597,14.68836647458572,10.958784225754181,13.608323486620263,2.9121673912694472,31.176000000035856
312274.1607,11.822240530333087,9.03919877087708,11.145181227971497,0.7443893193935678,31.177000000025146
312274.1617,9.131389136365174,7.249093345347558,8.764214157200707,-1.1609391521566084,31.178000000014435
312274.1627,6.625681937199417,5.579982278895366,6.476358385411214,-2.8066831132135106,31.179000000003725
312274.1637,4.297854145599286,4.010548386187262,4.280527641742459,-4.2143493763639075,31.179999999993015
312274.1647,2.1296120485757726,2.5126462561953913,2.1689024649511817,-5.417929525656012,31.181000000040513
312274.1657,0.09820361773696132,1.0575764533861716,0.13254723174353822,-6.457156260793891,31.182000000029802
312274.1667,-1.8172662251036344,-0.3780420659177742,-1.8333047107854015,-7.370895334155143,31.183000000019092
312274.1677,-3.630442787248408,-1.8074153316128418,-3.724905552720715,-8.191351288092187,31.184000000008382
312274.1687,-5.343800265262538,-3.2302288334637117,-5.527081713198056,-8.93965510958269,31.18499999999767
312274.1697,-6.946570673675625,-4.631141989029931,-7.212088833915395,-9.62323791855633,31.18600000004517
312274.1707,-8.414696918874615,-5.980254350235651,-8.740370314252942,-10.23519414077155,31.18700000003446
312274.1717,-9.712765094938986,-7.235467266498048,-10.06314918934035,-10.755620950412496,31.18800000002375
312274.1727,-10.797660367069945,-8.346466676679011,-11.126584175862272,-11.154710122871807,31.18900000001304
312274.1737,-11.623509203470256,-9.25988440294365,-11.877050271152422,-11.397185007035535,31.19000000000233
312274.1747,-12.147336209577476,-9.92507349171006,-12.266979533859704,-11.447537377764913,31.190999999991618
312274.1757,-12.33478960917985,-10.299869820509167,-12.260631124390818,-11.275440009670794,31.192000000039116
312274.1767,-12.165282621185616,-10.355713511235583,-11.839158015801162,-10.860698420649062,31.193000000028405
312274.1777,-11.635958940850202,-10.081569317282598,-11.004401174581076,-10.197160095001001,31.194000000017695
312274.1787,-10.764012798991404,-9.48620829256695,-9.780964118669893,-9.29511552038476,31.195000000006985
312274.1797,-9.587065052033038,-8.598581146270947,-8.216289372913513,-8.181890285018536,31.195999999996275
312274.1807,-8.161498984701257,-7.466209672545562,-6.378656584543961,-6.9005240733173405,31.197000000043772
312274.1817,-6.558872395738592,-6.151726656328363,-4.353230074021935,-5.506640273587434,31.198000000033062
312274.1827,-4.860724431476307,-4.727886025579733,-2.2364805123114597,-4.063807551177752,31.19900000002235
312274.1837,-3.152265984108615,-3.271524344576107,-0.12947143618788792,-2.637861678219346,31.20000000001164
312274.1847,-1.5155638970658636,-1.85706583516528,1.8693803162533074,-1.290774802941996,31.20100000000093
312274.1857,-0.02288924287135721,-0.5502146265795201,3.6714024844775404,-0.07471772040138946,31.20199999999022
312274.1867,1.2691077563982245,0.5975354958573247,5.20396293098713,0.9730477562951574,31.20300000003772
312274.1877,2.323808528850271,1.5530207914353062,6.415374696247162,1.8338840767632825,31.20400000002701
312274.1887,3.1271699736270224,2.3037371078373114,7.27795333415445,2.5096726851134323,31.205000000016298
312274.1897,3.6881302820760826,2.8581361229406794,7.7889459036902,3.0226400253774774,31.206000000005588
312274.1907,4.03681618003722,3.243847078483756,7.969255947481384,3.4130747229380116,31.206999999994878
312274.1917,4.220709316531777,3.503990101808152,7.8601019176228615,3.73511114461726,31.208000000042375
312274.1927,4.299133943893811,3.6919391928664966,7.51794678280882,4.050955388818688,31.209000000031665
312274.1937,4.336598131724914,3.8650504150256437,7.008204162284972,4.4240958038045655,31.210000000020955
312274.1947,4.395639429008133,4.077977963221099,6.3983446552401135,4.912154374053319,31.211000000010245
312274.1957,4.529881060582499,4.37624674130859,5.751083264314664,5.56008579136282,31.211999999999534
312274.1967,4.777990567186496,4.790730039575504,5.118319132117764,6.394412019930781,31.212999999988824
312274.1977,5.159150235877801,5.333596544792264,4.536422970087421,7.419092782588325,31.21400000003632
312274.1987,5.670505414998772,5.996150260810746,4.023332813134436,8.613484496522116,31.21500000002561
312274.1997,6.2868665537985144,6.748803546060705,3.5777381395144467,9.93264563787644,31.2160000000149
312274.2007,6.962721910647061,7.543215195181073,3.1804235512977685,11.310023863848802,31.21700000000419
312274.2017,7.636391585488591,8.316412610278752,2.7976265458211245,12.662330910548686,31.21799999999348
312274.2027,8.235941928043946,8.99652044433996,2.3860606957375152,13.896197574914305,31.219000000040978
312274.2037,8.686303205918675,9.509556963849564,1.899085837825692,14.916023891607264,31.220000000030268
312274.2047,8.916910087461606,9.786649681268614,1.293387501099595,15.632316450304737,31.221000000019558
312274.2057,8.869126343753106,9.77097450719727,0.5354707878031815,15.969748065232409,31.222000000008848
312274.2067,8.502728259094145,9.423742687845653,-0.3927147782962172,15.874190750157586,31.222999999998137
312274.2077,7.800804714706944,8.728645514074032,-1.4896239870850965,15.318060228538382,31.224000000045635
312274.2087,6.77257808086907,7.6943102049490815,-2.7319035396345717,14.303461148343011,31.225000000034925
312274.2097,5.453845092439396,6.354507833703304,-4.074397407367144,12.862822697648147,31.226000000024214
312274.2107,3.9049621552933393,4.766067699367781,-5.452433263883601,11.056945485328148,31.227000000013504
312274.2117,2.20653338517939,3.004671580006286,-6.786229347724165,8.970620365122752,31.228000000002794
312274.2127,0.45317954696223967,1.1589046578666127,-7.987050566041981,6.706205418670038,31.228999999992084
312274.2137,-1.254049350035421,-0.6768921370976977,-8.964566079129092,4.375736948046792,31.23000000003958
312274.2147,-2.8159236704533517,-2.4103074030654468,-9.634735380232392,2.0922858372266706,31.23100000002887
312274.2157,-4.143186514138442,-3.9583680893840767,-9.927488455935833,-0.038661017223283384,31.23200000001816
312274.2167,-5.16385648513937,-5.2541730624149805,-9.793474284533506,-1.9270199139509374,31.23300000000745
312274.2177,-5.8290075694070005,-6.252034907773351,-9.209230226996391,-3.5044345271159294,31.23399999999674
312274.2187,-6.1164962060544985,-6.930654943984897,-8.180265558222187,-4.728553637578285,31.235000000044238
312274.2197,-6.032299568138565,-7.294043496474537,-6.741742183807507,-5.584906920212133,31.236000000033528
312274.2207,-5.60935483933545,-7.370112129075914,-4.95665642175833,-6.086251983512077,31.237000000022817
312274.2217,-4.904025091072823,-7.207086058495614,-2.9116565102034837,-6.269505252487136,31.238000000012107
312274.2227,-3.990540482191804,-6.8680920272148995,-0.7108491718241358,-6.190596329793168,31.239000000001397
312274.2237,-2.953952434660616,-6.424449537020804,1.5318657621651925,-5.917778356883984,31.239999999990687
312274.2247,-1.882275055994008,-5.948314953758232,3.701258676675965,-5.524067187399234,31.241000000038184
312274.2257,-0.8585593725089395,-5.505386947027817,5.689285925618267,-5.079556593042427,31.242000000027474
312274.2267,0.04635472649684434,-5.148372469347458,7.402911068610983,-4.644358394770011,31.243000000016764
312274.2277,0.7797361840983498,-4.9118360582718985,8.770553216463473,-4.262845578339521,31.244000000006054
312274.2287,1.310973979137422,-4.808919204437482,9.746615841828026,-3.9597403818395,31.244999999995343
312274.2297,1.6333529591804818,-4.830234157014406,10.313731441261842,-3.7384016140759386,31.24600000004284
312274.2307,1.7634650032462136,-4.94502556989852,10.482572133525759,-3.5814446287188826,31.24700000003213
312274.2317,1.7383566391275183,-5.1044742797095575,10.289302971148528,-3.4535951443055115,31.24800000002142
312274.2327,1.6107330590291862,-5.246811434857869,9.790971712823477,-3.3064572002178365,31.24900000001071
312274.2337,1.442724453319275,-5.303738027567195,9.059315393965546,-3.08468752449484,31.25
312274.2347,1.2988557555443891,-5.207521240350034,8.173602624653359,-2.732931730862281,31.25099999998929
312274.2357,1.238932319243511,-4.898076682545171,7.213208248695946,-2.2028052759152192,31.252000000036787
312274.2367,1.3115550502254771,-4.329350362112556,6.250626877222482,-1.459200877122819,31.253000000026077
312274.2377,1.548909320114234,-3.474385387375868,5.34557352636113,-0.48527401040543044,31.254000000015367
312274.2387,1.963339676475452,-2.328588755439588,4.540699409160762,0.7144079052120454,31.255000000004657
312274.2397,2.546040189674576,-0.910890260301019,3.8592810997267435,2.1128823148095743,31.255999999993946
312274.2407,3.267976338848765,0.7373088175320094,3.3050388104584627,3.6620868688014983,31.257000000041444
312274.2417,4.082929817243894,2.5552851220070827,2.8640245032270344,5.29631774232193,31.258000000030734
312274.2427,4.932344708231882,4.467926253797602,2.508314218127824,6.937518836930256,31.259000000020023
312274.2437,5.751473151317098,6.39196235565222,2.2010616208495355,8.50188615752084,31.260000000009313
312274.2447,6.476188654781361,8.242888882469032,1.9023386763021728,9.907139102908356,31.260999999998603
312274.2457,7.049768418228849,9.941910925374728,1.575117254846189,11.079742019222396,31.2620000000461
312274.2467,7.428948976684155,11.422243076775413,1.1907391998330425,11.961361941639355,31.26300000003539
312274.2477,7.58863186729387,12.634167695208589,0.7332822287089341,12.513921813771212,31.26400000002468
312274.2487,7.524750702948519,13.548381531735087,0.20234874812415557,12.722745479119496,31.26500000001397
312274.2497,7.254994718882502,14.157333289854472,-0.3860279486330616,12.597477965621128,31.26600000000326
312274.2507,6.817298397078347,14.474455639102237,-1.000467469067443,12.170683649519003,31.26699999999255
312274.2517,6.266230961526602,14.531404564415826,-1.5972144647148607,11.49425424228111,31.268000000040047
312274.2527,5.667631185298449,14.373615991853184,-2.124698682669263,10.633975597893263,31.269000000029337
312274.2537,5.092011069650055,14.054654916436906,-2.5292138288578414,9.662785661507215,31.270000000018626
312274.2547,4.607378827809425,13.629949465587433,-2.7611246587024447,8.653387326386625,31.271000000007916
312274.2557,4.272194533514295,13.150559930788043,-2.780949690706604,7.670946453573022,31.271999999997206
312274.2567,4.129164356877065,12.657625170924067,-2.564670785373728,6.766600116584036,31.273000000044703
312274.2577,4.200502008263871,12.17805678014454,-2.1076903996616188,5.972423569430906,31.274000000033993
312274.2587,4.4851462273409615,11.721922252727403,-1.4269859336880033,5.2983638159503625,31.275000000023283
312274.2597,4.958234438505954,11.2817849703697,-0.5611856685251999,4.731456596307584,31.276000000012573
312274.2607,5.572913437542049,10.834068483229155,0.4315048554006056,4.237420687370889,31.277000000001863
312274.2617,6.264339610178525,10.342305239638725,1.4773837052591525,3.764490375461723,31.277999999991152
312274.2627,6.955506081873703,9.761936331241413,2.4929968899506814,3.249126566243666,31.27900000003865
312274.2637,7.564353471781946,9.046168305703748,3.392032910031474,2.6230608074306097,31.28000000002794
312274.2647,8.011492353310741,8.15228173908692,4.092733683371575,1.8209927614614665,31.28100000001723
312274.2657,8.227801812261413,7.047735273892283,4.5251284309020505,0.7881935227942037,31.28200000000652
312274.2667,8.16117601940896,5.715423458516988,4.63740470777104,-0.5127286133690987,31.28299999999581
312274.2677,7.781768922552244,4.157525708279939,4.400805127178121,-2.0965670470135174,31.284000000043306
312274.2687,7.085228538178352,2.3975194014571697,3.8125724843747086,-3.952286518407485,31.285000000032596
312274.2697,6.093603236553984,0.48010924484050843,2.8966471113819363,-6.042157418717084,31.286000000021886
312274.2707,4.853824375613553,-1.5309700169623783,1.7020309218649456,-8.30336397410769,31.287000000011176
312274.2717,3.4339011195108022,-3.5571099175250347,0.29895236708998774,-10.651960022774983,31.288000000000466
312274.2727,1.917181811173614,-5.510580606131257,-1.2268258787397441,-12.988822636306512,31.288999999989755
312274.2737,0.3952206450739601,-7.301355360888901,-2.7810393878666697,-15.207064006097422,31.290000000037253
312274.2747,-1.040079275331006,-8.84437310076814,-4.268651492324391,-17.20022414737128,31.291000000026543
312274.2757,-2.3043079197774823,-10.066555935194092,-5.601572244200252,-18.870494315743155,31.292000000015832
312274.2767,-3.327640617999475,-10.912916546215497,-6.705662463195478,-20.136220467467535,31.293000000005122
312274.2777,-4.060520620035867,-11.351172953802969,-7.526389092688903,-20.93800747939462,31.293999999994412
312274.2787,-4.477410094374174,-11.374428037501072,-8.032629077092162,-21.242881030377678,31.29500000004191
312274.2797,-4.578275868379795,-11.001654532261647,-8.218297576833793,-21.046151594212205,31.2960000000312
312274.2807,-4.387695909634721,-10.275935253696913,-8.101685148346169,-20.37084550477861,31.29700000002049
312274.2817,-3.9517023648468315,-9.260622674843466,-7.722607233916655,-19.2647999767696,31.29800000000978
312274.2827,-3.3326945430173778,-8.033780771932577,-7.137676720788365,-17.795739717135795,31.29899999999907
312274.2837,-2.602939422860299,-6.681435888929417,-6.4141863934604,-16.04484093898943,31.300000000046566
312274.2847,-1.8373102527858638,-5.290276253055993,-5.623215883228738,-14.099426054697801,31.301000000035856
312274.2857,-1.1059827963879236,-3.94049068444471,-4.832645031846788,-12.04550597067757,31.302000000025146
312274.2867,-0.46780722193900964,-2.6994209988108206,-4.100756170857539,-9.96088991654913,31.303000000014435
312274.2877,0.03499811056509332,-1.6166211402053183,-3.4710419251469484,-7.909515232986981,31.304000000003725
312274.2887,0.3803194645960009,-0.7207771085973822,-2.9687094950495023,-5.937518529445276,31.304999999993015
312274.2897,0.5674601036972069,-0.018758770104951198,-2.599199465415429,-4.0713883055750495,31.306000000040513
312274.2907,0.6161812367776073,0.5031345527824941,-2.3488341026820945,-2.318325586786922,31.307000000029802
312274.2917,0.5635870120052812,0.8758878697344576,-2.187496793100723,-0.6687145316084934,31.308000000019092
312274.2927,0.4591837845544061,1.1427968407648343,-2.073041653632968,0.8996084733040302,31.309000000008382
312274.2937,0.35862591247123754,1.3533252227487398,-1.9569602332677825,2.4157799489376863,31.30999999999767
312274.2947,0.31679185575489976,1.556426804774136,-1.7907074316355927,3.909652575020666,31.31100000004517
312274.2957,0.3809024944966721,1.794018032343784,-1.5320234747897132,5.405548612424324,31.31200000003446
312274.2967,0.584391636740059,2.095273198289896,-1.1505893739899857,6.916713995851258,31.31300000002375
312274.2977,0.9421667660682976,2.472333864342387,-0.6324196935869878,8.441092427303461,31.31400000001304
312274.2987,1.4477631017401538,2.917885734271146,0.01747781311237423,9.958904982484388,31.31500000000233
312274.2997,2.0727090724331103,3.4048728490089686,0.7744733556977484,11.4323374098918,31.315999999991618
312274.3007,2.7682042831229325,3.888408415997711,1.5958117556297877,12.80742249345939,31.317000000039116
312274.3017,3.468983076077953,4.309724192493153,2.4241160633909478,14.017979749917673,31.318000000028405
312274.3027,4.099020048402194,4.601797197078137,3.1925770029859826,14.991261608591406,31.319000000017695
312274.3037,4.578549535726673,4.696123377300722,3.831335050942265,15.654775242232821,31.320000000006985
312274.3047,4.831737140390345,4.529989224180467,4.274437467644412,15.94362037105248,31.320999999996275
312274.3057,4.794271038387937,4.053535860777028,4.466688078151032,15.807618680313311,31.322000000043772
312274.3067,4.420141048569276,3.2359215230058314,4.369709632906139,15.21751675407827,31.323000000033062
312274.3077,3.6869444459708567,2.0699667325835254,3.9666072710247375,14.16962147457512,31.32400000002235
312274.3087,2.5991925315257443,0.5748044972033652,3.264750555729901,12.688367563464361,31.32500000001164
312274.3097,1.1892780903320197,-1.2037575502949227,2.2963684455391538,10.826507973425919,31.32600000000093
312274.3107,-0.4840168313274015,-3.195242671675165,1.1168593796861193,8.662840823566654,31.32699999999022
312274.3117,-2.339362062862333,-5.308735840466427,-0.19906270450902583,6.297619963275288,31.32800000003772
312274.3127,-4.278737525828773,-7.438988352903314,-1.5630573549313034,3.84601740466806,31.32900000002701
312274.3137,-6.194787207139432,-9.473868472558166,-2.8801749248472928,1.4301932585916235,31.330000000016298
312274.3147,-7.979007889723084,-11.302503883189711,-4.056565956195472,-0.8293358587824374,31.331000000005588
312274.3157,-9.530035162316425,-12.823397151799044,-5.007177431597081,-2.8222689960831286,31.331999999994878
312274.3167,-10.761283186354165,-13.951798846593059,-5.662729290926892,-4.4562749788169675,31.333000000042375
312274.3177,-11.607259480762455,-14.625693960274827,-5.975330970129235,-5.663244388900984,31.334000000031665
312274.3187,-12.028005109693149,-14.809888875747108,-5.922225514708537,-6.403495053503796,31.335000000020955
312274.3197,-12.011291404189809,-14.49786544881068,-5.507325717381167,-6.667578126789237,31.336000000010245
312274.3207,-11.572419013112201,-13.711278445837566,-4.760415602727061,-6.47555654307918,31.336999999999534
312274.3217,-10.751692711591254,-12.497192246800797,-3.7341111795343287,-5.873863853027205,31.337999999988824
312274.3227,-9.609863853945853,-10.923361182423234,-2.498885306475055,-4.930076386889168,31.33900000003632
312274.3237,-8.222020474219994,-9.072035063257012,-1.136642322137928,-3.726123590284817,31.34000000002561
312274.3247,-6.6705446873225105,-7.032900448207187,0.26653871375830185,-2.350601750594119,31.3410000000149
312274.3257,-5.037834914935617,-4.895836833883173,1.6278005517613092,-0.890931721089025,31.34200000000419
312274.3267,-3.399499344491464,-2.7441690176109788,2.8743469844067278,0.5738954438111203,31.34299999999348
312274.3277,-1.8186665121855483,-0.6490327282329751,3.9490898483863317,1.9793098576551515,31.344000000040978
312274.3287,-0.3419353833409938,1.334652954290892,4.8145922714170215,3.2793500628344634,31.345000000030268
312274.3297,1.002686645395145,3.170283250158377,5.454968978095692,4.448690841064676,31.346000000019558
312274.3307,2.2057162915550172,4.839612310918622,5.875608652248688,5.4823754174088934,31.347000000008848
312274.3317,3.2740751161883246,6.340831486222943,6.10079920947034,6.393346887126184,31.347999999998137
312274.3327,4.2272056917750795,7.684966493144544,6.169543103490694,7.208093748190572,31.349000000045635
312274.3337,5.091889712358263,8.89104658716345,6.130026216635623,7.960911923291495,31.350000000034925
312274.3347,5.896365651450507,9.980619357842757,6.033333200858217,8.687422207077827,31.351000000024214
312274.3357,6.664413540070039,10.972246190912495,5.927071754523352,9.418054302985912,31.352000000013504
312274.3367,7.4100763442312205,11.876609836048159,5.849571561536932,10.172209473301477,31.353000000002794
312274.3377,8.133621086404245,12.692797432354212,5.8252603568349794,10.953743286672783,31.353999999992084
312274.3387,8.819214857815194,13.406196697315513,5.861696244459877,11.748274998363108,31.35500000003958
312274.3397,9.434613902595016,13.98827240587956,5.94856432573919,12.522644064097005,31.35600000002887
312274.3407,9.932955585027253,14.398291852356577,6.058743936431893,13.226615523216251,31.35700000001816
312274.3417,10.256523986260033,14.586861543812399,6.151340402625447,13.79670607962422,31.35800000000745
312274.3427,10.342151933994824,14.50094357483562,6.176373310113157,14.16178436731917,31.35899999999674
312274.3437,10.127746225852775,14.089858409642156,6.080641914148028,14.24991371209637,31.360000000044238
312274.3447,9.559296354999578,13.311667436837524,5.8141645620622535,13.995772067478926,31.361000000033528
312274.3457,8.597663041176052,12.1392752049799,5.336525238118572,13.347915056605315,31.362000000022817
312274.3467,7.224448058935683,10.56560334526834,4.6224630362039045,12.275151196396475,31.363000000012107
312274.3477,5.446321201863276,8.607265043816177,3.666109439097259,10.771373387059322,31.364000000001397
312274.3487,3.2973168995404,6.306303366478928,2.4834071034109386,8.858330556010403,31.364999999990687
312274.3497,0.8387990530048511,3.72973591389604,1.1124198877636007,6.586014541549029,31.366000000038184
312274.3507,-1.842989757374195,0.9668549228969399,-0.3885500823029725,4.030561442176393,31.367000000027474
312274.3517,-4.64165037512809,-1.8755539689765701,-1.944906630268615,1.2898020616967891,31.368000000016764
312274.3527,-7.437259481105604,-4.67971029471413,-3.4714288091383394,-1.5231800496801873,31.369000000006054
312274.3537,-10.104367099083431,-7.324522722380041,-4.879155963680571,-4.28793381187602,31.369999999995343
312274.3547,-12.52068010637496,-9.693807744236874,-6.082854756671521,-6.885280987460296,31.37100000004284
312274.3557,-14.575682172529568,-11.68433453551629,-7.008370681282581,-9.205949790444448,31.37200000003213
312274.3567,-16.17844035675865,-13.212996132255627,-7.599170209231439,-11.15843825175424,31.37300000002142
312274.3577,-17.263918836066917,-14.222481695011362,-7.8214504943869025,-12.67541466981607,31.37400000001071
312274.3587,-17.79725426033103,-14.68495812220606,-7.667324775815025,-13.718098748917976,31.375
312274.3597,-17.77563225293541,-14.60344895266357,-7.155770724958182,-14.278255538598092,31.37599999998929
312274.3607,-17.227622924475437,-14.01080722004029,-6.331238719045939,-14.37765677523748,31.377000000036787
312274.3617,-16.210064101589307,-12.966396792354848,-5.260037175228836,-14.065099190170882,31.378000000026077
312274.3627,-14.802802302364098,-11.550803004919167,-4.024821410786985,-13.411294139876228,31.379000000015367
312274.3637,-13.101792298084284,-9.859068491632241,-2.717690815380685,-12.502135946234516,31.380000000004657
312274.3647,-11.211198372304835,-7.9930775001765975,-1.4325292485296246,-11.430999179309119,31.380999999993946
312274.3657,-9.235220836368104,-6.053779736742048,-0.25729299545034384,-10.29079428663603,31.382000000041444
312274.3667,-7.2703826994351965,-4.13394679214784,0.7330473081404137,-9.166519233117256,31.383000000030734
312274.3677,-5.398953022688768,-2.3120906706212745,1.4822697541047547,-8.1289818640262,31.384000000020023
312274.3687,-3.6840615422278833,-0.6480514079002309,1.9568546492472785,-7.230240192930148,31.385000000009313
312274.3697,-2.1668858729843157,0.819408568926812,2.1477889959855903,-6.501128687583225,31.385999999998603
312274.3707,-0.8660851737656763,2.0728651381096914,2.070089456080571,-5.951025830860198,31.3870000000461
312274.3717,0.22056703218533405,3.1144200655921175,1.7601298511132322,-5.569792962038917,31.38800000003539
312274.3727,1.1126114721521883,3.9620874268312383,1.2710682980818908,-5.331599000910389,31.38900000002468
312274.3737,1.8418383637811613,4.644821599836285,0.6668483749927858,-5.200161419198358,31.39000000001397
312274.3747,2.4463124915584276,5.1967544937369645,0.015380945430831273,-5.134798896415636,31.39100000000326
312274.3757,2.96414953714611,5.651276818270596,-0.6184142706443785,-5.096618682540576,31.39199999999255
312274.3767,3.427716172262851,6.03560132312601,-1.1790224816143413,-5.054158737440357,31.393000000040047
312274.3777,3.858869760955347,6.366385143762128,-1.625579257466206,-4.98787123225675,31.394000000029337
312274.3787,4.265735179656374,6.646870097306639,-1.9354458982245566,-4.892963037996451,31.395000000018626
312274.3797,4.641348435506735,6.865836069885704,-2.1057836681151842,-4.78028718656711,31.396000000007916
312274.3807,4.964296531697259,6.998470093424385,-2.152998205253378,-4.675188814968694,31.396999999997206
312274.3817,5.201270677331274,7.009051725889087,-2.1101395122695097,-4.6144284987689534,31.398000000044703
312274.3827,5.311246931298153,6.8551642291491985,-2.0225475904933514,-4.641512836259879,31.399000000033993
312274.3837,5.25083520646602,6.492979974022839,-1.9422087913508823,-4.800935567693596,31.400000000023283
312274.3847,4.980211736426655,5.883053660148179,-1.9214160551756772,-5.131954646376646,31.401000000012573
312274.3857,4.468984360964688,4.995999854023055,-2.006394765488339,-5.662588882685856,31.402000000001863
312274.3867,3.7013410268947378,3.817437775938174,-2.2315582335123105,-6.404505820666774,31.402999999991152
312274.3877,2.6798997320429314,2.351655606075207,-2.6149926691615737,-7.349391184028381,31.40400000003865
312274.3887,1.427806056656378,0.6235719387887029,-3.155647293922278,-8.46724732960867,31.40500000002794
312274.3897,-0.011200321264334265,-1.3212591074204534,-3.832533356473651,-9.706877680399009,31.40600000001723
312274.3907,-1.5748236672060352,-3.4186570792275446,-4.606033297836754,-10.998594927323753,31.40700000000652
312274.3917,-3.186214007910797,-5.589693978132184,-5.421208291671758,-12.258964713532162,31.40799999999581
312274.3927,-4.75958989872439,-7.746108459062201,-6.212790018711569,-13.397186176985418,31.409000000043306
312274.3937,-6.206969899985517,-9.79676390954848,-6.911370939882819,-14.322537309119868,31.410000000032596
312274.3947,-7.4453808958926935,-11.65454951720097,-7.450183593556134,-14.952194210970553,31.411000000021886
312274.3957,-8.40385378441256,-13.243073108248446,-7.771795916573531,-15.218681291384902,31.412000000011176
312274.3967,-9.029527570512917,-14.502508464653577,-7.834052686049584,-15.076229993152516,31.413000000000466
312274.3977,-9.292260835177066,-15.394036837038838,-7.614662727036321,-14.505415344270947,31.413999999989755
312274.3987,-9.187287556884803,-15.902455038365364,-7.113960792940055,-13.515594080873482,31.415000000037253
312274.3997,-8.735638983138081,-16.03669787479045,-6.355549366241253,-12.144870635160757,31.416000000026543
312274.4007,-7.982266682394136,-15.828223546507093,-5.384731762777046,-10.457548506358052,31.417000000015832
312274.4017,-6.992023166653974,-15.327417290436541,-4.264863626433257,-8.53926213460178,31.418000000005122
312274.4027,-5.843863856525106,-14.598360603227556,-3.071953994431697,-6.490205373879804,31.418999999994412
312274.4037,-4.623807274768884,-13.712471954675909,-1.8880195490767648,-4.4170555501007085,31.42000000004191
312274.4047,-3.4173121324327296,-12.741634331799277,-0.7938194991478357,-2.4243190662046974,31.4210000000312
312274.4057,-2.301788340368607,-11.751474409325455,0.13833844281305438,-0.6058831167039156,31.42200000002049
312274.4067,-1.3399480441193325,-10.795442666412105,0.851034554188286,0.9624575850541381,31.42300000000978
312274.4077,-0.5746234054814717,-9.910264766477814,1.3068004250977396,2.2288188174638384,31.42399999999907
312274.4087,-0.02553758015167369,-9.113199614955036,1.4913242042153123,3.1688627040113126,31.425000000046566
312274.4097,0.3116723453477742,-8.401361814228164,1.4144908812086843,3.7869280430436674,31.426000000035856
312274.4107,0.46409866767147384,-7.753163050448986,1.1091587527999613,4.1145660896634695,31.427000000025146
312274.4117,0.47801609687896945,-7.131718089985868,0.6277910691307548,4.206635586182311,31.428000000014435
312274.4127,0.41349965604214983,-6.489866933285459,0.03726836401198492,4.135338974521955,31.429000000003725
312274.4137,0.3377401508964449,-5.776304267907399,-0.5876179274656684,3.982773411490338,31.429999999993015
312274.4147,0.31771601710496505,-4.942196426818415,-1.1713632877839528,3.8327071671298683,31.431000000040513
312274.4157,0.41294267397604817,-3.947615555191149,-1.6449461734824096,3.7623611805623973,31.432000000029802
312274.4167,0.6690128648239453,-2.7671357267621586,-1.9523303654304411,3.834970434798391,31.433000000019092
312274.4177,1.1125644341534693,-1.3940150768820216,-2.05565000709159,4.093820974151412,31.434000000008382
312274.4187,1.7481729008779363,0.15747587066786733,-1.9385825341808283,4.558313478436607,31.43499999999767
312274.4197,2.557478395641815,1.851839656926502,-1.6075914865245773,5.222407318783323,31.43600000004517
312274.4207,3.5006381633387624,3.634304843986909,-1.090928791652782,6.055568938872576,31.43700000003446
312274.4217,4.51996803576085,5.434787509102977,-0.43550434064736687,7.006107393214762,31.43800000002375
312274.4227,5.5454211834741365,7.173503854250236,0.29806169433702867,8.006551131106498,31.43900000001304
312274.4237,6.501371030210597,8.767711653260053,1.0417115513511084,8.980525644991436,31.44000000000233
312274.4247,7.3140352278708525,10.138943196207965,1.7269266070781755,9.850450086987884,31.440999999991618
312274.4257,7.918811878612575,11.22003854799824,2.2917191132125527,10.545295948574847,31.442000000039116
312274.4267,8.266804380408674,11.96130084651698,2.686949206554829,11.007649500757907,31.443000000028405
312274.4277,8.329887116343942,12.335174097325929,2.881344230356778,11.199391870963883,31.444000000017695
312274.4287,8.103803578023129,12.338981150033606,2.8647251866820076,11.105449213748022,31.445000000006985
312274.4297,7.6089780674945375,11.995442225245098,2.6491214916805927,10.735256794281145,31.445999999996275
312274.4307,6.888943578342364,11.350904989909495,2.267662915337402,10.121806202768541,31.447000000043772
312274.4317,6.006520357409922,10.471435460214494,1.7713563436830064,9.318382312786625,31.448000000033062
312274.4327,5.038099442190527,9.43712383658699,1.2240633778611918,8.393322796825103,31.44900000002235
312274.4337,4.066571706939603,8.33513087555396,0.6961723358200047,7.42332594331196,31.45000000001164
312274.4347,3.173577386280546,7.25212188900325,0.2575874927390796,6.485973378475209,31.45100000000093
312274.4357,2.4318204252721256,6.266795059716838,-0.02927336282140008,5.652209390998544,31.45199999999022
312274.4367,1.89818937820152,5.44320258502906,-0.11578155002653141,4.9795206431618935,31.45300000003772
312274.4377,1.6083519897357768,4.825487890910193,0.027923693047926704,4.506489039288913,31.45400000002701
312274.4387,1.5733510936268986,4.434526993647603,0.40977525211836646,4.249253480894835,31.455000000016298
312274.4397,1.7785384399826698,4.266780042733325,1.0147542709836392,4.2002267008935155,31.456000000005588
312274.4407,2.18495893247374,4.29544773041923,1.8061103146575164,4.329190002250897,31.456999999994878
312274.4417,2.7330621888203623,4.473807022222628,2.7287131832102998,4.586653495448587,31.458000000042375
312274.4427,3.348394137523284,4.740392830797296,3.7142142530315194,4.90914544563865,31.459000000031665
312274.4437,3.9487302563071123,5.025516895885994,4.6875166246834565,5.22590359684146,31.460000000020955
312274.4447,4.451972573021878,5.2584891575588415,5.573923460421013,5.466302556966475,31.461000000010245
312274.4457,4.784058219551332,5.374842427566945,6.306265509766938,5.567278120503665,31.461999999999534
312274.4467,4.8861253719201665,5.322864306884276,6.8313087576739955,5.4800089589137855,31.462999999988824
312274.4477,4.720253030217251,5.068810631588795,7.114811525356835,5.1751884728490705,31.46400000003632
312274.4487,4.273227464720773,4.6003053007993335,7.144730657884648,4.646357692105162,31.46500000002561
312274.4497,3.5579770906574586,3.927609360344056,6.93225603909215,3.9109604073155295,31.4660000000149
312274.4507,2.6125407652867496,3.0826503092190394,6.510564147725607,3.0090055871669956,31.46700000000419
312274.4517,1.4966704569964457,2.1159204966538243,5.931404140607026,1.9994576517915308,31.46799999999348
312274.4527,0.2863951389819062,1.0915600030700081,5.2598423202472615,0.9546992664756571,31.469000000040978
312274.4537,-0.9329331658991811,0.08111451092913584,4.567672099779583,-0.04639797157831741,31.470000000030268
312274.4547,-2.0744466817677982,-0.8434145723813585,3.926129002015679,-0.9261209635057833,31.471000000019558
312274.4557,-3.0576786715829067,-1.6165442824492215,3.398620833719444,-1.615533763940681,31.472000000008848
312274.4567,-3.8158382880386346,-2.1856257482453403,3.0341849670454857,-2.061320590970601,31.472999999998137
312274.4577,-4.301756754310476,-2.515885766104206,2.862317322624599,-2.231179355946763,31.474000000045635
312274.4587,-4.4919486958207955,-2.5937058507236705,2.889687582546466,-2.1172308845337033,31.475000000034925
312274.4597,-4.388416020740615,-2.427824726511894,3.0990748633070946,-1.7371004897136961,31.476000000024214
312274.4607,-4.0180404238763145,-2.0483547705648233,3.450644932756246,-1.1325539096382697,31.477000000013504
312274.4617,-3.429643081567305,-1.5037175333191675,3.885464647129882,-0.3658069014157742,31.478000000002794
312274.4627,-2.6890138461927604,-0.8558071269184718,4.33093340472295,0.4861461275445435,31.478999999992084
312274.4637,-1.8724055837286342,-0.17386307763141556,4.707625940846719,1.338646200887722,31.48000000003958
312274.4647,-1.0591335927696637,0.4723406617272411,4.93690366429798,2.107247475917771,31.48100000002887
312274.4657,-0.32400149508300685,1.019318594606296,4.94857621570967,2.715604396400412,31.48200000001816
312274.4667,0.26971404048167824,1.4160373700425728,4.687888298399721,3.1026121309288666,31.48300000000745
312274.4677,0.6760476243177215,1.6288159080468738,4.121169699040027,3.2281154195838626,31.48399999999674
312274.4687,0.8703516505340613,1.644483463520334,3.2396126490622406,3.0766385660386324,31.485000000044238
312274.4697,0.8511558024863363,1.4714896540447955,2.060818013333852,2.6587798314521196,31.486000000033528
312274.4707,0.6397228958027318,1.1388625860878627,0.6279630299544815,2.010138334615609,31.487000000022817
312274.4717,0.2773707548636321,0.6931229737926248,-0.993331989935195,1.1878788310909734,31.488000000012107
312274.4727,-0.17915221988130794,0.19346271470686688,-2.7201441695773196,0.2652663384535505,31.489000000001397
312274.4737,-0.6637618992584203,-0.2943339214409761,-4.4589146305138385,-0.6753035207394547,31.489999999990687
312274.4747,-1.107987594646322,-0.7046261217338259,-6.1130196994289525,-1.550110153780912,31.491000000038184
312274.4757,-1.4480808084469596,-0.9786461556196161,-7.590545446696007,-2.282004055859809,31.492000000027474
312274.4767,-1.6315791218399325,-1.070562089614568,-8.811552097907992,-2.8076429734659,31.493000000016764
312274.4777,-1.622680588261971,-0.952280313633144,-9.714171219805015,-3.0833857711206565,31.494000000006054
312274.4787,-1.405907042986724,-0.6165201047287623,-10.258997528283858,-3.0892952701413514,31.494999999995343
312274.4797,-0.9877085113169677,-0.07786348719260011,-10.431406701290548,-2.8308874088062597,31.49600000004284
312274.4807,-0.39586794164938977,0.6283167809114374,-10.241633827591679,-2.3384841247898644,31.49700000003213
312274.4817,0.32321487253741144,1.4489399079240206,-9.722664002216113,-1.664259676500354,31.49800000002142
312274.4827,1.109070928752718,2.3180026834728458,-8.926195786489572,-0.877291871775733,31.49900000001071
312274.4837,1.893071660684182,3.16259475522841,-7.917119355485385,-0.05711916345017467,31.5
312274.4847,2.6050986258712943,3.909552143256209,-6.767086608908891,0.7135566265119679,31.50099999998929
312274.4857,3.180299702219228,4.492098193551757,-5.547827369502003,1.3563074282796799,31.502000000036787
312274.4867,3.5652544291627604,4.855826246330082,-4.324876936743554,1.8038376036039765,31.503000000026077
312274.4877,3.722935165098185,4.96344708894709,-3.1523251351592143,2.00561304979194,31.504000000015367
312274.4887,3.6359760100040064,4.79784976019804,-2.069081590890995,1.9317405505689338,31.505000000004657
312274.4897,3.307935251660952,4.36319387266552,-1.0969882287822377,1.574758544343625,31.505999999993946
312274.4907,2.762441913999755,3.6839483977161604,-0.2409145919881125,0.9492138604925842,31.507000000041444
312274.4917,2.0403322302692346,2.801996241993102,0.5092356867869223,0.08912291196731381,31.508000000030734
312274.4927,1.1950859289526625,1.7721156519453063,1.1748772092139803,-0.9563721208408894,31.509000000020023
312274.4937,0.28704463431395644,0.6563095211771882,1.7838932343410618,-2.1286626158968867,31.510000000009313
312274.4947,-0.6229818624154246,-0.4824337881843801,2.3651469522991184,-3.3660307963743694,31.510999999998603
312274.4957,-1.4800536367204202,-1.5863105791028111,2.9429815203172756,-4.610023002430101,31.5120000000461
312274.4967,-2.2407207696468454,-2.608175379234264,3.5323371033557462,-5.81116249318431,31.51300000003539
312274.4977,-2.8773362687726425,-3.515763296124925,4.135048606142344,-6.933400117779264,31.51400000002468
312274.4987,-3.3806054225379967,-4.294235077664462,4.7377647768216935,-7.956837648777489,31.51500000001397
312274.4997,-3.760095143198199,-4.94679019604744,5.311760198428175,-8.878442894490517,31.51600000000326
312274.5007,-4.042635800707897,-5.493290514281654,5.814713301961978,-9.710689291440893,31.51699999999255
312274.5017,-4.268765197238153,-5.967040542280646,6.194315844481381,-10.478273942104645,31.518000000040047
312274.5027,-4.487567939666513,-6.410059663099074,6.393383209014682,-11.213274587988778,31.519000000029337
312274.5037,-4.750433049220766,-6.867338070813102,6.355970240226072,-11.949276763738524,31.520000000018626
312274.5047,-5.104371004031745,-7.380675787843204,6.0338809279174255,-12.715119814977665,31.521000000007916
312274.5057,-5.585586341789767,-7.982752075451053,5.392904169849995,-13.528962267427492,31.521999999997206
312274.5067,-6.213987480122729,-8.692055741476338,4.418118237212918,-14.393347373979386,31.523000000044703
312274.5077,-6.989232404544613,-9.50922659862692,3.1176830228653962,-15.291859796436453,31.524000000033993
312274.5087,-7.88876497322348,-10.415222231116479,1.5246747235547315,-16.18781256126236,31.525000000023283
312274.5097,-8.8681054996707,-11.371545439163599,-0.3033005413752739,-17.02520415652544,31.526000000012573
312274.5107,-9.863439444334615,-12.322563682904375,-2.286767017848189,-17.73195824423345,31.527000000001863
312274.5117,-10.796320870863168,-13.19974255426939,-4.3291473173778,-18.225225251571043,31.527999999991152
312274.5127,-11.58009506576823,-13.927421404659253,-6.323265885870861,-18.41830917455022,31.52900000003865
312274.5137,-12.127468332980692,-14.429599980935581,-8.15904286178128,-18.228605906392062,31.53000000002794
312274.5147,-12.358530038280927,-14.637096204918167,-9.731710722377896,-17.58581931203698,31.53100000001723
312274.5157,-12.208474964906921,-14.49438812504319,-10.94982619134056,-16.439670726369847,31.53200000000652
312274.5167,-11.634289067837733,-13.965472640004087,-11.742358801385416,-14.766342487918786,31.53299999999581
312274.5177,-10.619747912442234,-13.038158401591346,-12.064214855300465,-12.572995141407777,31.534000000043306
312274.5187,-9.178226651507927,-11.726352512419208,-11.899694242599752,-9.899862417429619,31.535000000032596
312274.5197,-7.353019327293827,-10.070086758043303,-11.263564602049792,-6.819642936658555,31.536000000021886
312274.5207,-5.215094712919449,-8.13324131645389,-10.199654902464312,-3.4341526732571284,31.537000000011176
312274.5217,-2.8584539193146523,-5.9991417173662995,-8.777097869581663,0.131545665776106,31.538000000000466
312274.5227,-0.39347876370917867,-3.764407201137079,-7.084566050733613,3.737085096705564,31.538999999989755
312274.5237,2.061152097166337,-1.5315959098811036,-5.223029044317626,7.236161917479155,31.540000000037253
312274.5247,4.387268137070873,0.5986917532540009,-3.2976920276716664,10.48654464416881,31.541000000026543
312274.5257,6.475954592859577,2.5355370675971383,-1.4098455362202555,13.35987545008751,31.542000000015832
312274.5267,8.235470335172034,4.204554494641894,0.3506431055409491,15.750428419363038,31.543000000005122
312274.5277,9.59764232318331,5.553252426447004,1.9115350940177562,17.58207945953332,31.543999999994412
312274.5287,10.522186924771512,6.554425193385324,3.22259179382681,18.812902201685205,31.54500000004191
312274.5297,10.998603613483814,7.207284058406688,4.257763069143648,19.43701766411776,31.5460000000312
312274.5307,11.045514277826099,7.536248168275819,5.015055302401976,19.483572733747845,31.54700000002049
312274.5317,10.707559694559716,7.587536677621744,5.51416597026524,19.012980295060515,31.54800000000978
312274.5327,10.050190750424086,7.4239093253670765,5.79218498988031,18.110797825019585,31.54899999999907
312274.5337,9.152884116982074,7.118074837458952,5.8978452161926604,16.879828574544824,31.550000000046566
312274.5347,8.101452003306493,6.745408178985275,5.884937905606748,15.431180753257912,31.551000000035856
312274.5357,6.98019015051516,6.376677309801176,5.805580906912566,13.875101526310825,31.552000000025146
312274.5367,5.864610583577207,6.071472153021642,5.704031081618245,12.31240695645687,31.553000000014435
312274.5377,4.815436009304629,5.872953949847112,5.611667963097529,10.827256509475248,31.554000000003725
312274.5387,3.8743983323394984,5.804409466670022,5.543649585176238,9.481878950246326,31.554999999993015
312274.5397,3.0621980003060365,5.867914765339686,5.497566409568748,8.31365952601482,31.556000000040513
312274.5407,2.37876216776888,6.045204992806145,5.454212787978077,7.334765578227965,31.557000000029802
312274.5417,1.8057095040063558,6.300630157750678,5.380377891174266,6.534241755314672,31.558000000019092
312274.5427,1.31071041392654,6.58587315634815,5.233351048431253,5.882270527993626,31.559000000008382
312274.5437,0.8532448843100526,6.8459351196119655,4.966660422721094,5.336091260481732,31.55999999999767
312274.5447,0.39112425668004863,7.025771019841031,4.536436284984983,4.846920837352594,31.56100000004517
312274.5457,-0.11292889124945904,7.076897140854643,3.907723457109454,4.3671347750609835,31.56200000003446
312274.5467,-0.6853500300230292,6.96329730898826,3.0600683752423623,3.8569573408973192,31.56300000002375
312274.5477,-1.3370892586618557,6.666026040130897,1.9917746406544208,3.2899727468239024,31.56400000001304
312274.5487,-2.0607605437988674,6.186036912177178,0.7223501896939793,2.656900083208839,31.56500000000233
312274.5497,-2.8299057979779687,5.544940733650349,-0.7071533432181832,1.967258931869036,31.565999999991618
312274.5507,-3.600480514774522,4.783603188740523,-2.2360002896843936,1.2487720270897573,31.567000000039116
312274.5517,-4.314441226434856,3.9587055479126882,-3.7877023418288047,0.5445840763009132,31.568000000028405
312274.5527,-4.905099968550521,3.137593855058258,-5.275687041049349,-0.09140110829433197,31.569000000017695
312274.5537,-5.303728467559916,2.3919120452179126,-6.610192983071874,-0.6005716222798544,31.570000000006985
312274.5547,-5.446762954589619,1.7906361306044856,-7.705754570305101,-0.9264120625895804,31.570999999996275
312274.5557,-5.28289243242398,1.3931880610173386,-8.488573888159548,-1.021350192166814,31.572000000043772
312274.5567,-4.779315713223789,1.243303140021132,-8.903080148483728,-0.8529286313832949,31.573000000033062
312274.5577,-3.926525516345925,1.3642544420411415,-8.91704806371706,-0.4086506966097631,31.57400000002235
312274.5587,-2.7411143683265458,1.7559084200878168,-8.524778771761659,0.3010194029925507,31.57500000001164
312274.5597,-1.2662837499976842,2.3939104479758133,-7.748027803897032,1.2418389311077698,31.57600000000093
312274.5607,0.43004327967823414,3.231094535427244,-6.634576589769236,2.357272042695239,31.57699999999022
312274.5617,2.259376215583657,4.200997847157705,-5.254566573785915,3.572170234411603,31.57800000003772
312274.5627,4.11873033541686,5.22315878069673,-3.6949265648093634,4.7983218422174465,31.57900000002701
312274.5637,5.898086398408922,6.209706881395565,-2.0524038943370093,5.94135873183346,31.580000000016298
312274.5647,7.4885702080212555,7.072630376630536,-0.42584081684686353,6.908372900601149,31.581000000005588
312274.5657,8.790615529845171,7.731044461298792,1.0915933747570647,7.615524070921424,31.581999999994878
312274.5667,9.721374848543963,8.117786654524329,2.4195035234753384,7.994918541062575,31.583000000042375
312274.5677,10.220714221046425,8.18473410256089,3.4960600813021423,8.000109604730998,31.584000000031665
312274.5687,10.255263998338487,7.9063647412064935,4.281967733840575,7.609703793574065,31.585000000020955
312274.5697,9.820183172485685,7.281257133635553,4.762276979863274,6.828741764483892,31.586000000010245
312274.5707,8.93851335495134,6.33142545513204,4.945914991603717,5.68773957522225,31.586999999999534
312274.5717,7.658227557729359,5.099596586551216,4.8630335548086245,4.239503901332298,31.587999999988824
312274.5727,6.0472966310919425,3.6447348410012688,4.560482626424647,2.5540509024781084,31.58900000003632
312274.5737,4.187281160071139,2.03628692398276,4.095897429954246,0.7121415560872316,31.59000000002561
312274.5747,2.1660908202259175,0.3477388909272746,3.5310174994116124,-1.2019217845226593,31.5910000000149
312274.5757,0.07062363065456465,-1.3498635491556759,2.9249249584908408,-3.1075251449144945,31.59200000000419
312274.5767,-2.0200025081658723,-2.993785781332041,2.327889920398759,-4.93428976687768,31.59299999999348
312274.5777,-4.039983921511038,-4.534290821021338,1.7764432735158262,-6.627300640619301,31.594000000040978
312274.5787,-5.940622277630322,-5.937694150585281,1.290168052844441,-8.150518460453297,31.595000000030268
312274.5797,-7.69204725709272,-7.187511697967286,0.870522914622077,-9.488063492880862,31.596000000019558
312274.5807,-9.28275994624245,-8.283625358007809,0.5018025532485969,-10.643277666713098,31.597000000008848
312274.5817,-10.717110809901204,-9.239597185283134,0.15412090974471435,-11.635698372813259,31.597999999998137
312274.5827,-12.011038434142485,-10.078456483658664,-0.2119045695007968,-12.496291319313887,31.599000000045635
312274.5837,-13.186574029178722,-10.827444008789561,-0.6392649554143025,-13.261468924327897,31.600000000034925
312274.5847,-14.265744064204444,-11.512308182626592,-1.1680916029229163,-13.966547140603636,31.601000000024214
312274.5857,-15.264566570607549,-12.151798283447306,-1.8292951987746067,-14.63935448839685,31.602000000013504
312274.5867,-16.187829152422758,-12.75298374301774,-2.638995155986445,-15.29469609436835,31.603000000002794
312274.5877,-17.02525914113601,-13.307948249932174,-3.594349661904123,-15.930293485696248,31.603999999992084
312274.5887,-17.749556143316948,-13.792270082846876,-4.6712626277147145,-16.524675617620552,31.60500000003958
312274.5897,-18.316568199863518,-14.165519444041594,-5.82426145594363,-17.037302263123355,31.60600000002887
312274.5907,-18.66767353173337,-14.37379737958646,-6.988626730568021,-17.410976518901133,31.60700000001816
312274.5917,-18.73420206551756,-14.354129623602155,-8.084632449772197,-17.576370871582803,31.60800000000745
312274.5927,-18.443517204792528,-14.040333449715188,-9.023545046356237,-17.45827397167672,31.60899999999674
312274.5937,-17.726199919309764,-13.369815916578602,-9.714851796613129,-16.98298452694382,31.610000000044238
312274.5947,-16.52365203088649,-12.290653882701937,-10.074061746321293,-16.086152571105053,31.611000000033528
312274.5957,-14.795376272087024,-10.768260925220446,-10.030357539255977,-14.720309501745223,31.612000000022817
312274.5967,-12.525203538248752,-8.7909687697741,-9.533380968784966,-12.861342865904977,31.613000000012107
312274.5977,-9.725821947183704,-6.373939325878674,-8.558508405535862,-10.51325888612512,31.614000000001397
312274.5987,-6.441110084454497,-3.5609697449551025,-7.110107508159091,-7.710727072783686,31.614999999990687
312274.5997,-2.7459741445531476,-0.42394321609529995,-5.22245081978025,-4.5191025865209,31.616000000038184
312274.6007,1.2563832717720043,2.940105696386884,-2.958177279882732,-1.0318540461397108,31.617000000027474
312274.6017,5.439598033412037,6.41412121715875,-0.40441863292665764,2.6344350252482727,31.618000000016764
312274.6027,9.661295314128694,9.867957099554625,2.3330774933914435,6.347097035153734,31.619000000006054
312274.6037,13.771680881415957,13.166543921930293,5.1373129882991595,9.965859737522658,31.619999999995343
312274.6047,17.62286275920893,16.17861193851189,7.888244347110464,13.352055322206176,31.62100000004284
312274.6057,21.07812464342873,18.785234810309234,10.47110648871108,16.37777235638174,31.62200000003213
312274.6067,24.020376380315167,20.887474279650444,12.784130548949312,18.934169518550835,31.62300000002142
312274.6077,26.359082683940482,22.412487519107174,14.744995469363984,20.938248795424343,31.62400000001071
312274.6087,28.035111636304745,23.317599581554145,16.295479519578784,22.337529795898934,31.625
312274.6097,29.023135791697875,23.592029562861576,17.403953409682057,23.112262122985467,31.62599999998929
312274.6107,29.33144248670248,23.256172904013383,18.065564128314225,23.27504050791409,31.627000000036787
312274.6117,28.999244799926032,22.35856326227037,18.300177846821352,22.867925778384304,31.628000000026077
312274.6127,28.0918081204155,20.970844521470426,18.148359900187025,21.957400902465018,31.629000000015367
312274.6137,26.693898287004878,19.181257164474328,17.665849775781766,20.6276837881594,31.630000000004657
312274.6147,24.902197811914267,17.087267085229243,16.9171219983277,18.97305903600161,31.630999999993946
312274.6157,22.817413820220814,14.788027543004143,15.968697245716518,17.089966337786596,31.632000000041444
312274.6167,20.5368082357968,12.377360896754428,14.88287528703672,15.0695869311127,31.633000000030734
312274.6177,18.147817463909107,9.937877023854641,13.712502224818241,12.99160168101954,31.634000000020023
312274.6187,15.72330219819385,7.536717306407282,12.497265372120705,10.919662134901603,31.635000000009313
312274.6197,13.318790962260671,5.223239765306708,11.261842092158469,8.89893268644899,31.635999999998603
312274.6207,10.971871361667503,3.0287596820327525,10.016030925389735,6.955846106902826,31.6370000000461
312274.6217,8.70366163309251,0.968250850112469,8.756784180249944,5.099987598329383,31.63800000003539
312274.6227,6.522083838219246,-0.9562839032482995,7.471861773466124,3.327806659125222,31.63900000002468
312274.6237,4.426479763800236,-2.751228782450072,6.144656375611189,1.6276727180299042,31.64000000001397
312274.6247,2.4129789286237564,-4.426129953667001,4.759616790368992,-0.014342275869873397,31.64100000000326
312274.6257,0.47995788043628185,-5.988458690998856,3.307632290856239,-1.6086403100027937,31.64199999999255
312274.6267,-1.3670720913304055,-7.43898444032753,1.7907418348887914,-3.156917707616484,31.643000000040047
312274.6277,-3.1117456289153016,-8.768308166939141,0.22559868586434553,-4.648243191733155,31.644000000029337
312274.6287,-4.724761732461087,-9.954978663886966,-1.3547535064152543,-6.056873254814728,31.645000000018626
312274.6297,-6.163733338632106,-10.965443353784392,-2.901065000564813,-7.342100869129849,31.646000000007916
312274.6307,-7.375054582199215,-11.755887705692842,-4.350094770918703,-8.450218737718318,31.646999999997206
312274.6317,-8.297655198632153,-12.27581349663419,-5.628714662675101,-9.31845363779138,31.648000000044703
312274.6327,-8.868305983784127,-12.473016212232723,-6.659561847064681,-9.880516384617694,31.649000000033993
312274.6337,-9.027965853655227,-12.299464988095291,-7.367730057892238,-10.073233802117407,31.650000000023283
312274.6347,-8.72853735975659,-11.717480502914182,-7.687870032968605,-9.84360281651521,31.651000000012573
312274.6357,-7.939336186608328,-10.705558225119184,-7.571010267577018,-9.15554534125774,31.652000000001863
312274.6367,-6.652587764129383,-9.263201595174825,-6.990417041408388,-7.995652620202366,31.652999999991152
312274.6377,-4.8873404896716295,-7.41421091240078,-5.945887580915809,-6.3772887719370805,31.65400000003865
312274.6387,-2.691323233537291,-5.208011415494657,-4.466005471589313,-4.342568075706441,31.65500000002794
312274.6397,-0.14046175582423004,-2.71878524822623,-2.6080704012258566,-1.9619154091418074,31.65600000001723
312274.6407,2.6640135016282542,-0.04237931014227813,-0.45562762317346206,0.6688544467299791,31.65700000000652
312274.6417,5.600708080550157,2.7088256169967098,1.886254253263956,3.4337670032720697,31.65799999999581
312274.6427,8.53507698381293,5.4127003356059324,4.297596917416362,6.2038334958291586,31.659000000043306
312274.6437,11.327753090621611,7.945258497192417,6.651477696354731,8.84552966999273,31.660000000032596
312274.6447,13.843501543148829,10.188990514062432,8.822676843883146,11.229891886989623,31.661000000021886
312274.6457,15.960044184747455,12.040924349324827,10.696269364712991,13.241447160445325,31.662000000011176
312274.6467,17.576002134523243,13.419712050514448,12.175425316047326,14.786200098815009,31.663000000000466
312274.6477,18.617279498551895,14.271121799864314,13.187752997359006,15.797979587251854,31.663999999989755
312274.6487,19.041350110668624,14.571455040941949,13.68965240097318,16.242594049201156,31.665000000037253
312274.6497,18.839098902396415,14.32859378862279,13.66832907086147,16.119442491926108,31.666000000026543
312274.6507,18.034091899516934,13.580596951494238,13.14133358926018,15.460460360393613,31.667000000015832
312274.6517,16.67938260963288,12.391986037038793,12.153718632614002,14.326522320555615,31.668000000005122
312274.6527,14.8521852564626,10.84806881827505,10.773122142769774,12.801655165663135,31.668999999994412
312274.6537,12.646935557766552,9.047824524850585,9.08327088434853,10.98561093923142,31.67000000004191
312274.6547,10.167399319164355,7.09599919069174,7.176535775447745,8.985494261343266,31.6710000000312
312274.6557,7.518564751066726,5.095123082461073,5.146245919960748,6.907215050902781,31.67200000002049
312274.6567,4.799059075060644,3.1381577750219214,3.0794752956000915,4.847541164557066,31.67300000000978
312274.6577,2.0947635595121965,1.3024091209883772,1.0509543191485087,2.887454921709348,31.67399999999907
312274.6587,-0.5258295652792375,-0.35478873587647397,-0.8813655129528155,1.0873802365465972,31.675000000046566
312274.6597,-3.0141567320366316,-1.798291057350624,-2.6787394923644072,-0.5153432112718788,31.676000000035856
312274.6607,-5.341872617279409,-3.015141892807459,-4.321901841973577,-1.9065868786897857,31.677000000025146
312274.6617,-7.49896996362136,-4.0124513694571124,-5.809252018110722,-3.09324617026579,31.678000000014435
312274.6627,-9.490026310987055,-4.813451281249012,-7.153233542808093,-4.099049708996951,31.679000000003725
312274.6637,-11.329058920166027,-5.4522016003555915,-8.375362058704908,-4.958868283997592,31.679999999993015
312274.6647,-13.033603917169195,-5.967544173917268,-9.500489963645663,-5.712167581577829,31.681000000040513
312274.6657,-14.618707402292358,-6.396963073339201,-10.550965257775294,-6.396324331397345,31.682000000029802
312274.6667,-16.09151803024008,-6.7710079684785205,-11.54134539727745,-7.040528536988169,31.683000000019092
312274.6677,-17.447102365665735,-7.108868179416382,-12.474262929517035,-7.660925040460379,31.684000000008382
312274.6687,-18.665973051496493,-7.415557853612455,-13.337915075414484,-8.25751296556644,31.68499999999767
312274.6697,-19.713638627300046,-7.680999920066501,-14.105476818093575,-8.813135189563635,31.68600000004517
312274.6707,-20.54227077618527,-7.881095458387379,-14.736533797052271,-9.294670593919156,31.68700000003446
312274.6717,-21.094361103041845,-7.980656028117922,-15.18041777708369,-9.656311359193392,31.68800000002375
312274.6727,-21.30802757562904,-7.937880249275239,-15.38112506719014,-9.844589002966938,31.68900000001304
312274.6737,-21.12345169808864,-7.709892140312699,-15.28332732117045,-9.804628027225204,31.69000000000233
312274.6747,-20.489799333414485,-7.258743812612043,-14.838861873065454,-9.486973421639071,31.690999999991618
312274.6757,-19.371913864263856,-6.557230654612238,-14.013027559777234,-8.854271180325803,31.692000000039116
312274.6767,-17.756076824593112,-5.5938786884370515,-12.79001824135861,-7.887086275945945,31.693000000028405
312274.6777,-15.654208043971533,-4.376540379303811,-11.176899662233332,-6.588219888322734,31.694000000017695
312274.6787,-13.106017575859472,-2.9341694035586534,-9.2056689754018,-4.985029671924439,31.695000000006985
312274.6797,-10.178811830272823,-1.3165235917672757,-6.933117279755569,-3.1294496377542473,31.695999999996275
312274.6807,-6.9648780488435715,0.4082491153696459,-4.438426296058324,-1.0956309525656858,31.697000000043772
312274.6817,-3.5766030349811855,2.1579746045692816,-1.8186502484539568,1.0246404300726153,31.698000000033062
312274.6827,-0.13970131480182194,3.842401419730911,0.817558417532715,3.1283719658773914,31.69900000002235
312274.6837,3.2148867627813207,5.370205549364202,3.3574460553226912,5.109074782145089,31.70000000001164
312274.6847,6.359733247899766,6.656408617290272,5.692219370187105,6.86505926371937,31.70100000000093
312274.6857,9.179535412907054,7.6295150625377754,7.724950937260177,8.307552912642723,31.70199999999022
312274.6867,11.578845557407694,8.237689224002512,9.37761452502909,9.367884541544663,31.70300000003772
312274.6877,13.488236210850681,8.45337464099949,10.596610913886249,10.003058980564312,31.70400000002701
312274.6887,14.868359998200747,8.275897772304795,11.356281209991442,10.199192088742764,31.705000000016298
312274.6897,15.711555700102577,7.731783442286881,11.660089470141637,9.972473069108696,31.706000000005588
312274.6907,16.04087734626405,6.872721941657491,11.539372096640603,9.367550976715785,31.706999999994878
312274.6917,15.90665996433677,5.771347440244838,11.049777250083354,8.453482785353915,31.708000000042375
312274.6927,15.38096120445903,4.515193087825952,10.265731781550796,7.317608313685677,31.709000000031665
312274.6937,14.55041091066384,3.1993600916744196,9.273455327150467,6.057910789032721,31.710000000020955
312274.6947,13.508142441501901,1.9185596150294397,8.163173759658008,4.774562265986249,31.711000000010245
312274.6957,12.34555674341057,0.7592458316000635,7.021254469822204,3.5614270687449365,31.711999999999534
312274.6967,11.144675694882249,-0.20744983753245225,5.922987290531438,2.4982968715095106,31.712999999988824
312274.6977,9.97177484552847,-0.9313485990332521,4.92666728196672,1.644558053559632,31.71400000003632
312274.6987,8.872854092062006,-1.3869186724950504,4.069505727495598,1.0348527337236426,31.71500000002561
312274.6997,7.871321058978574,-1.5747165029176364,3.3657162214330305,0.6771029540819815,31.7160000000149
312274.7007,6.968043982055234,-1.5204684042663454,2.8069111108907867,0.5530414569662604,31.71700000000419
312274.7017,6.143699966947232,-1.2719066513431014,2.3647203145388778,0.6211542443903529,31.71799999999348
312274.7027,5.363123024727229,-0.8936825016846682,1.9953312952003897,0.8217126119072764,31.719000000040978
312274.7037,4.581165674720401,-0.46085526888370887,1.645466308998776,1.0833774900284587,31.720000000030268
312274.7047,3.7494464698525625,-0.05158462507420152,1.2591785735872896,1.330715358022393,31.721000000019558
312274.7057,2.823276998574822,0.2602792444998936,0.7847755526602721,1.491886335272951,31.722000000008848
312274.7067,1.7680530514460389,0.4120123217201221,0.18117203784078323,1.5057585741260098,31.722999999998137
312274.7077,0.5644561605655991,0.35761070061349365,-0.5769616131907879,1.3277690015681674,31.724000000045635
312274.7087,-0.7880627971497263,0.07165766291686425,-1.4957662337531636,0.9339819600437025,31.725000000034925
312274.7097,-2.269869446906975,-0.4488676111154941,-2.560811847582205,0.32298118349305516,31.726000000024214
312274.7107,-3.841942243569474,-1.1849683603668095,-3.7378970342411835,-0.4845514537924362,31.727000000013504
312274.7117,-5.448796996019166,-2.0981110937525997,-4.975941749013639,-1.4484864023883384,31.728000000002794
312274.7127,-7.023243202296368,-3.1345217712576123,-6.211677170520419,-2.5138216561867224,31.728999999992084
312274.7137,-8.492491982646102,-4.230837518901963,-7.375657611547017,-3.6166895786849036,31.73000000003958
312274.7147,-9.784999868843332,-5.3205282365354805,-8.398988450538843,-4.691163719247321,31.73100000002887
312274.7157,-10.837358698904662,-6.3404353478316935,-9.220093220472869,-5.676159197834146,31.73200000001816
312274.7167,-11.600536511045714,-7.236772749839433,-9.790839291591,-6.521716252588864,31.73300000000745
312274.7177,-12.044837991076209,-7.969997534028967,-10.081405266314889,-7.1940235316532055,31.73399999999674
312274.7187,-12.163079271837262,-8.518078707457557,-10.083397908580197,-7.678668816602608,31.735000000044238
312274.7197,-11.971648133808726,-8.877858685960103,-9.810899803989168,-7.981786918809057,31.736000000033528
312274.7207,-11.509329436826912,-9.064398034369313,-9.299333864948183,-8.128989307109803,31.737000000022817
312274.7217,-10.833996277266712,-9.108399250223012,-8.602247039752102,-8.162186204921236,31.738000000012107
312274.7227,-10.01747813052299,-9.051999901182313,-7.786321836974498,-8.134626934020478,31.739000000001397
312274.7237,-9.13909732965856,-8.943389835526753,-6.925100208541103,-8.104666794030711,31.739999999990687
312274.7247,-8.278496919560572,-8.830825221085455,-6.092032606048762,-8.12890058935566,31.741000000038184
312274.7257,-7.508453269268381,-8.756672189202975,-5.3535329846254,-8.255370900849499,31.742000000027474
312274.7267,-6.8883689322787784,-8.752108993296153,-4.76272145803101,-8.517556508006894,31.743000000016764
312274.7277,-6.459074946874972,-8.833048303164835,-4.354470080656954,-8.92977314032,31.744000000006054
312274.7287,-6.23944362991441,-8.997717301991367,-4.142240324747702,-9.484482082573452,31.744999999995343
312274.7297,-6.225135584651114,-9.226165006533005,-4.117025683458744,-10.151815455840325,31.74600000004284
312274.7307,-6.389595598291315,-9.481770461145537,-4.248506661072199,-10.881408575294344,31.74700000003213
312274.7317,-6.6871919444759,-9.71462167134035,-4.4883084712434105,-11.606401131359322,31.74800000002142
312274.7327,-7.058184012797223,-9.866443664572774,-4.775045383840874,-12.249252576255907,31.74900000001071
312274.7337,-7.435024796529438,-9.876594022765946,-5.0406601445523025,-12.728834373276394,31.75
312274.7347,-7.749375134416761,-9.688531663821687,-5.217439515331529,-12.96813075559244,31.75099999998929
312274.7357,-7.939138463744217,-9.256110921152816,-5.245020292685831,-12.901813364360361,31.752000000036787
312274.7367,-7.954824870817788,-8.549063633585645,-5.076700728193319,-12.482960272236477,31.753000000026077
312274.7377,-7.7646213619961,-7.557106193850209,-4.684440052210599,-11.688266127307482,31.754000000015367
312274.7387,-7.357674738524147,-6.29223918974398,-4.062057117925207,-10.521230179618117,31.755000000004657
312274.7397,-6.745271400779983,-4.7889816734560755,-3.226315405934527,-9.012999224205315,31.755999999993946
312274.7407,-5.9598072048969515,-3.10248311348128,-2.215788410278598,-7.2207645279733645,31.757000000041444
312274.7417,-5.051659476868095,-1.3046639408749425,-1.0876164129298929,-5.223844006169206,31.758000000030734
312274.7427,-4.08428078763897,0.5212702129413632,0.0875285015359703,-3.1178006875533515,31.759000000020023
312274.7437,-3.1280095832330606,2.2874341925165425,1.2317778714810035,-1.007134488015902,31.760000000009313
312274.7447,-2.2532188953692143,3.908370129341149,2.267085444035144,1.0027815521080412,31.760999999998603
312274.7457,-1.5234886653580553,5.307984379235301,3.1222465296398942,2.8137800950129854,31.7620000000461
312274.7467,-0.9894833482052786,6.425656855013293,3.7392378114372335,4.3422550588210465,31.76300000003539
312274.7477,-0.6841448168247721,7.220942723161997,4.0782662844984285,5.525128795992562,31.76400000002468
312274.7487,-0.6196782517864434,7.676421135600309,4.1210450358171915,6.323902849202232,31.76500000001397
312274.7497,-0.7866287766522158,7.798424331890013,3.871989888713692,6.726451608720184,31.76600000000326
312274.7507,-1.1551368937233548,7.615585681908613,3.3572371065216,6.746437496429828,31.76699999999255
312274.7517,-1.6782420647249705,7.175356997610614,2.6215980261526197,6.420456055816176,31.768000000040047
312274.7527,-2.29689776275207,6.538842982215922,1.7237703810066205,5.803237068663245,31.769000000029337
312274.7537,-2.9461884824505367,5.774464595780058,0.7302980353419113,4.961412285569678,31.770000000018626
312274.7547,-3.5621167946729906,4.951077222946832,-0.2911061218918311,3.966493565582754,31.771000000007916
312274.7557,-4.088268898203259,4.131222484059293,-1.2781974959294837,2.8877742232723262,31.771999999997206
312274.7567,-4.481676425659634,3.365178939058445,-2.1801261589572345,1.78586453721243,31.773000000044703
312274.7577,-4.717269889260065,2.6863978995754314,-2.962053511521284,0.7075000013341443,31.774000000033993
312274.7587,-4.7904577387874046,2.108773610491391,-3.607992759961303,-0.3178747399723152,31.775000000023283
312274.7597,-4.717551124747035,1.62601541837776,-4.12158597381289,-1.2794287381582372,31.776000000012573
312274.7607,-4.5339699220340846,1.2131808801914716,-4.524739037086684,-2.184073570713558,31.777000000001863
312274.7617,-4.290389176508523,0.830213481616669,-4.85425308174838,-3.053523859995435,31.777999999991152
312274.7627,-4.047194755617355,0.4271278772269737,-5.156795457300789,-3.919628868179298,31.77900000003865
312274.7637,-3.8677917184467905,-0.04968084081871032,-5.482724584998246,-4.818494040933827,31.78000000002794
312274.7647,-3.811431176898924,-0.6506428399995358,-5.87940398808634,-5.7840386043225696,31.78100000001723
312274.7657,-3.926278662195197,-1.4164261633278104,-6.384699087750082,-6.84169736472463,31.78200000000652
312274.7667,-4.243433030126581,-2.3722330765890343,-7.021339837240098,-8.002965212224002,31.78299999999581
312274.7677,-4.772520505253905,-3.523574827076914,-7.792753521857978,-9.261402076235834,31.784000000043306
312274.7687,-5.49934129970162,-4.853978063019113,-8.680832401139142,-10.590571896672161,31.785000000032596
312274.7697,-6.385850301522067,-6.3248889933348025,-9.645913676503014,-11.944195574666258,31.786000000021886
312274.7707,-7.372527464428172,-7.877826580966817,-10.629032653568613,-13.258573867406062,31.787000000011176
312274.7717,-8.38295966990344,-9.438614583492742,-11.556285047814594,-14.45710393994482,31.788000000000466
312274.7727,-9.33023683041674,-10.923315763380405,-12.344923199524109,-15.456495886402452,31.788999999989755
312274.7737,-10.124582403275626,-12.245320398509664,-12.910634329364358,-16.174114759041544,31.790000000037253
312274.7747,-10.681510397807573,-13.322922272362172,-13.175324406507196,-16.535747781334827,31.791000000026543
312274.7757,-10.929740263903478,-14.086660508068562,-13.074671227893456,-16.48303843958333,31.792000000015832
312274.7767,-10.818114112152097,-14.485720598571481,-12.564721171381288,-15.979845393792296,31.793000000005122
312274.7777,-10.320846735598789,-14.49277164302585,-11.626885148024906,-15.016873690630916,31.793999999994412
312274.7787,-9.440589971532287,-14.106761288098232,-10.27083305597314,-13.614080449942115,31.79500000004191
312274.7797,-8.208994792818137,-13.353381401279325,-8.534978920999936,-11.820562437991075,31.7960000000312
312274.7807,-6.684687908233475,-12.283137667925937,-6.484472482355189,-9.711869109122881,31.79700000002049
312274.7817,-4.948822226767534,-10.9671838790849,-4.206845821759178,-7.384929043023256,31.79800000000978
312274.7827,-3.098589013962165,-9.4912946836814,-1.8056833883163996,-4.951006573517621,31.79899999999907
312274.7837,-1.2392719822834957,-7.948528423109049,0.6071306549874188,-2.5272965488596704,31.800000000046566
312274.7847,0.52443857925534,-6.431257145028293,2.919900243586301,-0.22789991388802944,31.801000000035856
312274.7857,2.097083451556689,-5.023301863062663,5.029584021756314,1.8450121051852655,31.802000000025146
312274.7867,3.400240124820356,-3.792901683213893,6.849486826083483,3.6090485704497755,31.803000000014435
312274.7877,4.378791052204356,-2.787166453666271,8.315495487264757,5.0077541062212,31.804000000003725
312274.7887,5.0050939526009985,-2.0285217207240978,9.390315545862789,6.014512829313972,31.804999999993015
312274.7897,5.280690857829548,-1.5134655658881326,10.065353152119082,6.633851756871008,31.806000000040513
312274.7907,5.23542333936532,-1.2137375809007087,10.360106559902961,6.900034610203738,31.807000000029802
312274.7917,4.9240634375928,-1.079771912289325,10.319163124741564,6.873087416555234,31.808000000019092
312274.7927,4.420800099750538,-1.0460909144910766,10.007118465293106,6.632634335351133,31.809000000008382
312274.7937,3.812117472135355,-1.038114146207543,9.501923462365534,6.27012314885527,31.80999999999767
312274.7947,3.1887455747883817,-0.9797266036663943,8.88730420624011,5.880165769621895,31.81100000004517
312274.7957,2.637442212778893,-0.8008826268250844,8.244976864729445,5.551796138566857,31.81200000003446
312274.7967,2.2333703498225552,-0.4445241096096589,7.647386814528936,5.3604488528627705,31.81300000002375
312274.7977,2.0337675607212558,0.1278369863955432,7.151639065350268,5.361386919124551,31.81400000001304
312274.7987,2.0734706162562135,0.9323884453890628,6.795161537523601,5.585163613961082,31.81500000000233
312274.7997,2.362672117925379,1.9614743539726152,6.593466721146706,6.035505558138983,31.815999999991618
312274.8007,2.8870658063480854,3.184359612212801,6.540168065102874,6.6897709861138015,31.817000000039116
312274.8017,3.610304362299784,4.550200221385415,6.6091856542921,7.501891373405347,31.818000000028405
312274.8027,4.478470959939888,5.992905322630087,6.758862986551591,8.407469773224001,31.819000000017695
312274.8037,5.426075159202279,7.437397177065494,6.937533617938789,9.330507960700277,31.820000000006985
312274.8047,6.38294334932107,8.80664487810972,7.089940766091614,10.191085995803158,31.820999999996275
312274.8057,7.281297261948093,10.028779000769205,7.163837591426764,10.913236099292794,31.822000000043772
312274.8067,8.062308116855075,11.04359395727097,7.116087794329661,11.432245241034911,31.823000000033062
312274.8077,8.681478799162425,11.807812184351851,6.917645719859842,11.700687756942685,31.82400000002235
312274.8087,9.11233515997222,12.298612436310089,6.556916046465337,11.692623573848515,31.82500000001164
312274.8097,9.348086864883538,12.515100471613827,6.041163032689841,11.405585624684534,31.82600000000093
312274.8107,9.401130010813523,12.477606732965013,5.395841095267458,10.860202988551386,31.82699999999022
312274.8117,9.30048666650761,12.22491176921091,4.661931985475547,10.097542075938671,31.82800000003772
312274.8127,9.0874882118292,11.809704796369314,3.89157771096798,9.174473538901974,31.82900000002701
312274.8137,8.810188686365073,11.292753834235244,3.1424723157554326,8.157565401922819,31.830000000016298
312274.8147,8.517123418730053,10.736390371907314,2.4716023889405747,7.116144372805325,31.831000000005588
312274.8157,8.251094147964118,10.197975444600155,1.9289931447450397,6.115243739283314,31.831999999994878
312274.8167,8.043658129657313,9.724011294437943,1.552117475621659,5.209160488726486,31.833000000042375
312274.8177,7.91092575185266,9.34549397615084,1.361559500841084,4.4362762608327895,31.834000000031665
312274.8187,7.851136280349024,9.074974403219832,1.358398386125355,3.8156635452177206,31.835000000020955
312274.8197,7.844297994345423,8.905621257554124,1.5236051097426189,3.345813669813247,31.836000000010245
312274.8207,7.853965484117808,8.812376270916936,1.8195416139995968,3.005605160736354,31.836999999999534
312274.8217,7.8310046118121415,8.755080793302955,2.1934386259606287,2.757401783463134,31.837999999988824
312274.8227,7.718986851085885,8.68325326837243,2.582526579291106,2.55195186358542,31.83900000003632
312274.8237,7.460680405888775,8.542029964773764,2.9203236520135,2.3345760145987864,31.84000000002561
312274.8247,7.004983292124962,8.278662605986943,3.1434630077375645,2.051997533774271,31.8410000000149
312274.8257,6.3135859768060785,7.848908138250266,3.1983801851573546,1.659101705595969,31.84200000000419
312274.8267,5.366664390699073,7.222653565804367,3.0471875399011856,1.1249138922387942,31.84299999999348
312274.8277,4.166987376845526,6.388191845130071,2.67213541494185,0.4371613168736581,31.844000000040978
312274.8287,2.741968213987203,5.354696112186369,2.078192423272258,-0.39507748029911544,31.845000000030268
312274.8297,1.1433838936540701,4.152616138994047,1.2934570693511283,-1.3409420907847875,31.846000000019558
312274.8307,-0.5552903652359096,2.8319255367567187,0.36732243896097305,-2.3496640326413534,31.847000000008848
312274.8317,-2.2637520212048687,1.4583607396709555,-0.6334655912143982,-3.3545993377961105,31.847999999998137
312274.8327,-3.881550887904021,0.1079923232663014,-1.6305096400976662,-4.279056372263236,31.849000000045635
312274.8337,-5.3059994914475315,-1.1393639039525179,-2.5407005505332143,-5.0433719268417665,31.850000000034925
312274.8347,-6.440608332464241,-2.2072708039429942,-3.283750048130905,-5.572558068869098,31.851000000024214
312274.8357,-7.203279118164035,-3.0296465386048013,-3.7896083151808453,-5.803777646902237,31.852000000013504
312274.8367,-7.533500738438632,-3.5569210980451396,-4.00506422480778,-5.69291432772628,31.853000000002794
312274.8377,-7.397876636740414,-3.7607750405954916,-3.898899662468478,-5.219583140237392,31.853999999992084
312274.8387,-6.793460573217156,-3.6369963824155085,-3.465103990050238,-4.390072144007878,31.85500000003958
312274.8397,-5.748576631043038,-3.2061707387074545,-2.7238373491253394,-3.237901121704396,31.85600000002887
312274.8407,-4.321029792848742,-2.512127108551237,-1.7200445208984863,-1.821910207579828,31.85700000001816
312274.8417,-2.593853533320842,-1.6182769312356409,-0.5198438458058395,-0.2220280516265229,31.85800000000745
312274.8427,-0.668967691487287,-0.6021862511147758,0.7949733301283438,1.4669075715256898,31.85899999999674
312274.8437,1.3406882835318488,0.4511097024550826,2.133818521238581,3.1427156597911523,31.860000000044238
312274.8447,3.319843099079536,1.4564200071013758,3.4049140116654706,4.704128764246589,31.861000000033528
312274.8457,5.159626756565116,2.3356508710775414,4.52292250890822,6.058977223976992,31.862000000022817
312274.8467,6.76557465414136,3.0243165616666143,5.415889735769926,7.131543094591618,31.863000000012107
312274.8477,8.064202449160957,3.476700708324016,6.03086094581131,7.868404709330873,31.864000000001397
312274.8487,9.00759131481485,3.6691925297103225,6.337663555861363,8.242236982848784,31.864999999990687
312274.8497,9.575615067579717,3.6015006555610256,6.33052785441265,8.253228269449055,31.866000000038184
312274.8507,9.775665871634198,3.295653767795932,6.027428480235078,7.928002852446295,31.867000000027474
312274.8517,9.639972062250516,2.7929120924514814,5.467250476090724,7.316176822532264,31.868000000016764
312274.8527,9.22082724308362,2.148915864274431,4.705093616163944,6.484901031430073,31.869000000006054
312274.8537,8.584242540489932,1.4275665465161196,3.806206904362228,5.511936049085311,31.869999999995343
312274.8547,7.802675345560661,0.6942572914991517,2.8391742813408234,4.477942048040821,31.87100000004284
312274.8557,6.947564688409536,0.009129143210562001,1.8690401124000051,3.458737910649781,31.87200000003213
312274.8567,6.0824085427571815,-0.5789769759311144,0.951062449965705,2.5182817149399335,31.87300000002142
312274.8577,5.257051817524513,-1.0372746687397714,0.12571354653167718,1.703049376067868,31.87400000001071
312274.8587,4.503722498029532,-1.3520258581862141,-0.5845825261194876,1.0383470115309104,31.875
312274.8597,3.8351705766441855,-1.529483532611612,-1.1766631846864466,0.5268993845631722,31.87599999998929
312274.8607,3.2450482632832296,-1.594697944464258,-1.6656881858767472,0.14983045619575788,31.877000000036787
312274.8617,2.710441882924568,-1.5883139781552396,-2.0821633193706255,-0.13008523342523093,31.878000000026077
312274.8627,2.1962483406718696,-1.5616879599938516,-2.4672494146005897,-0.36324673145959735,31.879000000015367
312274.8637,1.6609034544643957,-1.5708204017936238,-2.8668543077413555,-0.6066636375015255,31.880000000004657
312274.8647,1.0628340238913483,-1.6697205287664825,-3.325131212616812,-0.9166810904288525,31.880999999993946
312274.8657,0.36693346246369496,-1.9038771983960037,-3.8780708087778413,-1.341739547055887,31.882000000041444
312274.8667,-0.4496408360649986,-2.304503152568776,-4.547869812321418,-1.9159141976766616,31.883000000030734
312274.8677,-1.3929814293945655,-2.8841461383960985,-5.338686047598585,-2.6539035855209487,31.884000000020023
312274.8687,-2.4497566904949046,-3.6341283928964954,-6.234256005473703,-3.547995642985565,31.885000000009313
312274.8697,-3.586666338614199,-4.524098160077095,-7.197668503331239,-4.567345656241155,31.885999999998603
312274.8707,-4.752129031057786,-5.503770627216289,-8.173375077514082,-5.65967346721518,31.8870000000461
312274.8717,-5.880077872445757,-6.506721053559705,-9.091294916983745,-6.755248646137632,31.88800000003539
312274.8727,-6.895524320726326,-7.455890869167329,-9.872661292629484,-7.7728056746756,31.88900000002468
312274.8737,-7.721368026515585,-8.270297874921212,-10.437078255817292,-8.626838488233885,31.89000000001397
312274.8747,-8.285797749902034,-8.872320961236982,-10.710128457383004,-9.235583864857693,31.89100000000326
312274.8757,-8.529559842081925,-9.194869802074836,-10.63080801833486,-9.528929822536664,31.89199999999255
312274.8767,-8.412372824714417,-9.18775667302812,-10.158069119305146,-9.455485644461568,31.893000000040047
312274.8777,-7.91783941373268,-8.822660294467694,-9.275825271954234,-8.988124478165716,31.894000000029337
312274.8787,-7.056344072639723,-8.09620338536617,-7.995911246619968,-8.127450563675973,31.895000000018626
312274.8797,-5.86561175308823,-7.030843656211552,-6.358676416219818,-6.902837470034367,31.896000000007916
312274.8807,-4.408823823998206,-5.673484998261673,-4.431109050417128,-5.370912528572188,31.896999999997206
312274.8817,-2.770419023980066,-4.091931559550857,-2.302618945067076,-3.6116038737907994,31.898000000044703
312274.8827,-1.0499281687745297,-2.3695113063596804,-0.0788246896705334,-1.7220968723126837,31.899000000033993
312274.8837,0.6456200838520341,-0.598367819972657,2.12612111588445,0.19075596241786538,31.900000000023283
312274.8847,2.2100471352461377,1.1279571368432377,4.197998193314547,2.0188821829941053,31.901000000012573
312274.8857,3.546376732296451,2.7219641982087466,6.031031699756308,3.661525011487568,31.902000000001863
312274.8867,4.574439499952214,4.108976686945881,7.535703059268524,5.033092683870064,31.902999999991152
312274.8877,5.237046151793383,5.2326455485547285,8.645175420707625,6.06961477882311,31.90400000003865
312274.8887,5.504179181188026,6.05869101344447,9.319780439221601,6.733233687545465,31.90500000002794
312274.8897,5.374838113774923,6.576566398543756,9.549194111866505,7.014348052014752,31.90600000001723
312274.8907,4.876392696925932,6.798931851692251,9.352144220989636,6.9312489958582395,31.90700000000652
312274.8917,4.061530571546092,6.759037417731353,8.773719917612956,6.52732750394249,31.90799999999581
312274.8927,3.0031086852971782,6.5063148545661,7.880573304896804,5.86615935911131,31.909000000043306
312274.8937,1.7874096185551855,6.100646651806723,6.754492695775524,5.024970626596416,31.910000000032596
312274.8947,0.5064468180014053,5.605902328544911,5.484969614414636,4.087132964063657,31.911000000021886
312274.8957,-0.7499569913189575,5.083394659974554,4.161463361950452,3.134420195162335,31.912000000011176
312274.8967,-1.9015835533513374,4.5859062121412215,2.86608078300511,2.239768106448072,31.913000000000466
312274.8977,-2.884050341248248,4.152870067930312,1.667334072369294,1.4612178314741489,31.913999999989755
312274.8987,-3.6533087882894346,3.807164853956655,0.6155220139768751,0.8375960388624865,31.915000000037253
312274.8997,-4.188034624908666,3.553815702662034,-0.2598880650826544,0.386305385043458,31.916000000026543
312274.9007,-4.489745240755056,3.3806965520160976,-0.950702300455469,0.1033843489570317,31.917000000015832
312274.9017,-4.580702187634543,3.261124827027383,-1.4683067610017981,-0.034232050240827684,31.918000000005122
312274.9027,-4.499871667791863,3.1580474316678515,-1.840087415060841,-0.06453753756010185,31.918999999994412
312274.9037,-4.297401187741758,3.02935619901855,-2.1043935438694072,-0.03484043180473615,31.92000000004191
312274.9047,-4.028208579081747,2.833757431848246,-2.3046104131158223,0.004676753405773593,31.9210000000312
312274.9057,-3.745357120596395,2.5365651147420776,-2.4829848974184046,0.007534626839054679,31.92200000002049
312274.9067,-3.4939003880539707,2.1147961616773068,-2.674860523773654,-0.06302464430852586,31.92300000000978
312274.9077,-3.305822256510393,1.5610176984471833,-2.9039253702090653,-0.22921009210192883,31.92399999999907
312274.9087,-3.1965774489095176,0.8855236439509027,-3.178963221160982,-0.4955514117420456,31.925000000046566
312274.9097,-3.163568502582932,0.11658800680074556,-3.4924370239871196,-0.8477934225975267,31.926000000035856
312274.9107,-3.186693185476232,-0.7012616366139479,-3.8210404076999507,-1.2539340286882485,31.927000000025146
312274.9117,-3.2308825344988215,-1.5108046240014443,-4.128147294588422,-1.6673028681851627,31.928000000014435
312274.9127,-3.250345218125779,-2.2471872387725846,-4.367892091697695,-2.0313671526014954,31.929000000003725
312274.9137,-3.1940592466836777,-2.8439919903851534,-4.490443344061318,-2.285772194014034,31.929999999993015
312274.9147,-3.0119245497567633,-3.239718213832004,-4.447908989353932,-2.37299470013889,31.931000000040513
312274.9157,-2.6609222634077248,-3.384027539261503,-4.200243905952776,-2.2449200478193054,31.932000000029802
312274.9167,-2.1106253996770112,-3.243123397634195,-3.7205270109968582,-1.868657179663405,31.933000000019092
312274.9177,-1.3474709597733583,-2.8037121842706654,-2.999036086909683,-1.2309763820543818,31.934000000008382
312274.9187,-0.3773289259531714,-2.075127508850678,-2.045667734543965,-0.34088900346024975,31.93499999999767
312274.9197,0.7739236245796818,-1.089375157472346,-0.8904155033012947,0.7699290132444772,31.93600000004517
312274.9207,2.0619120817913936,0.10094218924147638,0.4181851671888618,2.0489541398878446,31.93700000003446
312274.9217,3.4272335403161795,1.4266545017508658,1.8165305499644615,3.4267336063856315,31.93800000002375
312274.9227,4.800560399177743,2.8076500895196124,3.2310302861268103,4.822554700757725,31.93900000001304
312274.9237,6.10888341241691,4.159580897068109,4.584320541569569,6.151336883117624,31.94000000000233
312274.9247,7.282278515880999,5.401021883409202,5.802012567156792,7.331091976450858,31.940999999991618
312274.9257,8.260522132543633,6.460410297835169,6.819319684744607,8.29023502892344,31.942000000039116
312274.9267,8.99888743397421,7.282107365324928,7.586909878790002,8.974036178522887,31.943000000028405
312274.9277,9.472528781500227,7.83100560860082,8.075400306769717,9.349581538711004,31.944000000017695
312274.9287,9.678996199235383,8.095242141561227,8.278037647602712,9.40875141200791,31.945000000006985
312274.9297,9.638603178706047,8.08675860909721,8.211281964962122,9.168913487408389,31.945999999996275
312274.9307,9.392581619411711,7.8396545921250596,7.913214735856294,8.671248680646565,31.947000000043772
312274.9317,8.99917655584462,7.40649324295106,7.439903993338646,7.9768564612854895,31.948000000033062
312274.9327,8.528038879306399,6.852915043027937,6.86006026495132,7.161002443663713,31.94900000002235
312274.9337,8.053446120313374,6.2510786560422344,6.2484863220185,6.306052505162068,31.95000000001164
312274.9347,7.647002336538307,5.672560935134441,5.678944869693039,5.4937668604905765,31.95100000000093
312274.9357,7.370526009810431,5.181400127729754,5.217129062246168,4.797691568403126,31.95199999999022
312274.9367,7.269823507181173,4.82795203540581,4.914414866527599,4.276377422423692,31.95300000003772
312274.9377,7.369965793333613,4.644149611721561,4.803002080342148,3.9680776104999893,31.95400000002701
312274.9387,7.672545112506701,4.640619837607269,4.892919014078281,3.88743339837692,31.955000000016298
312274.9397,8.155199731023343,4.805930925098022,5.1711871007034125,4.024465106384287,31.956000000005588
312274.9407,8.773476718547663,5.108035511041977,5.6032332905802935,4.345962419583991,31.956999999994878
312274.9417,9.464876284433933,5.497761674417508,6.136420253235427,4.799135298822747,31.958000000042375
312274.9427,10.15470841825045,5.914004158804978,6.705358372591667,5.317167122935283,31.959000000031665
312274.9437,10.763214307480048,6.290102544150413,7.238489417688204,5.826126628420655,31.960000000020955
312274.9447,11.213278734637298,6.560777454566845,7.665306664645807,6.252562823344807,31.961000000010245
312274.9457,11.437997902408116,6.668941523033655,7.923512463043889,6.531040325746727,31.961999999999534
312274.9467,11.387376173643172,6.571714108142478,7.965418150300247,6.610878112099954,31.962999999988824
312274.9477,11.033504452200209,6.245046529327117,7.762962601029525,6.461432011833982,31.96400000003632
312274.9487,10.373714953754506,5.6865003233508675,7.310857755427634,6.075402990136571,31.96500000002561
312274.9497,9.4313983844742,4.9159015313572025,6.627549476006638,5.469845568643813,31.9660000000149
312274.9507,8.254391702465663,3.9738017237444194,5.753892616408783,4.684774926335699,31.96700000000419
312274.9517,6.911076279689226,2.917891105355891,4.749659829462521,3.779505444995305,31.96799999999348
312274.9527,5.4845450375926905,1.8177096591019972,3.688212961125221,2.8270748503284406,31.969000000040978
312274.9537,4.065381828075576,0.7481692676180365,2.649843516826072,1.907295012485086,31.970000000030268
312274.9547,2.7437290673461385,-0.21748325403750646,1.7144173569967913,1.0991046145837864,31.971000000019558
312274.9557,1.6013875115386522,-1.0145767660383131,0.9540259468233889,0.47296712265397084,31.972000000008848
312274.9567,0.7046884740086484,-1.5931260594553012,0.42634560567870994,0.08405308080016137,31.972999999998137
312274.9577,0.09880404024599893,-1.922545147089615,0.16933736003899444,-0.033130897172349114,31.974000000045635
312274.9587,-0.19597783724641812,-1.9945027805994844,0.197789913525989,0.13185450551787353,31.975000000034925
312274.9597,-0.18567564447813983,-1.8236403892723292,0.5020295975617455,0.5642741539172944,31.976000000024214
312274.9607,0.09838240842142046,-1.4460811778921103,1.0489113806624346,1.2255115971889319,31.977000000013504
312274.9617,0.6028585859268112,-0.9158748250692561,1.7849845511724467,2.0566319614284008,31.978000000002794
312274.9627,1.2576736772998278,-0.29972399240667325,2.6415170370779473,2.983862339245192,31.978999999992084
312274.9637,1.982720381780917,0.32949306256938676,3.5408839084229933,3.925450332707647,31.98000000003958
312274.9647,2.695363953784323,0.8997715513707553,4.403695779674987,4.799227339578262,31.98100000002887
312274.9657,3.318000899378523,1.3469124855232113,5.155974190164692,5.5301353052097975,31.98200000001816
312274.9667,3.7849466160609198,1.6206609429911856,5.735680204577639,6.05698068874514,31.98300000000745
312274.9677,4.047994057937134,1.6894502617572706,6.097969430314057,6.3377568578094134,31.98399999999674
312274.9687,4.080120702948144,1.543288203688416,6.218674761782082,6.353018466237394,31.985000000044238
312274.9697,3.8770069655840844,1.1945026557242726,6.095694831172623,6.106984646355436,31.986000000033528
312274.9707,3.456247461117046,0.6762737254091078,5.748174031047731,5.626273109935894,31.987000000022817
312274.9717,2.854365751119106,0.03909571806006351,5.213578690930351,4.956402388897076,31.988000000012107
312274.9727,2.1219608870197235,-0.6544846957697394,4.542982096028529,4.156421349692336,31.989000000001397
312274.9737,1.3174988568089265,-1.3363386077649624,3.795048123981931,3.29221194067945,31.989999999990687
312274.9747,0.5003957923356933,-1.9397987180083827,3.029331963726218,2.429144441141281,31.991000000038184
312274.9757,-0.2758906283403089,-2.406585046363073,2.2995840111448937,1.6248310489520803,31.992000000027474
312274.9767,-0.9700466036063945,-2.6929307787581043,1.6477429124780953,0.9227167591113336,31.993000000016764
312274.9777,-1.5577218640325274,-2.774303089505961,1.0992357714633192,0.3471666123616523,31.994000000006054
312274.9787,-2.0344772465478242,-2.6482493771205533,0.6600743061415885,-0.09943686316156429,31.994999999995343
312274.9797,-2.4165407346285916,-2.3350808050833702,0.31605779291814257,-0.4372688223934213,31.99600000004284
312274.9807,-2.7392716910245762,-1.8763147254338257,0.03418430783795768,-0.7072216317138073,31.99700000003213
312274.9817,-3.0534630533268023,-1.3310151167670299,-0.23384849626502552,-0.9667994981979071,31.99800000002142
312274.9827,-3.4198296256910536,-0.7703744660597956,-0.5463815103073142,-1.2841247066515291,31.99900000001071
312274.9837,-3.9022158397493825,-0.2710517375373869,-0.9652781435995563,-1.7306224433105701,32.0
312274.9847,-4.560190224405728,0.09209740724401767,-1.5487909296805509,-2.373087683423635,32.00099999998929
312274.9857,-5.441763040389523,0.2532019257789875,-2.344515818121632,-3.2659066590858266,32.00200000003679
312274.9867,-6.576961092564869,0.1617792720961302,-3.383139069437973,-4.444200029462783,32.00300000002608
312274.9877,-7.972919578980745,-0.21225333227034698,-4.673612888675852,-5.918575269019848,32.00400000001537
312274.9887,-9.611011886987468,-0.8754421895346519,-6.200264951163598,-7.672029373151147,32.00500000000466
312274.9897,-11.446347724062257,-1.809837238462767,-7.922166285112464,-9.659343628879997,32.005999999993946
312274.9907,-13.409746122768937,-2.9743024838657997,-9.774868913749982,-11.809078919798042,32.007000000041444
312274.9917,-15.412054197660552,-4.307972628921708,-11.674399716204237,-14.028035137968859,32.008000000030734
312274.9927,-17.350457751599567,-5.735526409980579,-13.523181802998774,-16.20780521623981,32.00900000002002
312274.9937,-19.116237610693375,-7.173773837872065,-15.217370048456447,-18.232855408978153,32.01000000000931
312274.9947,-20.603284478490526,-8.538930087036421,-16.654951065771833,-19.989417799736934,32.0109999999986
312274.9957,-21.71660879702964,-9.75388513545109,-17.743882971644805,-21.37440254896989,32.0120000000461
312274.9967,-22.380078004498344,-10.75478152105538,-18.40954395007829,-22.30353360360596,32.01300000003539
312274.9977,-22.54268214928623,-11.49628231617466,-18.600821443545048,-22.717982785111346,32.01400000002468
312274.9987,-22.182763516179495,-11.955040739518582,-18.29429965074481,-22.588916462340947,32.01500000001397
312274.9997,-21.30983382728019,-12.131059042996979,-17.496179693517092,-21.919562976571548,32.01600000000326
312275.0007,-19.96382565971939,-12.04683018886639,-16.241777246540007,-20.74463896562487,32.01699999999255
312275.0017,-18.21186156104938,-11.744371257066263,-14.592666300004973,-19.12721665722827,32.01800000004005
312275.0027,-16.14285222983326,-11.28046146577888,-12.631753506782248,-17.153348710181138,32.01900000002934
312275.0037,-13.860432257804549,-10.720570263852347,-10.456754570517528,-14.924969893799641,32.02000000001863
312275.0047,-11.474889518043948,-10.13208535990274,-8.172684549927418,-12.551746571004887,32.021000000007916
312275.0057,-9.094828393113488,-9.57751471569858,-5.884054577986771,-10.142631347084295,32.021999999997206
312275.0067,-6.819319925487416,-9.10833428634188,-3.687480990587485,-7.797893494058011,32.0230000000447
312275.0077,-4.7312328377111,-8.760084985175242,-1.6653584724145891,-5.602335111185696,32.02400000003399
312275.0087,-2.8923144160118874,-8.549194814021261,0.11886756540208185,-3.6202748667489315,32.02500000002328
312275.0097,-1.3404120706337284,-8.471827965068742,1.6234606484428638,-1.8926985541850805,32.02600000001257
312275.0107,-0.08901271410095941,-8.504859175408258,2.8290160350396314,-0.43675681486828366,32.02700000000186
312275.0117,0.8709509348110986,-8.608858787960463,3.7369909398575203,0.7524430760001424,32.02799999999115
312275.0127,1.5672979630240236,-8.732772845338829,4.366391901351159,1.6980294669205442,32.02900000003865
312275.0137,2.0412619451510636,-8.819812970371682,4.749046362107573,2.436015187240529,32.03000000002794
312275.0147,2.341221982894869,-8.813949525833733,4.924017404763903,3.0090204532398066,32.03100000001723
312275.0157,2.5161856307754147,-8.666340609358281,4.931794165251179,3.4597685675708316,32.03200000000652
312275.0167,2.6097180460360394,-8.341034912734552,4.80889876880105,3.825063148971892,32.03299999999581
312275.0177,2.6549524381443255,-7.819357912106679,4.5834932761841225,4.1308937015274,32.03400000004331
312275.0187,2.671193871696753,-7.102521316921002,4.272453227632412,4.3891890054224945,32.035000000032596
312275.0197,2.6624543209782354,-6.212172429728443,3.88021001550485,4.5965580896961455,32.036000000021886
312275.0207,2.6180492629176912,-5.18880571835127,3.3994693265269786,4.73514463068037,32.037000000011176
312275.0217,2.515166001155792,-4.088173255739509,2.813707151590124,4.775494096326941,32.038000000000466
312275.0227,2.3231035260164683,-2.9760326150996086,2.1011493250085005,4.681116668533909,32.038999999989755
312275.0237,2.0087042393436514,-1.9217403559163062,1.2397751767586516,4.4142447585803986,32.04000000003725
312275.0247,1.542367433768713,-0.9913195585523094,0.21276761663368984,3.9421504531976144,32.04100000002654
312275.0257,0.9039662614623416,-0.24068889601894314,-0.9862269109407807,3.2433191413421776,32.04200000001583
312275.0267,0.08799111668011662,0.29026762523559035,-2.348658301723853,2.312778149199342,32.04300000000512
312275.0277,-0.8926869458180108,0.5821863840798764,-3.848009797192965,1.165953619359949,32.04399999999441
312275.0287,-2.0049056839207955,0.6387965801510666,-5.438538246548331,-0.1594318683234969,32.04500000004191
312275.0297,-3.1954437788800543,0.48729272137037855,-7.056066474011764,-1.6037177762997834,32.0460000000312
312275.0307,-4.393470432401552,0.17643196928166172,-8.620870577799852,-3.087993596983157,32.04700000002049
312275.0317,-5.515061928447161,-0.22749848502603526,-10.042490561394496,-4.518955524534322,32.04800000000978
312275.0327,-6.469421175487708,-0.6464910187919093,-11.226091201459226,-5.795549131991381,32.04899999999907
312275.0337,-7.16625600405524,-0.9978761689402358,-12.079831712053618,-6.816827988120495,32.050000000046566
312275.0347,-7.523643114295073,-1.2019772505854676,-12.522584681467984,-7.490324054628705,32.051000000035856
312275.0357,-7.475640212259019,-1.1896453892455232,-12.49128922852409,-7.740158593539327,32.052000000025146
312275.0367,-6.978915914160037,-0.90896534510741,-11.947236585504895,-7.514129369988066,32.053000000014435
312275.0377,-6.017745316767883,-0.3304967664201769,-10.880667895285441,-6.789091099858063,32.054000000003725
312275.0387,-4.606861609827742,0.5494489880830621,-9.313206743348257,-5.574094042493097,32.054999999993015
312275.0397,-2.7918473000924156,1.707812570896258,-7.297839633321244,-3.9109464823760676,32.05600000004051
312275.0407,-0.6469740641754583,3.096172748653946,-4.916378292477633,-1.8721014570503247,32.0570000000298
312275.0417,1.7293637315923895,4.644392620199955,-2.2745673660083328,0.44398601912807417,32.05800000001909
312275.0427,4.2212529897732205,6.266191418844287,0.5047822593701949,2.9196514755284255,32.05900000000838
312275.0437,6.703344496170457,7.866127448265537,3.290071402582608,5.426384876027358,32.05999999999767
312275.0447,9.049717633950497,9.347347467631165,5.9499073127460935,7.834042948063237,32.06100000004517
312275.0457,11.14275847056609,10.61938976939909,8.362053478905914,10.020110443695662,32.06200000003446
312275.0467,12.881282844078703,11.605328676730641,10.421576395730261,11.878209566082587,32.06300000002375
312275.0477,14.187208871486193,12.247616919865536,12.04750524015444,13.325130866646557,32.06400000001304
312275.0487,15.010221425864001,12.512112367473923,13.187457989561667,14.305801032392493,32.06500000000233
312275.0497,15.330061136910086,12.389953964622553,13.819875439893977,14.7957992631637,32.06599999999162
312275.0507,15.156293906585736,11.897160860082144,13.953724888004967,14.801265289186619,32.067000000039116
312275.0517,14.525652142879013,11.072048049842968,13.625766861447005,14.356286060044207,32.068000000028405
312275.0527,13.497263163185396,9.970759963197422,12.895699097695408,13.5180811620358,32.069000000017695
312275.0537,12.14627190631109,8.66140000780433,11.839680976201102,12.360506667127526,32.070000000006985
312275.0547,10.556505865557362,7.217362084223042,10.542880904444704,10.96654430583709,32.070999999996275
312275.0557,8.812906691888449,5.710537237990143,9.091765727689584,9.420523711393649,32.07200000004377
312275.0567,6.994458213601492,4.205068731238487,7.56685816119299,7.800832666631482,32.07300000003306
312275.0577,5.168274665439392,2.7522623036611957,6.036625396681159,6.173803698093615,32.07400000002235
312275.0587,3.3853826788193233,1.3871322353084294,4.553036046572293,4.589332125901339,32.07500000001164
312275.0597,1.6785492951055137,0.12689085944518397,3.1491462031018025,3.078594416068008,32.07600000000093
312275.0607,0.06229412871829165,-1.028513182706486,1.8388661999592497,1.6540151610682043,32.07699999999022
312275.0617,-1.4650018037137351,-2.093914138366031,0.618838388761499,0.3113982877375289,32.07800000003772
312275.0627,-2.9171927259579986,-3.094811488700081,-0.5278553091005947,-0.9660836775157333,32.07900000002701
312275.0637,-4.3151547637853565,-4.062088796769791,-1.626618376441486,-2.202537273592465,32.0800000000163
312275.0647,-5.680879285026357,-5.026161543660282,-2.7054923784834806,-3.4232648883810453,32.08100000000559
312275.0657,-7.031558346604908,-6.011205210573104,-3.7892043200230066,-4.648654929537248,32.08199999999488
312275.0667,-8.374346342388828,-7.030107436156602,-4.893779528043183,-5.888749580954087,32.083000000042375
312275.0677,-9.702410692062996,-8.080715175786965,-6.022326722679933,-7.139122255706548,32.084000000031665
312275.0687,-10.992750346811013,-9.143816628783101,-7.162476285368431,-8.378560017334076,32.085000000020955
312275.0697,-12.206077342016025,-10.183121270653611,-8.285778253674794,-9.568858330310501,32.086000000010245
312275.0707,-13.288841839371063,-11.147297112641569,-9.349160725504142,-10.65681525631855,32.086999999999534
312275.0717,-14.177256425501701,-11.973912562599375,-10.29833269298826,-11.578281586829798,32.087999999988824
312275.0727,-14.802963243508062,-12.59493201015737,-11.072809474119666,-12.26390539728622,32.08900000003632
312275.0737,-15.099809018955593,-12.943249246498867,-11.61206444283509,-12.646025915406916,32.09000000002561
312275.0747,-15.011066130656577,-12.959627566730788,-11.862185177836103,-12.666040853123963,32.0910000000149
312275.0757,-14.4963754703049,-12.599361550170581,-11.782348165400482,-12.28150672798639,32.09200000000419
312275.0767,-13.537695536485117,-11.837988729476997,-11.35043046436625,-11.472239990560107,32.09299999999348
312275.0777,-12.14362166633304,-10.67545874019229,-10.567149228114094,-10.244767627137833,32.09400000004098
312275.0787,-10.351582240541548,-9.13830570322572,-9.458253922686584,-8.634621849533925,32.09500000003027
312275.0797,-8.227611594287433,-7.279553381876003,-8.074478666072201,-6.706170647157322,32.09600000001956
312275.0807,-5.863623799790043,-5.176294430199778,-6.489175710024881,-4.549905445466486,32.09700000000885
312275.0817,-3.3723459005675096,-2.925104395940288,-4.793774963230714,-2.2773467700832892,32.09799999999814
312275.0827,-0.8802909878428052,-0.6356568590373931,-3.09142680658319,-0.013955490327332384,32.099000000045635
312275.0837,1.480660702135604,1.576921743354396,-1.4893655218736386,2.1093710466237034,32.100000000034925
312275.0847,3.5823688925331645,3.60029713029108,-0.090660766272607,3.965500485068777,32.101000000024214
312275.0857,5.309454536873697,5.333051724945096,1.0139081950339557,5.440175818049646,32.102000000013504
312275.0867,6.567463160564523,6.691976545897635,1.7531231405199121,6.440248662008414,32.103000000002794
312275.0877,7.289472211700135,7.617893579890487,2.0810821252938427,6.900325997691666,32.103999999992084
312275.0887,7.4405834423497,8.079507093394934,1.9809140576863695,6.787263909262298,32.10500000003958
312275.0897,7.019932168142501,8.074964627591521,1.4661126582124508,6.102137574233599,32.10600000002887
312275.0907,6.060069561963935,7.631020127463066,0.5793676552826479,4.87954641324122,32.10700000001816
312275.0917,4.623810484229403,6.799912414035488,-0.6109994038903628,3.184354857223856,32.10800000000745
312275.0927,2.798865201079927,5.654280817756003,-2.016668083968885,1.1061994934113364,32.10899999999674
312275.0937,0.6907672524032483,4.280616276280078,-3.536506057160872,-1.2477095664492743,32.11000000004424
312275.0947,-1.5852465620875298,2.771873755166531,-5.064656626055795,-3.7608200717947446,32.11100000003353
312275.0957,-3.9126679348224824,1.219938466416214,-6.498796715769164,-6.315749040010636,32.11200000002282
312275.0967,-6.181714859308184,-0.29136201348119245,-7.74782822093613,-8.802314362192776,32.11300000001211
312275.0977,-8.296211135899378,-1.6920745024209287,-8.73832838921653,-11.124392361937947,32.1140000000014
312275.0987,-10.178788729054403,-2.930267047181035,-9.419211198038724,-13.205038259337861,32.11499999999069
312275.0997,-11.774030967067613,-3.9741802540993887,-9.764228927104398,-14.98948988904137,32.116000000038184
312275.1007,-13.049384933986893,-4.812260285281326,-9.772153929426784,-16.4458921462015,32.117000000027474
312275.1017,-13.993894318401614,-5.451162862528203,-9.464704338843728,-17.563808798153584,32.118000000016764
312275.1027,-14.615017389039036,-5.912018259171921,-8.882492316395032,-18.35080673809408,32.119000000006054
312275.1037,-14.933977668659244,-6.225416606705469,-8.079458572578353,-18.82758387827543,32.11999999999534
312275.1047,-14.980229417927518,-6.425694286047915,-7.116394434246182,-19.02224739847685,32.12100000004284
312275.1057,-14.785693252769988,-6.545163878357009,-6.054229513150046,-18.964420806800398,32.12200000003213
312275.1067,-14.379422297654942,-6.608926227909359,-4.947771951162236,-18.67985947255939,32.12300000002142
312275.1077,-13.783296244598084,-6.630834256683942,-3.8405288422946433,-18.18618527086834,32.12400000001071
312275.1087,-13.00921637893679,-6.611051369229188,-2.761113075156411,-17.490219090662638,32.125
312275.1097,-12.05810201063841,-6.53547546425338,-1.7215719133631044,-16.58720885854469,32.12599999998929
312275.1107,-10.920785607923003,-6.37710008527008,-0.7177694130043017,-15.46203901094948,32.12700000003679
312275.1117,-9.580691116051863,-6.099177227159632,0.26826030635660963,-14.092286672894403,32.12800000002608
312275.1127,-8.017979277161984,-5.659852671968149,1.264277313593558,-12.452782747925912,32.12900000001537
