TimeStamp,ECR,FCR,ECU,FCU,time_index
312293.9837,8.287544005511144,-4.726032564791627,4.843143050105168,-3.913581087730114,51.0
312293.9847,9.726037663748569,-3.899254356078261,6.291026577666918,-2.210293147435107,51.00099999998929
312293.9857,10.84958238904912,-3.163642838681636,7.450718719471575,-0.5833220991762227,51.00200000003679
312293.9867,11.639878072320617,-2.5301274198903663,8.302219068192006,0.9376984239980218,51.00300000002608
312293.9877,12.106500082537783,-1.9877323038302528,8.852103963753192,2.3452386628653548,51.00400000001537
312293.9887,12.284153162162424,-1.5063220459455637,9.131074074778066,3.651720144943946,51.00500000000466
312293.9897,12.227712313316893,-1.0413282983657037,9.189350800641932,4.885269843941306,51.005999999993946
312293.9907,12.005533608150374,-0.5399855469893468,9.090377494659249,6.083845784407501,51.007000000041444
312293.9917,11.691678508811911,0.05154263521516813,8.903440425055537,7.2883582622310215,51.008000000030734
312293.9927,11.357794888843245,0.7808523574500528,8.695924519309994,8.535508881370083,51.00900000002002
312293.9937,11.065426913250583,1.6825280938438847,8.525950574197038,9.851096602133431,51.01000000000931
312293.9947,10.859481459393397,2.7725858379797517,8.43610067882684,11.244493290846972,51.0109999999986
312293.9957,10.763465126289923,4.044690029614879,8.44883094812189,12.70487538754884,51.0120000000461
312293.9967,10.77693404353057,5.468534418828687,8.56400572458307,14.199624565980042,51.01300000003539
312293.9977,10.875385230483449,6.990570295316134,8.758781157673472,15.675095617495206,51.01400000002468
312293.9987,11.012583763647417,8.537041098482451,8.989838491551614,17.059715233951138,51.01500000001397
312293.9997,11.125087090547835,10.019061982355101,9.197740510599848,18.269143848053307,51.01600000000326
312294.0007,11.138518903469889,11.339287692456248,9.312980334285088,19.213026887869574,51.01699999999255
312294.0017,10.974980110086697,12.399560910433943,9.263129804510767,19.802701887695573,51.01800000004005
312294.0027,10.56087934783949,13.10884052977189,8.980390598936788,19.959129559126012,51.01900000002934
312294.0037,9.834430076480292,13.390683924830677,8.408814797739787,19.620289826346724,51.02000000001863
312294.0047,8.75209863972099,13.189601384759612,7.510496180212776,18.747330651972522,51.021000000007916
312294.0057,7.2933938152943965,12.475709951304678,6.2701353696880515,17.328873663594695,51.021999999997206
312294.0067,5.463552594859617,11.247277060576288,4.6975408848937095,15.383054779642562,51.0230000000447
312294.0077,3.293882954386497,9.530945545570113,2.8278284823914444,12.957093190958705,51.02400000003399
312294.0087,0.8397518883827106,7.379650970452737,0.7193032190613126,10.124417145738073,51.02500000002328
312294.0097,-1.8235663212069733,4.868458509180131,-1.5507692625069673,6.979607044945542,51.02600000001257
312294.0107,-4.60676286888458,2.0887386385466473,-3.892095196406577,3.631622748230411,51.02700000000186
312294.0117,-7.413508426947877,-0.8587497392258397,-6.2084222501905275,0.19594263701252387,51.02799999999115
312294.0127,-10.147925700063773,-3.8712077289107785,-8.405076049567135,-3.2136586732152823,51.02900000003865
312294.0137,-12.721802816801032,-6.850888510299093,-10.396255891769705,-6.492938545281847,51.03000000002794
312294.0147,-15.060865628488795,-9.711285767069114,-12.11141320663873,-9.553909851744633,51.03100000001723
312294.0157,-17.10952956610932,-12.381874773502998,-13.500133049089479,-12.329862736739964,51.03200000000652
312294.0167,-18.833710491281096,-14.811018125381052,-14.535091027206596,-14.77825835040211,51.03299999999581
312294.0177,-20.221472883211444,-16.96684000693634,-15.212850226225262,-16.88127946976089,51.03400000004331
312294.0187,-21.281512755660195,-18.836081610519415,-15.552475688783195,-18.644053554002586,51.035000000032596
312294.0197,-22.039690017758524,-20.421154913830264,-15.59215674310561,-20.090791155459783,51.036000000021886
312294.0207,-22.534018964099616,-21.735792041330278,-15.384218988362976,-21.259284392496124,51.037000000011176
312294.0217,-22.808676985506004,-22.799825013200298,-14.989059336952282,-22.194366646236656,51.038000000000466
312294.0227,-22.90768550693373,-23.63371225544627,-14.468634528598956,-22.94103055034864,51.038999999989755
312294.0237,-22.868944414949066,-24.253445895774348,-13.880166811531945,-23.537927486536045,51.04000000003725
312294.0247,-22.71925931667764,-24.66642610520598,-13.270697236345802,-24.011925856577157,51.04100000002654
312294.0257,-22.470894243576048,-24.868780614019435,-12.673021040685173,-24.374292156956564,51.04200000001583
312294.0267,-22.120021686619697,-24.84445010744903,-12.103390927140053,-24.618889732773514,51.04300000000512
312294.0277,-21.64724329656204,-24.566169478692554,-11.56118784039224,-24.722581912367545,51.04399999999441
312294.0287,-21.020138131930807,-23.99827018712699,-11.030553973182894,-24.64779971207774,51.04500000004191
312294.0297,-20.197582698264842,-23.10103093773447,-10.483779788572512,-24.347011912122127,51.0460000000312
312294.0307,-19.1353995381611,-21.83613260696517,-9.8860561806486,-23.768639063882375,51.04700000002049
312294.0317,-17.792747668842278,-20.17264619347117,-9.201062565768945,-22.863802324006983,51.04800000000978
312294.0327,-16.138583243653525,-18.092912609730934,-8.396775695750332,-21.59320785241419,51.04899999999907
312294.0337,-14.15750117380835,-15.597667738644084,-7.450860867860868,-19.93344683462449,51.050000000046566
312294.0347,-11.854320169770258,-12.709826353170728,-6.355049253220198,-17.88204213945797,51.051000000035856
312294.0357,-9.256889959350737,-9.476458732258576,-5.11800806214788,-15.460690310984905,51.052000000025146
312294.0367,-6.4167691108917255,-5.9686626252840576,-3.7663639292381617,-12.71632057374641,51.053000000014435
312294.0377,-3.407628411413183,-2.2792342836588144,-2.34372889881817,-9.719803922076741,51.054000000003725
312294.0387,-0.32145789084952825,1.4817440116798,-0.9077838533064364,-6.562374500176152,51.054999999993015
312294.0397,2.7371266104495593,5.193077100569332,0.47432439102130786,-3.3500499219259954,51.05600000004051
312294.0407,5.65799048574961,8.72989111616249,1.7318389856164476,-0.1965349113802304,51.0570000000298
312294.0417,8.333369053812637,11.971698329307827,2.7969336192915213,2.7847557790100788,51.05800000001909
312294.0427,10.66582119246027,14.810390897721671,3.6112902831474756,5.488828766313418,51.05900000000838
312294.0437,12.575515518817177,17.157457031626155,4.132051722792591,7.82665105100573,51.05999999999767
312294.0447,14.006172024344346,18.949776004522494,4.336537093953177,9.731402000622044,51.06100000004517
312294.0457,14.929103355937077,20.153473345571133,4.225221852118936,11.162863190443797,51.06200000003446
312294.0467,15.344975706302082,20.76549273911058,3.822646247783924,12.109546533479653,51.06300000002375
312294.0477,15.283122673813308,20.812749977579966,3.176115229882527,12.588375727311812,51.06400000001304
312294.0487,14.798475873010593,20.348956783851698,2.3522667952258955,12.641968880474623,51.06500000000233
312294.0497,13.96640118705732,19.449417057485128,1.4317949003147386,12.333798617836978,51.06599999999162
312294.0507,12.87592746091751,18.20428440456877,0.5027963838408852,11.741707741057409,51.067000000039116
312294.0517,11.622005827256077,16.710909672716756,-0.3466492677589501,10.950413922335919,51.068000000028405
312294.0527,10.297527895229196,15.065987070331863,-1.0359770618893114,10.043730699158187,51.069000000017695
312294.0537,8.985850803940867,13.358219518438732,-1.4990052898808457,9.097254949539298,51.070000000006985
312294.0547,7.7545245503212,11.662166927676196,-1.6895241147947535,8.172220689479817,51.070999999996275
312294.0557,6.650796987134233,10.033820560014886,-1.5850692705286915,7.311100219426682,51.07200000004377
312294.0567,5.699295971535281,8.508274144641721,-1.188516192458014,6.535357828100403,51.07300000003306
312294.0577,4.902073327843001,7.099654651395158,-0.5273366064370695,5.8455455178952,51.07400000002235
312294.0587,4.240962412931306,5.803252719828478,0.349416820050373,5.223695582055629,51.07500000001164
312294.0597,3.6819728107167378,4.599576344674762,1.3761133212093553,4.637734296874303,51.07600000000093
312294.0607,3.18124433550234,3.4598625900419537,2.4770571173738367,4.047437138610974,51.07699999999022
312294.0617,2.6919278534211046,2.352439273220991,3.5738856078581414,3.4112889205941164,51.07800000003772
312294.0627,2.171267724353286,1.2492457227086509,4.59313924464855,2.6935177029113895,51.07900000002701
312294.0637,1.587139231448663,0.13180706897586675,5.473269902319645,1.8705488489391675,51.0800000000163
312294.0647,0.9233465990940248,-1.0039883516036239,6.1704056863218035,0.9361777828136102,51.08100000000559
312294.0657,0.18310832645475586,-2.144839222803957,6.662307603398681,-0.0951178517323261,51.08199999999488
312294.0667,-0.6096649332322113,-3.259067134991904,6.950126352482032,-1.1871253685903653,51.083000000042375
312294.0677,-1.411475999765667,-4.297887134550927,7.057779243875964,-2.283280624511997,51.084000000031665
312294.0687,-2.162668578825463,-5.198836906944214,7.028997618141253,-3.3104237249075985,51.085000000020955
312294.0697,-2.792881022222977,-5.891069460130727,6.922321909406926,-4.1846249432155425,51.086000000010245
312294.0707,-3.228024150216713,-6.302022418943744,6.804522726579196,-4.818568246815083,51.086999999999534
312294.0717,-3.3981211698141736,-6.36483145103929,6.7430824437672765,-5.129816705582218,51.087999999988824
312294.0727,-3.2452509980983364,-6.025770297361583,6.79846753175478,-5.049184650161031,51.08900000003632
312294.0737,-2.7308122630566616,-5.250983898841316,7.01694775660827,-4.528415747073769,51.09000000002561
312294.0747,-1.8413766189703449,-4.03183602781707,7.424671683694533,-3.546417055492333,51.0910000000149
312294.0757,-0.592522194170603,-2.388313599571693,8.023592933167974,-2.1134221063328016,51.09200000000419
312294.0767,0.9697804621997411,-0.3701050148938111,8.789669224200585,-0.2726395992446956,51.09299999999348
312294.0777,2.7704338564299986,1.944817254839971,9.67354286876321,1.9008289203278383,51.09400000004098
312294.0787,4.709089792102101,4.45404945995979,10.603677448694233,4.303770613810088,51.09500000003027
312294.0797,6.666353588244927,7.036758930427911,11.491693335889657,6.811063891103795,51.09600000001956
312294.0807,8.511816872480942,9.561351058573951,12.239436709200843,9.283802657140743,51.09700000000885
312294.0817,10.113249047585292,11.894162127698708,12.747152651189596,11.578668289569958,51.09799999999814
312294.0827,11.346169260819076,13.908445229508711,12.922028369057136,13.55776347084249,51.099000000045635
312294.0837,12.102984764976902,15.492891139515171,12.686337394592199,15.09808321988802,51.100000000034925
312294.0847,12.300921066607778,16.558971337897184,11.98445288000195,16.099836075569133,51.101000000024214
312294.0857,11.888080077455198,17.046501628430295,10.788103928161576,16.492938272569003,51.102000000013504
312294.0867,10.8471336725655,16.926990933945028,9.099412797876871,16.241174889247592,51.103000000002794
312294.0877,9.196374950530219,16.204544519036553,6.951456789598125,15.343737490891373,51.103999999992084
312294.0887,6.988087361595356,14.914314186365571,4.406326674737005,13.834086758598142,51.10500000003958
312294.0897,4.304429964713906,13.118708346268113,1.5508817248757554,11.776327939359385,51.10600000002887
312294.0907,1.2512528372233374,10.901771179997699,-1.5093920704110069,9.259503834676787,51.10700000001816
312294.0917,-2.049570083409437,8.362293849493913,-4.657848650453597,6.390384054400804,51.10800000000745
312294.0927,-5.468588547328624,5.6063176312778165,-7.774792611207632,3.2854444006918584,51.10899999999674
312294.0937,-8.87725523048421,2.7397204484389426,-10.745510626596374,0.06277645490353466,51.11000000004424
312294.0947,-12.155713092671695,-0.13845748336158417,-13.467526982945296,-3.1653584686779372,51.11100000003353
312294.0957,-15.199260327205426,-2.9413916738872565,-15.856479244640973,-6.2987109295415395,51.11200000002282
312294.0967,-17.923013024458893,-5.598148292040607,-17.85015845986295,-9.253492131336678,51.11300000001211
312294.0977,-20.26447813020349,-8.055435937953037,-19.410447152935614,-11.964814572563458,51.1140000000014
312294.0987,-22.18396386224461,-10.277417838493724,-20.523098500178275,-14.387063803977464,51.11499999999069
312294.0997,-23.66296986577956,-12.2437680102454,-21.19551054396547,-16.492354520348293,51.116000000038184
312294.1007,-24.700893696411264,-13.946331077821531,-21.45283927881787,-18.26741613859023,51.117000000027474
312294.1017,-25.31054473431748,-15.384880238851009,-21.332945429903344,-19.70940378128388,51.118000000016764
312294.1027,-25.513056586120335,-16.562548127450736,-20.880767311550155,-20.82122548945426,51.119000000006054
312294.1037,-25.332825301262027,-17.481523462176362,-20.142747359268025,-21.60700664043636,51.11999999999534
312294.1047,-24.793070699554004,-18.139561137676875,-19.16191016117132,-22.068275716864868,51.12100000004284
312294.1057,-23.91252586703271,-18.52775003745985,-17.97409900302998,-22.20135637030296,51.12200000003213
312294.1067,-22.70361576428724,-18.62983240169892,-16.605736117417614,-21.996300085181634,51.12300000002142
312294.1077,-21.17230540369169,-18.423186919623237,-15.073294083106735,-21.43750780077622,51.12400000001071
312294.1087,-19.319600261035323,-17.881393807406845,-13.384470766399062,-20.505987249570673,51.125
312294.1097,-17.14448720062191,-16.978114172300874,-11.54086807756279,-19.1829967113059,51.12599999998929
312294.1107,-14.64793346537778,-15.691857324994537,-9.541805477207912,-17.45465594305969,51.12700000003679
312294.1117,-11.837431981686226,-14.011094990161718,-7.388770062529379,-15.316979119434912,51.12800000002608
312294.1127,-8.731506854358132,-11.939122750925495,-5.08992951052402,-12.780716109456483,51.12900000001537
312294.1137,-5.3635813712681655,-9.498073062717562,-2.6641200121572073,-9.875384901925587,51.13000000000466
312294.1147,-1.784663596701126,-6.731550991388988,-0.14377021523041758,-6.651940449200385,51.130999999993946
312294.1157,1.935583334815931,-3.705487336631349,2.4236706760709863,-3.1836479140900305,51.132000000041444
312294.1167,5.709658883231781,-0.5069721234071349,4.976077820085944,0.4351005764915731,51.133000000030734
312294.1177,9.4350109684982,2.758971862257259,7.4388591809541245,4.092083863515388,51.13400000002002
312294.1187,12.998665025500717,5.974510149442348,9.728918204414494,7.662508403689508,51.13500000000931
312294.1197,16.28337391800646,9.015652730428878,11.760068808743606,11.015863490429824,51.1359999999986
312294.1207,19.174797126331153,11.7599224923112,13.449435041750757,14.023841369779445,51.1370000000461
312294.1217,21.56909391637599,14.094397429668092,14.724246096978879,16.568663477924645,51.13800000003539
312294.1227,23.380250128507495,15.923432005834917,15.528372720027452,18.5510905549139,51.13900000002468
312294.1237,24.54645916766317,17.175372789485365,15.827950728630258,19.897399774295135,51.14000000001397
312294.1247,25.034945623702654,17.807659049915927,15.615502452723677,20.56468680225317,51.14100000000326
312294.1257,24.84474898170908,17.809833829625347,14.912091938935257,20.543988589357966,51.14199999999255
312294.1267,24.00716327580942,17.20417277651025,13.76722334353998,19.860911187558994,51.14300000004005
312294.1277,22.5837394970088,16.043849697652092,12.256397743511528,18.57366839198388,51.14400000002934
312294.1287,20.66198091900176,14.408779346456742,10.476461975378841,16.768670560234774,51.14500000001863
312294.1297,18.34907567781563,12.399488229943872,8.539092980170262,14.554026222064762,51.146000000007916
312294.1307,15.764195048253342,10.129543031033808,6.562942022525648,12.05151052042379,51.146999999997206
312294.1317,13.030021766995409,7.717196311863223,4.665097219581639,9.387695486561649,51.1480000000447
312294.1327,10.264246868837308,5.276977845734218,2.9525966009634543,6.6850137533244,51.14900000003399
312294.1337,7.571778148512378,2.911960434302856,1.5147296914586819,4.053531784099466,51.15000000002328
312294.1347,5.038337559218332,0.707361175416342,0.4168021448889527,1.5841401949051215,51.15100000001257
312294.1357,2.7259944790681803,-1.2739907682910487,-0.30408928240549715,-0.6562665224362416,51.15200000000186
312294.1367,0.6709990033357218,-2.9939684061102225,-0.6409035088974928,-2.6272379162249804,51.15299999999115
312294.1377,-1.115938397047153,-4.439103659916243,-0.6159705405914444,-4.31468561694795,51.15400000003865
312294.1387,-2.6470065235709486,-5.6182711716040785,-0.27785240128997674,-5.7283539914142105,51.15500000002794
312294.1397,-3.9526019574305806,-6.558398325288775,0.30395009450675037,-6.897157411606291,51.15600000001723
312294.1407,-5.075090087057526,-7.298685096478139,1.0459487184119034,-7.862898887813235,51.15700000000652
312294.1417,-6.061667821918313,-7.883953959789067,1.8586320273954067,-8.673035422025627,51.15799999999581
312294.1427,-6.957059881264318,-8.357825781685152,2.654708298714039,-9.37324134241667,51.15900000004331
312294.1437,-7.7967923592276245,-8.75642523364694,3.3568733284932004,-10.00053376017672,51.160000000032596
312294.1447,-8.601726903728718,-9.103258236882391,3.9044002232484516,-10.57766288444965,51.161000000021886
312294.1457,-9.374412041346899,-9.405780409684166,4.257965133479631,-11.109340175141805,51.162000000011176
312294.1467,-10.097627128086343,-9.65400161565665,4.402294246428754,-11.580691774066862,51.163000000000466
312294.1477,-10.735276586689071,-9.821264563065093,4.346426787280865,-11.958101319269282,51.163999999989755
312294.1487,-11.235558579419658,-9.867115251268242,4.121616170626327,-12.192366782542376,51.16500000003725
312294.1497,-11.536105688218402,-9.741971404673272,3.777115016110372,-12.223863625083597,51.16600000002654
312294.1507,-11.570597516773942,-9.393112527020518,3.374288139982987,-11.989203919247895,51.16700000001583
312294.1517,-11.276195600974315,-8.771379636278912,2.9796519909002503,-11.428727855230335,51.16800000000512
312294.1527,-10.601064185253678,-7.83789730377785,2.657534750629808,-10.494075190050394,51.16899999999441
312294.1537,-9.51122480858446,-6.570122658800452,2.463079605604701,-9.155068432506765,51.17000000004191
312294.1547,-7.996049880369593,-4.9665863035178,2.4362721933522904,-7.405198554129732,51.1710000000312
312294.1557,-6.071825107414999,-3.04981275284736,2.5975663669320994,-5.265132202831563,51.17200000002049
312294.1567,-3.782990833804092,-0.8670811564742701,2.9455209281981656,-2.7838445066843778,51.17300000000978
312294.1577,-1.2008907854647235,1.511106125232734,3.4566598244324043,-0.037205811142286355,51.17399999999907
312294.1587,1.5799076134388315,3.994759085366404,4.087549124602691,2.87590747939945,51.175000000046566
312294.1597,4.447426913125646,6.480039068055238,4.778867289281893,5.839671667291137,51.176000000035856
312294.1607,7.279730116432021,8.856316109009036,5.461051892521637,8.72903017603616,51.177000000025146
312294.1617,9.95335502603789,11.014021280381392,6.060954740773976,11.418390424606889,51.178000000014435
312294.1627,12.351985685414549,12.852591921145628,6.508842774344913,13.790534495063117,51.179000000003725
312294.1637,14.374591160050073,14.287795883493784,6.745053157540228,15.744952353781143,51.179999999993015
312294.1647,15.942311897347539,15.257777271796405,6.725650054175065,17.20485882749726,51.18100000004051
312294.1657,17.00349194193782,15.727285073822824,6.426533573650335,18.122277858308752,51.1820000000298
312294.1667,17.536429895436758,15.6897160235824,5.845607851481326,18.48075789876912,51.18300000001909
312294.1677,17.549635791671438,15.16680752005552,5.002809585752314,18.29550321441695,51.18400000000838
312294.1687,17.079614316626955,14.20603567926131,3.9380113116967146,17.610946014842693,51.18499999999767
312294.1697,16.186424562479218,12.875986459292418,2.707024214738048,16.49602061232026,51.18600000004517
312294.1707,14.947470691672253,11.260153783029232,1.3761126073987884,15.037610531615886,51.18700000003446
312294.1717,13.450136963527484,9.449759866442182,0.015577906446558841,13.332802635444184,51.18800000002375
312294.1727,11.783979436941136,7.5362761062387955,-1.3069402436509807,11.48068344414188,51.18900000001304
312294.1737,10.03321609453885,5.604340142868639,-2.5327729013155214,9.574442550212524,51.19000000000233
312294.1747,8.270214700080238,3.725714781660819,-3.6175098825219316,7.694503966589805,51.19099999999162
312294.1757,6.550567968267859,1.9548225659313903,-4.534740653319656,5.90329319731363,51.192000000039116
312294.1767,4.910179704339822,0.32622722041779895,-5.2778787473763416,4.242077275973202,51.193000000028405
312294.1777,3.364580015418709,-1.1457638916276562,-5.859894088741816,2.730104034253086,51.194000000017695
312294.1787,1.9104628777175283,-2.4654142165022193,-6.310988775048755,1.3660363694307225,51.195000000006985
312294.1797,0.5292174479266923,-3.6520334112494792,-6.674459563381527,0.1314500215315884,51.195999999996275
312294.1807,-0.8079726469528911,-4.7350376695841225,-7.00117386480824,-1.0040383234378532,51.19700000004377
312294.1817,-2.134040905385478,-5.748155028429374,-7.3432272293581855,-2.076602196991371,51.19800000003306
312294.1827,-3.4796334236689326,-6.723414692286198,-7.747435001137068,-3.1216813131142644,51.19900000002235
312294.1837,-4.867087332981256,-7.685573698782003,-8.249330523250025,-4.167814184451311,51.20000000001164
312294.1847,-6.3054470367003725,-8.647582661412256,-8.86829487192775,-5.231493681399741,51.20100000000093
312294.1857,-7.787063117817215,-9.607580210997561,-9.604333130645578,-6.313599270503132,51.20199999999022
312294.1867,-9.286154231678069,-10.547744453909123,-10.436850407123677,-7.397791621751367,51.20300000003772
312294.1877,-10.759509661736526,-11.43513547901116,-11.32558302636532,-8.451048724681375,51.20400000002701
312294.1887,-12.149289746402616,-12.224455146932428,-12.213626069379965,-9.426298384363776,51.2050000000163
312294.1897,-13.38766507542284,-12.862449892746044,-13.032288814245426,-10.266882497058855,51.20600000000559
312294.1907,-14.402844763499308,-13.293509153273952,-13.707325411392542,-10.912395847549703,51.20699999999488
312294.1917,-15.12589823343789,-13.46588367060172,-14.165947573043326,-11.305295658001658,51.208000000042375
312294.1927,-15.497688339344622,-13.337877270858801,-14.343943200499726,-11.397592482788985,51.209000000031665
312294.1937,-15.475215015937064,-12.883360003218666,-14.19220808163181,-11.156916954546217,51.210000000020955
312294.1947,-15.036719905403412,-12.096010542701547,-13.682048942538922,-10.571312091968881,51.211000000010245
312294.1957,-14.18501861762066,-10.991815782214735,-12.808730420254781,-9.652222033166153,51.211999999999534
312294.1967,-12.948697019903703,-9.609523867904235,-11.592904897242674,-8.435323248134491,51.212999999988824
312294.1977,-11.38101451943231,-8.00894705007128,-10.079766411597939,-6.979056213146687,51.21400000003632
312294.1987,-9.556580329093515,-6.267222914540503,-8.335988274430806,-5.360943228095911,51.21500000002561
312294.1997,-7.566086183891543,-4.47334585392776,-6.444717212664871,-3.671998955822963,51.2160000000149
312294.2007,-5.509569416324933,-2.7214548718452263,-4.499083921868723,-2.009732423539025,51.21700000000419
312294.2017,-3.4888248708845584,-1.1034916227864773,-2.5948325159345114,-0.4703835144078667,51.21799999999348
312294.2027,-1.5996685161591406,0.29808886897142106,-0.822755510574524,0.8588810532038499,51.21900000004098
312294.2037,0.07522859957784186,1.4168701483825705,0.7383615755701993,1.9070759375641162,51.22000000003027
312294.2047,1.4722718465319011,2.207668914984812,2.0276328753531576,2.6251339617676868,51.22100000001956
312294.2057,2.551095152584256,2.649877744833454,3.00626329873889,2.989722900701427,51.22200000000885
312294.2067,3.2965616188038456,2.748635775238539,3.6596658314065778,3.0047748278696225,51.22299999999814
312294.2077,3.718449407515884,2.533713503193626,3.997334979914557,2.7005782603416715,51.224000000045635
312294.2087,3.84888444009694,2.0562161293598202,4.050524531169768,2.1305163778127447,51.225000000034925
312294.2097,3.7377998637344403,1.383418855629429,3.867990496292062,1.3657602706145613,51.226000000024214
312294.2107,3.4468928618922767,0.5922268078022976,3.5102464595244856,0.4884224552786698,51.227000000013504
312294.2117,3.0426934327653568,-0.2381157472373338,3.042920294921491,-0.41617640996199623,51.228000000002794
312294.2127,2.589443061254972,-1.0333704620964248,2.5298844854879285,-1.2673900468904309,51.228999999992084
312294.2137,2.142495556031994,-1.731003417812938,2.0268489738220157,-1.9965275193945784,51.23000000003958
312294.2147,1.7428962929937184,-2.285599762611967,1.5760540309844109,-2.552841375866848,51.23100000002887
312294.2157,1.4136752076443666,-2.6724825167661144,1.2025861921125864,-2.9076582962606135,51.23200000001816
312294.2167,1.1582150100885704,-2.8891986714839795,0.9126742091096434,-3.0562689339615776,51.23300000000745
312294.2177,0.9608463802585686,-2.9547435687421526,0.6941206315698687,-3.017412173848707,51.23399999999674
312294.2187,0.789597005341734,-2.9066149956520846,0.5188079390583328,-2.8304234741633056,51.23500000004424
312294.2197,0.6008034307764193,-2.7960000371517606,0.34700752542550883,-2.550344506302406,51.23600000003353
312294.2207,0.34510533530432613,-2.6815799230048585,0.13303611527168244,-2.2414897968425347,51.23700000002282
312294.2217,-0.025800238648779127,-2.622573145043402,-0.16833441304078234,-1.9701161702595256,51.23800000001211
312294.2227,-0.5523478280208108,-2.6717118481809212,-0.5953875139602327,-1.7969278506086084,51.2390000000014
312294.2237,-1.260949902723906,-2.868853609028506,-1.1735792331118444,-1.7701655962191236,51.23999999999069
312294.2247,-2.1591551000886,-3.2358694704611244,-1.9108930373901893,-1.9199706637370186,51.241000000038184
312294.2257,-3.2326477921879047,-3.7733253999586855,-2.7949441997542857,-2.254589292263001,51.242000000027474
312294.2267,-4.444440199788884,-4.459300152040041,-3.7921752162539213,-2.7588029092576316,51.243000000016764
312294.2277,-5.736394081043877,-5.250474715350001,-4.84927810463947,-3.3947509345840876,51.244000000006054
312294.2287,-7.032979726169523,-6.085407258122344,-5.896758736309345,-4.105078146357387,51.24499999999534
312294.2297,-8.246957954111506,-6.889694214478232,-6.8543441736341935,-4.818109960368265,51.24600000004284
312294.2307,-9.286477765200852,-7.582533577976708,-7.637747339681995,-5.454558967808531,51.24700000003213
312294.2317,-10.06293722792675,-8.084068517818663,-8.166162632846719,-5.935114223940216,51.24800000002142
312294.2327,-10.498872430429532,-8.322811527688337,-8.369785292257607,-6.188175973260948,51.24900000001071
312294.2337,-10.535127253248021,-8.24243906468913,-8.196634610318505,-6.156981507110545,51.25
312294.2347,-10.136616822304353,-7.807305087615587,-7.618018067979763,-5.805424465729572,51.25099999998929
312294.2357,-9.29612427836223,-7.00614344662317,-6.632094960583958,-5.121994732142055,51.25200000003679
312294.2367,-8.035751960981495,-5.853601968743603,-5.265172630802206,-4.1214470660582005,51.25300000002608
312294.2377,-6.40586691931983,-4.389458587402048,-3.5705793904266603,-2.8440262291608693,51.25400000001537
312294.2387,-4.481615823527072,-2.6755918625146076,-1.6251853745361795,-1.3523131858047832,51.25500000000466
312294.2397,-2.3573132097227476,-0.7909931859549394,0.47613591602768995,0.27401207939385014,51.255999999993946
312294.2407,-0.13920745124155848,1.1747050145671436,2.6276181196730173,1.944993084990467,51.257000000041444
312294.2417,2.062718488108808,3.128569852555966,4.720648588514191,3.568152477872082,51.258000000030734
312294.2427,4.143164401463277,4.98188102877359,6.652026532302915,5.056437786982399,51.25900000002002
312294.2437,6.009382472563334,6.657106646404324,8.33168850249763,6.335596037290137,51.26000000000931
312294.2447,7.587787905522102,8.093687700447878,9.689208011924698,7.350271995047283,51.2609999999986
312294.2457,8.828721764784376,9.252096300770413,10.678492989617666,8.068249804020807,51.2620000000461
312294.2467,9.708955883836701,10.11580373755768,11.280276310081623,8.482439557809528,51.26300000003539
312294.2477,10.231747192652335,10.691000708071007,11.502204285652473,8.610431196299016,51.26400000002468
312294.2487,10.424484083988846,11.00413321073103,11.376555563177876,8.49167642060256,51.26500000001397
312294.2497,10.334197692764073,11.097532113500302,10.955846393832369,8.182591755037324,51.26600000000326
312294.2507,10.021413898190103,11.023601194217743,10.306776224999778,7.75007965756055,51.26699999999255
312294.2517,9.552977836400478,10.83816920476724,9.503120966819356,7.264119684973785,51.26800000004005
312294.2527,8.994576669827097,10.593692397847004,8.618275423288335,6.7901728970812805,51.26900000002934
312294.2537,8.403709279693087,10.33300699832801,7.718172321559527,6.382160923936657,51.27000000001863
312294.2547,7.823801331221849,10.08427496618342,6.855260821834083,6.0767245476211995,51.271000000007916
312294.2557,7.280045831330252,9.857646529029594,6.064116886492751,5.889340714649174,51.271999999997206
312294.2567,6.777374508620566,9.643991055510558,5.359092368954558,5.812693842093048,51.2730000000447
312294.2577,6.300751237687944,9.415840703905921,4.734205412770848,5.817474954254096,51.27400000003399
312294.2587,5.817746260947484,9.130469191749675,4.165251726904489,5.855542286978871,51.27500000002328
312294.2597,5.2831218570676075,8.734812759211646,3.61389630294459,5.865142957862623,51.27600000001257
312294.2607,4.644958644042043,8.17175307058501,3.033309599798355,5.777690001786498,51.27700000000186
312294.2617,3.8516965480149548,7.387140840904236,2.374760144831657,5.525432602603083,51.27799999999115
312294.2627,2.8593707482227995,6.336858312841477,1.594481611525703,5.0492650544848665,51.27900000003865
312294.2637,1.638299759407008,4.993206405816813,0.660105751055622,4.305900958197098,51.28000000002794
312294.2647,0.17853249394209575,3.3499598302226232,-0.4440044733312914,3.273695368503638,51.28100000001723
312294.2657,-1.506521172738514,1.425555334073318,-1.7130789189750684,1.9565237130329323,51.28200000000652
312294.2667,-3.3786775659668766,-0.7359471081485945,-3.120315937135844,0.38531016179466576,51.28299999999581
312294.2677,-5.375971457497086,-3.0662797147615146,-4.617502635925674,-1.3829780070582585,51.28400000004331
312294.2687,-7.416007994230116,-5.476682116653902,-6.137852235901933,-3.2688112547969297,51.285000000032596
312294.2697,-9.401399872274459,-7.863619317743236,-7.600813155807015,-5.175757839151762,51.286000000021886
312294.2707,-11.226812202806196,-10.116012445676047,-8.918410381931764,-6.997817814468303,51.287000000011176
312294.2717,-12.786980008733273,-12.123345445394179,-10.00252821564199,-8.62776460587158,51.288000000000466
312294.2727,-13.984966646110006,-13.783924172211925,-10.77244932361483,-9.96573038788242,51.288999999989755
312294.2737,-14.739905009710812,-15.012546254853945,-11.16193720774189,-10.927247174476026,51.29000000003725
312294.2747,-14.993509698261864,-15.746892419386395,-11.125190384351503,-11.450006584242262,51.29100000002654
312294.2757,-14.714762871204472,-15.95206770191876,-10.641102639501375,-11.498722693977077,51.29200000001583
312294.2767,-13.902348205452663,-15.622892834594735,-9.715424348353213,-11.06766244637516,51.29300000000512
312294.2777,-12.584619509168357,-14.7837555529921,-8.380619382867556,-10.180629284713884,51.29399999999441
312294.2787,-10.817122611918686,-13.48605851099532,-6.693431207117837,-8.88842663820498,51.29500000004191
312294.2797,-8.677918657197928,-11.803523096984167,-4.7303891316186375,-7.264065279829907,51.2960000000312
312294.2807,-6.2611616790311455,-9.825805358242441,-2.5816803190822086,-5.39618950519689,51.29700000002049
312294.2817,-3.669543588994131,-7.651032605402122,-0.3439661891477439,-3.381361221742315,51.29800000000978
312294.2827,-1.0063200333316116,-5.377962572464413,1.8871813987501709,-1.3159426569463635,51.29899999999907
312294.2837,1.6323385366513552,-3.0984924867980457,4.024517665117883,0.711652134433412,51.300000000046566
312294.2847,4.163967550959088,-0.8912008936353518,5.995366941434754,2.627612043615973,51.301000000035856
312294.2857,6.5248069326221,1.1835047754506778,7.746302019548683,4.3776803233914325,51.302000000025146
312294.2867,8.672749942587025,3.08622610691266,9.245850190176764,5.92996678046846,51.303000000014435
312294.2877,10.588021143770133,4.799190591645279,10.485011040643862,7.275399919532591,51.304000000003725
312294.2887,12.271588951578657,6.324661441324809,11.475586669708376,8.42583330398572,51.304999999993015
312294.2897,13.741542464203174,7.681371211859731,12.246539273280767,9.410052408552211,51.30600000004051
312294.2907,15.027862057437217,8.899402288123893,12.838783026096342,10.268134401963163,51.3070000000298
312294.2917,16.166168961039673,10.014085966611614,13.298968015058014,11.044773443857506,51.30800000001909
312294.2927,17.19113547026605,11.05958266007731,13.672908925927915,11.782282614483451,51.30900000000838
312294.2937,18.130265239073868,12.062829992438228,13.999341028853959,12.514011025321823,51.30999999999767
312294.2947,18.998709708789555,13.038501197833588,14.304647968369938,13.258868513666727,51.31100000004517
312294.2957,19.795676656459083,13.985508009016334,14.5991038671281,14.017535388302377,51.31200000003446
312294.2967,20.502821206896822,14.885421136711113,14.875016543856898,14.77076251935824,51.31300000002375
312294.2977,21.08480503976512,15.702983711438716,15.106964768998557,15.479954824431596,51.31400000001304
312294.2987,21.491986380066198,16.388678462096582,15.25410973881712,16.08999998348638,51.31500000000233
312294.2997,21.66498394653046,16.883099325381163,15.264350488838238,16.534076938016856,51.31599999999162
312294.3007,21.540664218735152,17.122693485504414,15.079905689731993,16.739977887826683,51.317000000039116
312294.3017,21.05895248795515,17.046298824629563,14.64375875461096,16.637322938791197,51.318000000028405
312294.3027,20.169779030990224,16.601818330723486,13.906313860807606,16.164953526620955,51.319000000017695
312294.3037,18.839451308561095,15.752355327333161,12.831586192890763,15.277768399418205,51.320000000006985
312294.3047,17.05579344315638,14.481183090906597,11.402292832394563,13.952316450721856,51.320999999996275
312294.3057,14.831510456975137,12.795034460249253,9.623316950445808,12.190579026044132,51.32200000004377
312294.3067,12.205405397764526,10.725360214184711,7.523176741423005,10.021548762429093,51.32300000003306
312294.3077,9.241285699826536,8.327403056135202,5.153326101294787,7.5004253206495095,51.32400000002235
312294.3087,6.02462034005259,5.677147338487288,2.5853269951955355,4.705479474190067,51.32500000001164
312294.3097,2.657229281158664,2.8664120578001304,-0.093857347277611,1.73286313276506,51.32600000000093
312294.3107,-0.7495204182761236,-0.0034643505788022064,-2.788014565141078,-1.3101582807835874,51.32699999999022
312294.3117,-4.082390708081039,-2.8287621505584624,-5.398704871091959,-4.312922683106,51.32800000003772
312294.3127,-7.234113707000382,-5.51067707749584,-7.832491506175731,-7.169318770382761,51.32900000002701
312294.3137,-10.11067398198245,-7.962097846209857,-10.007699312749269,-9.785225772083185,51.3300000000163
312294.3147,-12.637362207212634,-10.113239566161669,-11.860068177855917,-12.084760048974225,51.33100000000559
312294.3157,-14.763050342477108,-11.91562261610281,-13.346777944125721,-14.014762991650583,51.33199999999488
312294.3167,-16.462312235711913,-13.344050805687376,-14.448482765169699,-15.54713977922246,51.333000000042375
312294.3177,-17.735224079209434,-14.396440481245085,-15.169189758656282,-16.678871447142008,51.334000000031665
312294.3187,-18.60490566242077,-15.091563976453855,-15.534029623415039,-17.42975226929531,51.335000000020955
312294.3197,-19.113083504748317,-15.464975471162958,-15.585174496470161,-17.838127924896106,51.336000000010245
312294.3207,-19.314148976057652,-15.563564632956295,-15.37634010662195,-17.955105151367803,51.336999999999534
312294.3217,-19.26832944587175,-15.43931583605878,-14.966447168194815,-17.837851241655102,51.337999999988824
312294.3227,-19.034674013087702,-15.142925203840816,-14.413097238349621,-17.542687209781512,51.33900000003632
312294.3237,-18.66456918512106,-14.717936880212875,-13.766532931399038,-17.118693271433123,51.34000000002561
312294.3247,-18.19644260379219,-14.196002949328197,-13.064699946386805,-16.602488021606096,51.3410000000149
312294.3257,-17.652190174465016,-13.593753990398968,-12.329913977983228,-16.01471904276499,51.34200000000419
312294.3267,-17.035685824907233,-12.911601055051333,-11.567470552535532,-15.358624934202567,51.34299999999348
312294.3277,-16.333520952456176,-12.134591391915325,-10.76633650323171,-14.620814577551112,51.34400000004098
312294.3287,-15.517893329058795,-11.235229211388843,-9.901847938456166,-13.774180132664432,51.34500000003027
312294.3297,-14.551345251191794,-10.177970123074083,-8.940132410780816,-12.782638604929748,51.34600000001956
312294.3307,-13.392859783324928,-8.924923710543686,-7.843793189551209,-11.607204924639811,51.34700000000885
312294.3317,-12.00468096621663,-7.442170353286694,-6.578259055944085,-10.212756509693989,51.34799999999814
312294.3327,-10.359143087274179,-5.706028679866906,-5.1181274284622225,-8.574769624032134,51.349000000045635
312294.3337,-8.444783712519325,-3.7086059926178425,-3.4528196754546663,-6.685299657726564,51.350000000034925
312294.3347,-6.271076461224917,-1.4620262427602209,-1.590926424099656,-4.557541878825245,51.351000000024214
312294.3357,-3.8712467680102294,0.9991472522660169,0.4372578980142898,-2.228440241325577,51.352000000013504
312294.3367,-1.3028149793009849,3.61760600232798,2.5793397360136217,0.24100307538959617,51.353000000002794
312294.3377,1.3542713383027793,6.315215997064796,4.762692149108011,2.7678434511780425,51.353999999992084
312294.3387,4.0018210248569135,8.997056035157971,6.898482626310976,5.251624997479321,51.35500000003958
312294.3397,6.52957813592102,11.557261318916972,8.88755036420436,7.580789403224353,51.35600000002887
312294.3407,8.82287822572503,13.886181058290592,10.62763485225268,9.640527357148864,51.35700000001816
312294.3417,10.771115490073106,15.878227055358268,12.021318324338417,11.321389725438285,51.35800000000745
312294.3427,12.276267779212281,17.439717349866264,12.98396534211765,12.527892074122557,51.35899999999674
312294.3437,13.260711114264693,18.49601209779968,13.450931434014127,13.186334953434363,51.36000000004424
312294.3447,13.673612597629456,18.99729863848465,13.383370721981189,13.251124898207074,51.36100000003353
312294.3457,13.495315148660275,18.922503448020876,12.77209452614252,12.709011526672308,51.36200000002282
312294.3467,12.73930751130939,18.280978772821978,11.639107555220532,11.580842084312723,51.36300000001211
312294.3477,11.45159134841322,17.1118148491079,10.036658898900132,9.920658590532309,51.3640000000014
312294.3487,9.70749318315094,15.480845266769482,8.043871589849532,7.812203098466172,51.36499999999069
312294.3497,7.606200053327543,13.475622508753744,5.761235411178012,5.363130614157387,51.366000000038184
312294.3507,5.263502109242119,11.198823032401904,3.3034418492554893,2.6974347382006756,51.367000000027474
312294.3517,2.803383738822877,8.76067918924894,0.791189170348987,-0.053251316381733756,51.368000000016764
312294.3527,0.3492023479093705,6.271115887002237,-1.6573245691493987,-2.7587207601090866,51.369000000006054
312294.3537,-1.9847782508120704,3.8322858475869945,-3.934480568600598,-5.2988451865570285,51.36999999999534
312294.3547,-4.10077696493302,1.5321475457331597,-5.950197667968482,-7.571080917419217,51.37100000004284
312294.3557,-5.923195448128366,-0.5603802897534813,-7.637189314155123,-9.496215703899384,51.37200000003213
312294.3567,-7.402184695903873,-2.398313268119463,-8.95410394032725,-11.021915443991125,51.37300000002142
312294.3577,-8.514840733606176,-3.9573637462200955,-9.886336643932387,-12.123843368052247,51.37400000001071
312294.3587,-9.264018162017823,-5.23459741678091,-10.444520857055606,-12.804355301257043,51.375
312294.3597,-9.674974058437416,-6.245212384536883,-10.660925927674505,-13.089001749630674,51.37599999998929
312294.3607,-9.790254449642077,-7.017845716695846,-10.5841792861478,-13.021268830623722,51.37700000003679
312294.3617,-9.663392255814912,-7.588946859578787,-10.272881749861831,-12.656146285831916,51.37800000002608
312294.3627,-9.352084545035492,-7.996836670450076,-9.788777371050005,-12.053207282491663,51.37900000001537
312294.3637,-8.911549151707892,-8.276087798924875,-9.190166528825891,-11.269912653552597,51.38000000000466
312294.3647,-8.388723780853077,-8.45281558841008,-8.526210606189293,-10.35580960618159,51.380999999993946
312294.3657,-7.817868993238802,-8.54136361615939,-7.8326730859554985,-9.348186620556705,51.382000000041444
312294.3667,-7.217980604186876,-8.542715236354125,-7.129485901861228,-8.269583550404647,51.383000000030734
312294.3677,-6.592222931624411,-8.444777473680096,-6.420337131863824,-7.127355394986333,51.38400000002002
312294.3687,-5.929381557807713,-8.224484907293736,-5.694265887732551,-5.9152700570224095,51.38500000000931
312294.3697,-5.2071241152979875,-7.851478667573905,-4.9290434392459055,-4.616906504571347,51.3859999999986
312294.3707,-4.396670996682727,-7.292948579912865,-4.095936695921768,-3.21043149120995,51.3870000000461
312294.3717,-3.4683333236633067,-6.519101541531583,-3.1653092145101582,-1.6741891313188075,51.38800000003539
312294.3727,-2.3972872631094995,-5.508648948840014,-2.112429778583613,0.007547499277226859,51.38900000002468
312294.3737,-1.168930481140174,-4.253697536729591,-0.9228376378364552,1.8393314977914081,51.39000000001397
312294.3747,0.21678965929031102,-2.7634823618999524,0.40334132284490487,3.8104217312901802,51.39100000000326
312294.3757,1.7425801493811166,-1.0664926429789034,1.8486264542125195,5.892289732564543,51.39199999999255
312294.3767,3.3728843897066056,0.7893001901996614,3.3773035385487136,8.03808946670953,51.39300000004005
312294.3777,5.054993854613115,2.7382132100633663,4.936583683034697,10.184222629865346,51.39400000002934
312294.3787,6.722130415432676,4.700520496452147,6.459739337749059,12.253913913285325,51.39500000001863
312294.3797,8.298234580483665,6.58772432556557,7.870952695549115,14.162499036121833,51.396000000007916
312294.3807,9.704014610970653,8.308967004382176,9.091432708538045,15.823944655879703,51.396999999997206
312294.3817,10.863674899061435,9.777998395976095,10.04622100863406,17.15798214658438,51.3980000000447
312294.3827,11.711663071480364,10.920047823014778,10.671027860912089,18.097160779744662,51.39900000003399
312294.3837,12.19876223292196,11.677946259051906,10.91842504599239,18.593118178734212,51.40000000002328
312294.3847,12.296909282707903,12.016906302490657,10.762775010658643,18.62142838302875,51.40100000001257
312294.3857,12.002237303402397,11.927487812576874,10.203389915801267,18.18451485008462,51.40200000000186
312294.3867,11.336008369983231,11.426444879105938,9.265579400704274,17.31229521670957,51.40299999999115
312294.3877,10.343306355784426,10.555348873161458,7.999445968380918,16.06043935767575,51.40400000003865
312294.3887,9.08957747045978,9.377093392558143,6.476502378422781,14.506351358999444,51.40500000002794
312294.3897,7.655317830273456,7.970589395603743,4.784395226523245,12.74320706917734,51.40600000001723
312294.3907,6.129391350244129,6.42413286650401,3.02020239405741,10.872570161604065,51.40700000000652
312294.3917,4.601599298420645,4.828055818715137,1.2829111818406922,8.996252185856234,51.40799999999581
312294.3927,3.1552010450239005,3.2673415470247438,-0.3342350851398638,7.208161616953648,51.40900000004331
312294.3937,1.8600957868924426,1.814889670509177,-1.7508194982654135,5.586895222369762,51.410000000032596
312294.3947,0.767315896562811,0.5260549297891802,-2.9051137855169853,4.189760855090663,51.411000000021886
312294.3957,-0.09464058090969477,-0.5650383506786079,-3.7581871654568095,3.0487898056017846,51.412000000011176
312294.3967,-0.721286186090769,-1.4470750827960015,-4.295896523050474,2.1691113877501325,51.413000000000466
312294.3977,-1.131287807219975,-2.1308936538743604,-4.528595871221264,1.529840123098455,51.413999999989755
312294.3987,-1.363362539252292,-2.6466835595943454,-4.488622010632706,1.0873880052954483,51.41500000003725
312294.3997,-1.471229100110655,-3.039331927068133,-4.225826590745663,0.7808837406171109,51.41600000002654
312294.4007,-1.5171087742831375,-3.3623934228528163,-3.801611604423042,0.5391798165744438,51.41700000001583
312294.4017,-1.5644133131378353,-3.6712910520032973,-3.2820674798738545,0.28877620235516727,51.41800000000512
312294.4027,-1.670339456211378,-4.016429365113937,-2.7308964870361714,-0.03809879449575758,51.41899999999441
312294.4037,-1.8791024888346066,-4.436909318086497,-2.202820989269987,-0.49602585323443726,51.42000000004191
312294.4047,-2.2164829934907466,-4.955474640952888,-1.7381245072820275,-1.1202672563939384,51.4210000000312
312294.4057,-2.686237058955926,-5.575198773631936,-1.358858671210634,-1.9225650604587943,51.42200000002049
312294.4067,-3.26874244844818,-6.2782509145122445,-1.0670821691847607,-2.889271719035881,51.42300000000978
312294.4077,-3.922038623785121,-7.026876054704299,-0.8452951099938584,-3.981997736787712,51.42399999999907
312294.4087,-4.585187722879232,-7.766506835545561,-0.6590136629749291,-5.140720985797736,51.425000000046566
312294.4097,-5.183658857069415,-8.430715786367712,-0.4612168420492779,-6.289067774311259,51.426000000035856
312294.4107,-5.636241154471056,-8.94753534920351,-0.1982107501392247,-7.341269123795992,51.427000000025146
312294.4117,-5.8628408925838125,-9.246537721645044,0.18368620110577374,-8.210136776943076,51.428000000014435
312294.4127,-5.792429392560176,-9.265990136968352,0.7313167093914439,-8.815307391069492,51.429000000003725
312294.4137,-5.370389711083298,-8.959391193013275,1.478412530320108,-9.090979236555638,51.429999999993015
312294.4147,-4.56456341022001,-8.30075120208836,2.4405206579807732,-8.992415617395078,51.43100000004051
312294.4157,-3.369418699135976,-7.288098654727975,3.611655869103015,-8.500608098346044,51.4320000000298
312294.4167,-1.8079364514867045,-5.944864138695105,4.963040118277263,-7.624668744758652,51.43300000001909
312294.4177,0.06897589603063048,-4.318995917240272,6.444085960607889,-6.401736744723733,51.43400000000838
312294.4187,2.1855013517778006,-2.479878071563371,7.985562094997303,-4.894419972026861,51.43499999999767
312294.4197,4.446093420144863,-0.5133315543744481,9.504665693988867,-3.186023500508329,51.43600000004517
312294.4207,6.742350998847689,1.4848396659026393,10.911539271567884,-1.3740225121265834,51.43700000003446
312294.4217,8.960965061548201,3.416158577769926,12.116627679689948,0.43760318389649133,51.43800000002375
312294.4227,10.992019345446291,5.186964179734547,13.03818725913628,2.1464567712046776,51.43900000001304
312294.4237,12.736901476350445,6.715390111050227,13.609242294347979,3.6594887324077514,51.44000000000233
312294.4247,14.115126168241995,7.937197622356814,13.783335300083072,4.899735240160835,51.44099999999162
312294.4257,15.069483484520587,8.80994306614886,13.538532197347234,5.811438125639427,51.442000000039116
312294.4267,15.569091390714792,9.315125109995611,12.879309861633095,6.36311990013872,51.443000000028405
312294.4277,15.610136426491838,9.458155136322738,11.836155555580412,6.54839243482479,51.444000000017695
312294.4287,15.214309094568335,9.266206222725572,10.462925665851373,6.384501709375102,51.445000000006985
312294.4297,14.425159663617228,8.784200854785329,8.832223727651566,5.908831352751651,51.445999999996275
312294.4307,13.302794155664952,8.069375042924086,7.029244294136535,5.1737828339906455,51.44700000004377
312294.4317,11.917480556432254,7.184989471541094,5.144671735366095,4.240601048370494,51.44800000003306
312294.4327,10.342827378863904,6.193833813591031,3.267307820223031,3.1728060984959385,51.44900000002235
312294.4337,8.64922205916917,5.1521811995245335,1.4771209051936471,2.0299166107449653,51.45000000001164
312294.4347,6.898173331970799,4.104795227279555,-0.1606388669834577,0.8621050207814587,51.45100000000093
312294.4357,5.138094576071997,3.0814774902155393,-1.5997247698223627,-0.29368410760901026,51.45199999999022
312294.4367,3.4019053053611,2.095480930257371,-2.8152076233924532,-1.415784102965495,51.45300000003772
312294.4377,1.706631844921037,1.1439196994458027,-3.803644704005874,-2.4978547591118696,51.45400000002701
312294.4387,0.054975682070579915,0.2100990913750014,-4.581142307207802,-3.5469746490306684,51.4550000000163
312294.4397,-1.5613895021672226,-0.7325098232613809,-5.179558541814331,-4.580031622890955,51.45600000000559
312294.4407,-3.1572126034773107,-1.715097067087044,-5.6412748616870365,-5.6188482052007735,51.45699999999488
312294.4417,-4.748309339065531,-2.7677139812113913,-6.013103108592292,-6.6846153442102265,51.458000000042375
312294.4427,-6.346092678006829,-3.9134864238338043,-6.339975883906763,-7.7922851858574935,51.459000000031665
312294.4437,-7.952639027403433,-5.163483516380556,-6.6590839911744455,-8.945583225724667,51.460000000020955
312294.4447,-9.556885025977556,-6.512822122844711,-6.995074038712822,-10.133241093594552,51.461000000010245
312294.4457,-11.13243287944572,-7.93846547204334,-7.35680719170463,-11.326929019670976,51.461999999999534
312294.4467,-12.637274689672306,-9.399005042485156,-7.736017731022808,-12.481193759863649,51.462999999988824
312294.4477,-14.015544926640903,-10.836514663592762,-8.108013707669112,-13.53550064530454,51.46400000003632
312294.4487,-15.201195272006338,-12.180354522743395,-8.434351159831493,-14.418258179108786,51.46500000002561
312294.4497,-16.123279188943478,-13.3526013820389,-8.667209121675677,-15.052492376611983,51.4660000000149
312294.4507,-16.712355720420685,-14.274609913080273,-8.755015413280667,-15.362657215268337,51.46700000000419
312294.4517,-16.90739138693514,-14.874085909545501,-8.648740730450559,-15.281935615261663,51.46799999999348
312294.4527,-16.662469250927515,-15.091987924469207,-8.308204216266724,-14.75931605769587,51.46900000004098
312294.4537,-15.952612879098641,-14.888576449777222,-7.707725120910374,-13.765730882766691,51.47000000003027
312294.4547,-14.778100954958434,-14.247999416257583,-6.840513466157761,-12.298614203852523,51.47100000001956
312294.4557,-13.16677968863926,-13.180933248532336,-5.72131231968737,-10.384373920219558,51.47200000000885
312294.4567,-11.17406264043934,-11.724977658202926,-4.386973744673375,-8.078460782949984,51.47299999999814
312294.4577,-8.880523688203226,-9.942712671990108,-2.8948531472648806,-5.462939939796353,51.474000000045635
312294.4587,-6.387217759289074,-7.91754778419331,-1.3191226829492981,-2.641705472270156,51.475000000034925
312294.4597,-3.8090833516940767,-5.747704129330537,0.2546876937248978,0.26629661095764917,51.476000000024214
312294.4607,-1.2669693095668462,-3.5388506488992735,1.7364336204780246,3.1352785449110114,51.477000000013504
312294.4617,1.121032780772138,-1.3960467698782986,3.038763333153157,5.8415537822371775,51.478000000002794
312294.4627,3.2481936924909314,0.5842858190068768,4.08449428578491,8.272435404133269,51.478999999992084
312294.4637,5.026927890126483,2.321638117644787,4.813259436694562,10.334308381145162,51.48000000003958
312294.4647,6.395057440545964,3.757278580488527,5.186785446852762,11.959163457357162,51.48100000002887
312294.4657,7.31999836972218,4.858180610878528,5.192289619174653,13.109017072995904,51.48200000001816
312294.4667,7.800496261146673,5.618665724213239,4.843657508507621,13.777832864789838,51.48300000000745
312294.4677,7.86576055794246,6.059628336753408,4.180271921516525,13.990787827897435,51.48399999999674
312294.4687,7.572084287114234,6.22543373917115,3.2635863504733647,13.800968603280506,51.48500000004424
312294.4697,6.997265198497086,6.178797392530601,2.171750231544619,13.283817546464482,51.48600000003353
312294.4707,6.233343789485167,5.994140516606082,0.9927790068455222,12.529851995992171,51.48700000002282
312294.4717,5.378324424113147,5.75005619560244,-0.18309922236190881,11.636334176880467,51.48800000001211
312294.4727,4.527633502969251,5.521598686562257,-1.2712101466066055,10.69865891686046,51.4890000000014
312294.4737,3.7660852191962215,5.373118946933283,-2.19959195235363,9.802243475782452,51.48999999999069
312294.4747,3.161069517875678,5.352310848446589,-2.91488395250268,9.015646929258056,51.491000000038184
312294.4757,2.7575541040892797,5.486011005858986,-3.3864048163129894,8.38552145205421,51.492000000027474
312294.4767,2.5753147747976324,5.778122571855716,-3.6080537975110727,7.933816805552374,51.493000000016764
312294.4777,2.608593272363668,6.209826574171075,-3.5978770413401966,7.657439986609345,51.494000000006054
312294.4787,2.828150114800213,6.742023487277858,-3.395364525697661,7.53033561844689,51.49499999999534
312294.4797,3.185453815295773,7.31973412354074,-3.056759855836423,7.507722105149571,51.49600000004284
312294.4807,3.6185492786023823,7.878003201015031,-2.6488540429410725,7.532016032112006,51.49700000003213
312294.4817,4.058995916957087,8.348708921468235,-2.241877305222543,7.539822178853401,51.49800000002142
312294.4827,4.4391745351280525,8.66760089233065,-1.90218605688808,7.469273541937501,51.49900000001071
312294.4837,4.6992396874318105,8.780874279177628,-1.6854576285072729,7.266983563475388,51.5
312294.4847,4.793042624393409,8.650641198468136,-1.6310515149109945,6.893923009290642,51.50099999998929
312294.4857,4.692463819943813,8.258775473824263,-1.758078423057552,6.329651237062358,51.50200000003679
312294.4867,4.389761717475155,7.608772364544619,-2.0635486481841947,5.574503987781813,51.50300000002608
312294.4877,3.897748850893042,6.725464223468424,-2.522765978820552,4.6495500064366615,51.50400000001537
312294.4887,3.2478274333888306,5.652646480544221,-3.091912514539429,3.5943557740013374,51.50500000000466
312294.4897,2.4861318810669197,4.44887478921641,-3.7125550648759114,2.4628188450921127,51.505999999993946
312294.4907,1.6682142079265279,3.1818732836883483,-4.317616159203478,1.3175237993435363,51.507000000041444
312294.4917,0.8528511916809043,1.9221281028922537,-4.8382104446075065,0.22322149049979872,51.508000000030734
312294.4927,0.09563563939221033,0.736316554257246,-5.21066423231917,-0.759882340179332,51.50900000002002
312294.4937,-0.5569700938770878,-0.3187667987681028,-5.383020208088132,-1.5823272754550166,51.51000000000931
312294.4947,-1.072493284953511,-1.2011810659958875,-5.320382280331353,-2.2104407528873953,51.5109999999986
312294.4957,-1.435714156514325,-1.8872165448821516,-5.0085718916913695,-2.629697100944816,51.5120000000461
312294.4967,-1.6499927557633356,-2.3728527008636005,-4.455735333612883,-2.84604117070502,51.51300000003539
312294.4977,-1.736521329821846,-2.673166954610396,-3.6917450606501934,-2.885034290327999,51.51400000002468
312294.4987,-1.7315806872380584,-2.8197735134506363,-2.765456627763911,-2.788904587721008,51.51500000001397
312294.4997,-1.6820877872365758,-2.856571890219883,-1.7400951148833375,-2.6118001923466885,51.51600000000326
312294.5007,-1.6399016488763585,-2.8342566061124495,-0.687229841857165,-2.4137306615526235,51.51699999999255
312294.5017,-1.6554873910180816,-2.8041656695552137,0.3200644072413209,-2.2538203229458835,51.51800000004005
312294.5027,-1.7716102561369351,-2.8121131218624305,1.2141812707352289,-2.183573024373555,51.51900000002934
312294.5037,-2.017735332966973,-2.892853425782599,1.9394004130035334,-2.2408531828275216,51.52000000001863
312294.5047,-2.405743670210905,-3.0657624283699794,2.4571128570373535,-2.4452221635479288,51.521000000007916
312294.5057,-2.9274477449553054,-3.3321972713094428,2.749336411994559,-2.7951381349391022,51.521999999997206
312294.5067,-3.554211279044977,-3.6748280845856423,2.820173185490401,-3.2673443585719673,51.5230000000447
312294.5077,-4.238767711635513,-4.059034434933511,2.6950653246893057,-3.818553356638351,51.52400000003399
312294.5087,-4.9191091009639045,-4.436249209066549,2.417923663456008,-4.389304001571579,51.52500000002328
312294.5097,-5.524104985565206,-4.748932871449272,2.0464152832051723,-4.909648112214255,51.52600000001257
312294.5107,-5.98033001529499,-4.936691825745065,1.645879236461101,-5.306134554424533,51.52700000000186
312294.5117,-6.219448179801348,-4.942932926750167,1.2824767022443622,-5.509421019596473,51.52799999999115
312294.5127,-6.185433603435108,-4.721384368152661,1.0162590517252674,-5.461770561649863,51.52900000003865
312294.5137,-5.840910362553783,-4.241817650468562,0.8948469968207093,-5.123689272379161,51.53000000002794
312294.5147,-5.171966937768752,-3.49437601399022,0.9483551175912843,-4.479033746967534,51.53100000001723
312294.5157,-4.1909381131017565,-2.492044964864753,1.186074316724228,-3.5380556589479446,51.53200000000652
312294.5167,-2.9368354301319437,-1.270977793959656,1.5952520295545198,-2.3380427187719093,51.53299999999581
312294.5177,-1.4733286866046458,0.11140391760960097,2.1421032539265497,-0.9414421613251811,51.53400000004331
312294.5187,0.11558588842426906,1.5803980873312713,2.774964949751297,0.5684071532473263,51.535000000032596
312294.5197,1.7318728053613515,3.049756339140148,3.4292937601797226,2.0935781324689695,51.536000000021886
312294.5207,3.2711518979382888,4.428649296833389,4.03402323808137,3.529341054691362,51.537000000011176
312294.5217,4.6311133448868596,5.629222957482394,4.518659932087996,4.772732331012155,51.538000000000466
312294.5227,5.719891671475232,6.574042623731597,4.820421327052608,5.7311274793708495,51.538999999989755
312294.5237,6.463634791269211,7.202724955976302,4.8907103734387265,6.330033249304962,51.54000000003725
312294.5247,6.812574176805585,7.477130262589872,4.700282159331004,6.519382294660896,51.54100000002654
312294.5257,6.745038309407766,7.384619498852339,4.242582412229988,6.277750424907678,51.54200000001583
312294.5267,6.269040813526045,6.939061000875013,3.534913015274483,5.61410830086616,51.54300000000512
312294.5277,5.421299165206854,6.179483454602604,2.6172896111928314,4.56694818761199,51.54399999999441
312294.5287,4.263778219972438,5.166493688590569,1.5490803022588129,3.200870198806115,51.54500000004191
312294.5297,2.8780823393667005,3.9767892273458116,0.4037306964299238,1.600948089634974,51.5460000000312
312294.5307,1.3582187629592097,2.6962758089737715,-0.737931923138843,-0.13460038187603166,51.54700000002049
312294.5317,-0.19759582314734694,1.4124318978685053,-1.795181978512513,-1.9027586884792989,51.54800000000978
312294.5327,-1.695327965535623,0.2066329104466517,-2.6949533589141477,-3.604302489538385,51.54899999999907
312294.5337,-3.052947933290308,-0.8528493952598145,-3.3787471266710294,-5.151849565286855,51.550000000046566
312294.5347,-4.2069655731663795,-1.716522409560985,-3.8082232684122177,-6.476639618081437,51.551000000035856
312294.5357,-5.117095126742624,-2.3575005101803015,-3.9689334233342826,-7.533441146110451,51.552000000025146
312294.5367,-5.768643473281014,-2.7731398230828304,-3.8718269074927485,-8.303165199895549,51.553000000014435
312294.5377,-6.1724345139502255,-2.984344225031462,-3.5523734761984676,-8.792986964298866,51.554000000003725
312294.5387,-6.362317079207248,-3.032629131824244,-3.067372845440965,-9.034014373006748,51.554999999993015
312294.5397,-6.390532342196327,-2.9752429595579475,-2.4897412479527636,-9.076775403519013,51.55600000004051
312294.5407,-6.321417432363613,-2.8788301228265287,-1.9017580554956885,-8.985000025061385,51.5570000000298
312294.5417,-6.224075691611802,-2.8122564057978185,-1.3874022331734797,-8.828329499214155,51.55800000001909
312294.5427,-6.164736306126897,-2.839294423849592,-1.024495022281887,-8.674680070155313,51.55900000000838
312294.5437,-6.1995483498366335,-3.011876415192439,-0.8773834947252072,-8.583011337687255,51.55999999999767
312294.5447,-6.3685048299495906,-3.364563011795554,-0.9908478029620951,-8.59720001479605,51.56100000004517
312294.5457,-6.691076293380808,-3.910755773344799,-1.3857981416287575,-8.74160263716873,51.56200000003446
312294.5467,-7.163962503280472,-4.641009982821478,-2.057156979597189,-9.018717952963062,51.56300000002375
312294.5477,-7.761161466456029,-5.5235992195960515,-2.974114512945375,-9.409148377284014,51.56400000001304
312294.5487,-8.436328151835514,-6.50726450699466,-4.082720585443152,-9.873830919642847,51.56500000000233
312294.5497,-9.12717268890353,-7.525869634450218,-5.310556188114628,-10.358283885306962,51.56599999999162
312294.5507,-9.761451261436143,-8.504501065994097,-6.573033253803393,-10.79841834438093,51.567000000039116
312294.5517,-10.263951294429347,-9.366413387382806,-7.7807214291546405,-11.127312077941577,51.568000000028405
312294.5527,-10.563780399393641,-10.040142743407369,-8.847009104769198,-11.282253088995786,51.569000000017695
312294.5537,-10.60124456795851,-10.466098627601086,-9.695381750976145,-11.211338442710792,51.570000000006985
312294.5547,-10.333647268978785,-10.601999661749621,-10.265645524381094,-10.87896397018913,51.570999999996275
312294.5557,-9.7394525225447,-10.426636008480308,-10.518533427283216,-10.269656022125272,51.57200000004377
312294.5567,-8.82042042830776,-9.941608132875842,-10.438294009189136,-9.389866297192373,51.57300000003306
312294.5577,-7.601526483658748,-9.170892221868979,-10.0330625194081,-8.267557771182071,51.57400000002235
312294.5587,-6.128696174265146,-8.158296879780034,-9.333031799804203,-6.9496332453733345,51.57500000001164
312294.5597,-4.46460194396279,-6.963082630818643,-8.386653663282397,-5.497475737274852,51.57600000000093
312294.5607,-2.6829594450223833,-5.654194925768464,-7.255290122775862,-3.9810601669264676,51.57699999999022
312294.5617,-0.8619052289294026,-4.30369518775951,-6.006879228099062,-2.472239596734078,51.57800000003772
312294.5627,0.9228754948193908,-2.9800498542532923,-4.709268373686964,-1.0378923248293261,51.57900000002701
312294.5637,2.604583132327937,-1.7419470751575337,-3.423890404387855,0.26636988929546856,51.5800000000163
312294.5647,4.130661757392635,-0.6332539055101611,-2.2004128333747586,1.401288707174358,51.58100000000559
312294.5657,5.466556125746485,0.320390746064903,-1.0728828475132508,2.347318877579283,51.58199999999488
312294.5667,6.597508602033124,1.1130187187470195,-0.05773155709431556,3.105912662966192,51.583000000042375
312294.5677,7.528238386731983,1.757681017479741,0.8461937171888635,3.698590836268601,51.584000000031665
312294.5687,8.280562336360806,2.2837838903745964,1.6556108240105492,4.1638865281048565,51.585000000020955
312294.5697,8.88922731303553,2.732697594318619,2.399044723101876,4.552464921072246,51.586000000010245
312294.5707,9.39640727397696,3.152097517862209,3.1117562070738254,4.920909090776951,51.586999999999534
312294.5717,9.845455838502216,3.5896261081207643,3.8299191316000147,5.324801402260406,51.587999999988824
312294.5727,10.27458302182254,4.086534188853115,4.584686030062949,5.811806750372268,51.58900000003632
312294.5737,10.711135298968731,4.671964781144622,5.396794959904886,6.415470688293392,51.59000000002561
312294.5747,11.167099965357528,5.358480943016241,6.272316909647089,7.1503811517520734,51.5910000000149
312294.5757,11.636333528550123,6.139317444519797,7.200028398754612,8.009213118851955,51.59200000000419
312294.5767,12.093841505970497,6.987666225351051,8.150729427518867,8.961993646558007,51.59299999999348
312294.5777,12.497230518113428,7.8581042206247655,9.078629035470156,9.957708007805477,51.59400000004098
312294.5787,12.790233374648704,8.69005906841185,9.924709091371994,10.928137306694774,51.59500000003027
312294.5797,12.907995772093482,9.413004373506304,10.621772637373219,11.793596559063994,51.59600000001956
312294.5807,12.783630327112244,9.952901649550826,11.100706521021426,12.47005155878343,51.59700000000885
312294.5817,12.355408203817513,10.239277997391193,11.297356844847227,12.876951718680964,51.59799999999814
312294.5827,11.573884177609266,10.212259667416621,11.159343174354811,12.9450384899894,51.599000000045635
312294.5837,10.40824526541371,9.82887878980071,10.652130956926674,12.623382757757108,51.600000000034925
312294.5847,8.851236969842583,9.068034182716998,9.763742219139791,11.884970661704573,51.601000000024214
312294.5857,6.922148834239888,7.933611215374471,8.507606745212394,10.730289436157413,51.602000000013504
312294.5867,4.667520231156524,6.455438256738407,6.923227966091502,9.188550480740002,51.603000000002794
312294.5877,2.1594408767908355,4.687961590158432,5.0745431629615165,7.316408120474612,51.603999999992084
312294.5887,-0.5084521512911094,2.7067370162884195,3.046076460630782,5.194268053997987,51.60500000003958
312294.5897,-3.2269601324308668,0.6030437201056335,0.937194231300394,2.920506572766168,51.60600000002887
312294.5907,-5.878780968344581,-1.5228957711699291,-1.1450445834087166,0.6041183166722197,51.60700000001816
312294.5917,-8.34678834964218,-3.5694738471866634,-3.0938139312867707,-1.6435423906487907,51.60800000000745
312294.5927,-10.522400466140207,-5.441345885111889,-4.81051529042149,-3.7171779175874557,51.60899999999674
312294.5937,-12.31329672417794,-7.056473167335695,-6.212124742696038,-5.525360672977323,51.61000000004424
312294.5947,-13.649801315176157,-8.3519258321937,-7.237233875333897,-6.997043355274452,51.61100000003353
312294.5957,-14.489377587414861,-9.287931956705181,-7.850246866952771,-8.08619338205177,51.61200000002282
312294.5967,-14.818854875915635,-9.849828678663563,-8.043368306516784,-8.774160322321103,51.61300000001211
312294.5977,-14.654222496868467,-10.047773342820168,-7.8362231435227985,-9.069603134493864,51.6140000000014
312294.5987,-14.038053337121765,-9.914287245825598,-7.273171722780228,-9.006037153199687,51.61499999999069
312294.5997,-13.034839783611543,-9.499910707321078,-6.418597725667219,-8.63728635262968,51.616000000038184
312294.6007,-11.72471631694526,-8.867425823118143,-5.35063427784885,-8.031322514191753,51.617000000027474
312294.6017,-10.196187459229362,-8.085235109066222,-4.153935421805383,-7.263120551540593,51.618000000016764
312294.6027,-8.538563097683536,-7.220557599089188,-2.9121829646666586,-6.407244205638999,51.619000000006054
312294.6037,-6.834817691724844,-6.333111874514754,-1.7010345490204095,-5.530890614810462,51.61999999999534
312294.6047,-5.15553447196535,-5.469897487808499,-0.5821663545293165,-4.688064856959292,51.62100000004284
312294.6057,-3.5544762795131435,-4.661568313675329,0.4010515075780925,-3.915432481529561,51.62200000003213
312294.6067,-2.0661532800488014,-3.9207254225749133,1.225875582192376,-3.2302217823579453,51.62300000002142
312294.6077,-0.7055516082477858,-3.242259747905141,1.890335919312642,-2.630335810179307,51.62400000001071
312294.6087,0.5300333747368096,-2.6056657959203227,2.411256026545213,-2.0966080473606166,51.625
312294.6097,1.6573281728740092,-1.97904773102125,2.820402956100389,-1.5969177967876655,51.62599999998929
312294.6107,2.702029364619496,-1.3243682223262083,3.1592077104734284,-1.0916933411476633,51.62700000003679
312294.6117,3.692958449615476,-0.603365422445678,3.4726343092824945,-0.5401914775728643,51.62800000002608
312294.6127,4.656089019116865,0.21650324703115098,3.8028555290021093,0.09313504738719176,51.62900000001537
312294.6137,5.6091200141925475,1.156733615590453,4.183406802242245,0.8328777657526291,51.63000000000466
312294.6147,6.557208084357057,2.2236434315710096,4.634435881402914,1.6881523760474437,51.630999999993946
312294.6157,7.490348580366195,3.4058950021889625,5.159550124442209,2.6498224270634907,51.632000000041444
312294.6167,8.382720853837565,4.673961006799973,5.744597250104258,3.6897915320792243,51.633000000030734
312294.6177,9.194106669046509,5.981624230441025,6.358515704438152,4.762475797900973,51.63400000002002
312294.6187,9.873271354658991,7.26939343418232,6.956177281150128,5.8083427161594186,51.63500000000931
312294.6197,10.362987811318705,8.4695197549198,7.482938618404493,6.75918747555193,51.6359999999986
312294.6207,10.606204731794966,9.512130671433322,7.8804402020124416,7.544634095014978,51.6370000000461
312294.6217,10.55273049631407,10.331878474280618,8.093059335599845,8.099215444165836,51.63800000003539
312294.6227,10.16573651855343,10.874439489936405,8.074350479707624,8.369316684690862,51.63900000002468
312294.6237,9.427385578219399,11.102205351800798,7.792799878073532,8.319268240869608,51.64000000001397
312294.6247,8.342962290233682,10.998578228991613,7.2362823789100785,7.935947389615854,51.64100000000326
312294.6257,6.943017836454128,10.570411497364729,6.41473105651588,7.23138519668811,51.64199999999255
312294.6267,5.2832266477568375,9.848313416079202,5.360702772168619,6.243064653039224,51.64300000004005
312294.6277,3.441871044848361,8.884736889963063,4.1277283621137855,5.0318181866062,51.64400000002934
312294.6287,1.5150997773894388,7.7499933346778365,2.7865545795459243,3.67746659117334,51.64500000001863
312294.6297,-0.389674464996834,6.526532006924263,1.41959478835625,2.2725639389233754,51.646000000007916
312294.6307,-2.161686638302319,5.301997968994926,0.11408602109421402,0.91480234377439,51.646999999997206
312294.6317,-3.6953519594979305,4.161705199429025,-1.0454165148210632,-0.3012322142543033,51.6480000000447
312294.6327,-4.898659675690983,3.1812239949855243,-1.9845033972600632,-1.2921901469277408,51.64900000003399
312294.6337,-5.700668046570543,2.419777376237061,-2.6456242527352942,-1.9932131789141356,51.65000000002328
312294.6347,-6.057412773528554,1.9150698692081298,-2.993404844238833,-2.3636273309570512,51.65100000001257
312294.6357,-5.9556790242626345,1.6800404577026435,-3.018049081340652,-2.3905287183983224,51.65200000000186
312294.6367,-5.414277986863375,1.70185222059803,-2.736484501244771,-2.0899114759394,51.65299999999115
312294.6377,-4.482694533331363,1.9432213703599854,-2.1911210932381366,-1.5052163406591286,51.65400000003865
312294.6387,-3.23721167182352,2.345968257288334,-1.446318201436295,-0.7034203579428189,51.65500000002794
312294.6397,-1.7748472849321693,2.83646358044794,-0.5828709540200089,0.23098041704973293,51.65600000001723
312294.6407,-0.20563732647696062,3.3324646912428926,0.30898469824210767,1.203544731340901,51.65700000000652
312294.6417,1.356051690766211,3.750706631403711,1.137408827534522,2.1183192708637932,51.65799999999581
312294.6427,2.800413498161666,4.014542895293284,1.8169171072441108,2.8863532956141054,51.65900000004331
312294.6437,4.030516125280834,4.060928461037798,2.2757327902882585,3.4335101428536703,51.660000000032596
312294.6447,4.969319474340286,3.8461025090745613,2.4618590914258065,3.706858651577686,51.661000000021886
312294.6457,5.564803886722521,3.349454051901923,2.3473221576111043,3.679063204309585,51.662000000011176
312294.6467,5.792798825425626,2.5752281769933614,1.930208988812117,3.350381608920926,51.663000000000466
312294.6477,5.65731927019679,1.5519368285692607,1.2343339896214884,2.748107101262781,51.663999999989755
312294.6487,5.1884516210333915,0.3295560774943232,0.3065920622959697,1.9235324911529226,51.66500000003725
312294.6497,4.438058322453074,-1.0251993718800552,-0.7877263307222663,0.9467476752729027,51.66600000002654
312294.6507,3.4737693178501248,-2.4350541752608406,-1.9711928222057906,-0.10021595009323753,51.66700000001583
312294.6517,2.3718799569049733,-3.819199508491414,-3.1614621324195356,-1.131228540250192,51.66800000000512
312294.6527,1.209864938694554,-5.10049202740954,-4.27876244951453,-2.064139196057587,51.66899999999441
312294.6537,0.05923815848742842,-6.2121390899564775,-5.2529440473420905,-2.8283198355460235,51.67000000004191
312294.6547,-1.0205623676275506,-7.103242799056536,-6.029426447335434,-3.3709667331956075,51.6710000000312
312294.6557,-1.9867013891482024,-7.742693751406727,-6.573499159537459,-3.6615776781171987,51.67200000002049
312294.6567,-2.8154914903377266,-8.12107206269065,-6.872597509616733,-3.694204535070167,51.67300000000978
312294.6577,-3.502768521095154,-8.25041174967834,-6.9363767476194385,-3.4872999664263618,51.67399999999907
312294.6587,-4.062131151566368,-8.161895313825786,-6.794624644001021,-3.081211724473524,51.675000000046566
312294.6597,-4.52129369747803,-7.901747702734675,-6.493263798806331,-2.5336053562183736,51.676000000035856
312294.6607,-4.916989311533849,-7.525772948027728,-6.08887928778887,-1.9132942892476201,51.677000000025146
312294.6617,-5.289002728919994,-7.09310575624945,-5.642347110842208,-1.2931059623043988,51.678000000014435
312294.6627,-5.673994193177909,-6.659821722575278,-5.212220711187949,-0.7424996258471275,51.679000000003725
312294.6637,-6.09979113549534,-6.27305690659714,-4.848548879562431,-0.3206675688146044,51.679999999993015
312294.6647,-6.5807705122849995,-5.96622986551531,-4.587747432731147,-0.07079570594842875,51.68100000004051
312294.6657,-7.114838101270407,-5.755842865649223,-4.449034552064272,-0.016037621662984003,51.6820000000298
312294.6667,-7.682343414716809,-5.6401756425746985,-4.432777033065982,-0.1575806973383404,51.68300000001909
312294.6677,-8.247067138727315,-5.599991112515654,-4.520898289035691,-0.47497144429719906,51.68400000000838
312294.6687,-8.759202423952736,-5.6011671999969,-4.67928841598951,-0.9286406823476983,51.68499999999767
312294.6697,-9.160043546188762,-5.598972866015421,-4.861952948140142,-1.4643501824321365,51.68600000004517
312294.6707,-9.387916235177496,-5.543538990807467,-5.016460370329307,-2.019092440649633,51.68700000003446
312294.6717,-9.384751291431558,-5.385952626176891,-5.090116536683669,-2.5278330257642803,51.68800000002375
312294.6727,-9.102630302986814,-5.08433843239727,-5.036219953878696,-2.930404318776278,51.68900000001304
312294.6737,-8.50962672568231,-4.60929031208207,-4.819742768302904,-3.177848183093758,51.69000000000233
312294.6747,-7.594328022700946,-3.94807947839632,-4.421839140614969,-3.2375640289916596,51.69099999999162
312294.6757,-6.368548952963915,-3.1071862345845243,-3.8426998522037676,-3.096741780337144,51.692000000039116
312294.6767,-4.867920287720272,-2.1128696492755226,-3.1024378406339013,-2.763733998224336,51.693000000028405
312294.6777,-3.1502441053743144,-1.0096855818375037,-2.2398874485355376,-2.2672303573968824,51.694000000017695
312294.6787,-1.2917259880098257,0.14293029492489784,-1.3094108272100295,-1.6533199475035516,51.695000000006985
312294.6797,0.6185957146576676,1.2757021680341898,-0.37600722768062417,-0.9807403371654204,51.695999999996275
312294.6807,2.485723634621273,2.315698477660002,0.4908053011587861,-0.31479575304634755,51.69700000004377
312294.6817,4.2162463991687265,3.1930639106545327,1.2237383609694832,0.27943815296839863,51.69800000003306
312294.6827,5.725852406940472,3.847641234023694,1.7644451433617887,0.743932092244689,51.69900000002235
312294.6837,6.946107361044733,4.234829304283333,2.06952579777834,1.0338483071482327,51.70000000001164
312294.6847,7.829856778014768,4.33009228574819,2.1152191671512903,1.1223831722451332,51.70100000000093
312294.6857,8.354743373914996,4.131661906064252,1.9002972983893727,1.0038056693398276,51.70199999999022
312294.6867,8.524507959326195,3.6611472293043295,1.446851150727562,0.6943690720453374,51.70300000003772
312294.6877,8.367953912171119,2.9619681485733436,0.7988597576539329,0.23098492662437423,51.70400000002701
312294.6887,7.93567886423229,2.095739899581118,0.01865083802512941,-0.33222790170727545,51.7050000000163
312294.6897,7.294891133795442,1.1369357062635903,-0.8184326385299785,-0.9291928722867054,51.70600000000559
312294.6907,6.5228117752236345,0.1663235726123888,-1.6306684404391099,-1.488415764260828,51.70699999999488
312294.6917,5.699297968179503,-0.7362054070506776,-2.33727211715432,-1.9401741022096533,51.708000000042375
312294.6927,4.89939662578906,-1.4987380563906367,-2.865703464207664,-2.2236453096201765,51.709000000031665
312294.6937,4.1865413720260305,-2.0636942761554082,-3.1582675924482553,-2.293263048827654,51.710000000020955
312294.6947,3.607040963407543,-2.392830761654778,-3.177380079506368,-2.1236615821491966,51.711000000010245
312294.6957,3.1863791303463747,-2.4704162209528597,-2.908991396103975,-1.7127019427923498,51.711999999999534
312294.6967,2.927667181124152,-2.3042761318769736,-2.363840852225134,-1.0822583244177935,51.712999999988824
312294.6977,2.8123789915404513,-1.9246097627845535,-1.5764177716634602,-0.2766604531195531,51.71400000003632
312294.6987,2.8032738904070635,-1.38069657387383,-0.6017273536486184,0.64108340777307,51.71500000002561
312294.6997,2.849198365342196,-0.7358123542486099,0.4898306412205949,1.5949401504321745,51.7160000000149
312294.7007,2.8912734547051726,-0.06084774540329447,1.618981141605668,2.5028537905787527,51.71700000000419
312294.7017,2.869839182338535,0.5727536281214144,2.704867833626298,3.2844321001474404,51.71799999999348
312294.7027,2.7314537098585676,1.100055486080556,3.672425327578398,3.8685830649039707,51.71900000004098
312294.7037,2.4352402569332754,1.469007174818688,4.459126573773801,4.200366229906252,51.72000000003027
312294.7047,1.9579397454415903,1.645526812002838,5.020464632981448,4.246395266673342,51.72100000001956
312294.7057,1.297155223556058,1.6168029836689315,5.333651924815599,3.998264004836036,51.72200000000885
312294.7067,0.4724528959562855,1.3925024397528774,5.399194084101422,3.4736556704199533,51.72299999999814
312294.7077,-0.4758034643418622,1.0037749915838805,5.2402026021182335,2.7150160671871064,51.724000000045635
312294.7087,-1.489783566574684,0.5001606888170445,4.89953034719592,1.7859045456289995,51.725000000034925
312294.7097,-2.4993711247579053,-0.055292504463703394,4.435025425025503,0.7653592434272666,51.726000000024214
312294.7107,-3.428693631561286,-0.592219677030081,3.913381067872566,-0.2591963325306829,51.727000000013504
312294.7117,-4.203365618502591,-1.0398323555585063,3.4031945932817163,-1.1998382616165248,51.728000000002794
312294.7127,-4.757736115059007,-1.3338421050336728,2.9679237815978303,-1.9760756471406182,51.728999999992084
312294.7137,-5.041426806099541,-1.4227418568849093,2.6594369811936507,-2.522085021834822,51.73000000003958
312294.7147,-5.02451300724127,-1.2728377551709849,2.512793124741758,-2.7925656442025035,51.73100000002887
312294.7157,-4.70082873928402,-0.8715486183979387,2.5427655345662026,-2.7666683886795784,51.73200000001816
312294.7167,-4.089057389227062,-0.22866116177884072,2.7424508796106943,-2.4496361653805074,51.73300000000745
312294.7177,-3.231483211987419,0.6245699216259465,3.084098786227,-1.8720135225917076,51.73399999999674
312294.7187,-2.190505483366665,1.6383767871023072,3.5220785156122103,-1.086515988912014,51.73500000004424
312294.7197,-1.0432344259214437,2.7491873047224336,3.997688206862686,-0.16287324523259034,51.73600000003353
312294.7207,0.12532506103966667,3.885616588592235,4.445330052919417,0.8188472440358151,51.73700000002282
312294.7217,1.22985754769757,4.975146067420478,4.799439227500674,1.7757865570426896,51.73800000001211
312294.7227,2.192368619956497,5.950830041514456,5.001478673848252,2.629981400717187,51.7390000000014
312294.7237,2.9491368108877194,6.757369822560272,5.006303427147584,3.3154540728983943,51.73999999999069
312294.7247,3.456322712931967,7.355960684140507,4.787257841547696,3.7840303400208093,51.741000000038184
312294.7257,3.693700125081713,7.727440493819583,4.339491158054561,4.009338524147307,51.742000000027474
312294.7267,3.666154051553591,7.873438851563975,3.681149430221528,3.9886240455044244,51.743000000016764
312294.7277,3.4028048392045274,7.815425084840205,2.852308144694948,3.742229564278573,51.744000000006054
312294.7287,2.953845959848409,7.591762904150137,1.9117298664769335,3.3108205627182263,51.74499999999534
312294.7297,2.3854027992295173,7.253078275016112,0.931743500329399,2.750657226279897,51.74600000004284
312294.7307,1.7729099916038749,6.856415516560962,-0.008274367428046735,2.1274041976967806,51.74700000003213
312294.7317,1.1936468915680074,6.458778147144239,-0.8291979991590736,1.5091115327506155,51.74800000002142
312294.7327,0.719150921959933,6.1107135037550355,-1.459534969282786,0.9590791119239542,51.74900000001071
312294.7337,0.40823900684870185,5.850597378589015,-1.8421860228980933,0.5293251370087928,51.75
312294.7347,0.3013070909102588,5.70020696053051,-1.9399335442400545,0.2553163567977752,51.75099999998929
312294.7357,0.41645273308948666,5.662043764007905,-1.739130368289197,0.15248951444890654,51.75200000003679
312294.7367,0.7477881215899826,5.718695278310997,-1.2512322683149493,0.21491279436134864,51.75300000002608
312294.7377,1.266097890240555,5.834321673834241,-0.5120234843122204,0.416220561116701,51.75400000001537
312294.7387,1.9217685632315185,5.958141901732413,0.4213948664333915,0.7127256767766728,51.75500000000466
312294.7397,2.649696472637515,6.029592772480165,1.4755701163141026,1.0483937849772336,51.755999999993946
312294.7407,3.3756899909879667,5.984664913797228,2.5671478192917108,1.3611749502292336,51.757000000041444
312294.7417,4.023738470360937,5.762797722160806,3.6101963706504128,1.5900487423650562,51.758000000030734
312294.7427,4.523438295494454,5.313653721421492,4.523715700758099,1.6820632167444676,51.75900000002002
312294.7437,4.816853839186754,4.603097457056606,5.238624962367353,1.598643981173102,51.76000000000931
312294.7447,4.864148961382142,3.6177750206361887,5.703577909072084,1.3205173619229376,51.7609999999986
312294.7457,4.647447229064581,2.367820854965393,5.889071100531674,0.8507251729805171,51.7620000000461
312294.7467,4.172554135598062,0.8873961153721391,5.7894776428587775,0.21539483973227025,51.76300000003539
312294.7477,3.4683850135413814,-0.767029609559322,5.422841390936383,-0.5378505363221426,51.76400000002468
312294.7487,2.584167373679546,-2.520524123291393,4.828483571743749,-1.3437238061043892,51.76500000001397
312294.7497,1.584703969778213,-4.285330989415868,4.062684407344978,-2.1250050049524054,51.76600000000326
312294.7507,0.5441716541985704,-5.967790997398711,3.1928859828848504,-2.7996385197012366,51.76699999999255
312294.7517,-0.4609274151911645,-7.47591136282315,2.291001476391417,-3.288522092744099,51.76800000004005
312294.7527,-1.3589652296824086,-8.726882262900775,1.426496542419171,-3.5232383215084515,51.76900000002934
312294.7537,-2.089829477959085,-9.653842600377088,0.6599234661240213,-3.452976932927479,51.77000000001863
312294.7547,-2.610356883671433,-10.211266408480522,0.037536509651991075,-3.049967148343966,51.771000000007916
312294.7557,-2.8980302664336732,-10.378471410431716,-0.41249692208152755,-2.3128772580549093,51.771999999997206
312294.7567,-2.952585317848725,-10.160929380948852,-0.681938601621703,-1.2678298918308144,51.7730000000447
312294.7577,-2.795381720780507,-9.58926689207486,-0.7822222916481444,0.03309207558476708,51.77400000003399
312294.7587,-2.466615829442597,-8.716064522476554,-0.7421558668703092,1.515734453897515,51.77500000002328
312294.7597,-2.0206666872823784,-7.610771393970123,-0.6038464700435819,3.0898115121650043,51.77600000001257
312294.7607,-1.5200525124119737,-6.353229736884475,-0.4172901384569007,4.656355597559496,51.77700000000186
312294.7617,-1.0286126383083563,-5.02643385719168,-0.23420027291766332,6.115990206603456,51.77799999999115
312294.7627,-0.6046066595342773,-3.7092168602000264,-0.10172434869863296,7.377260507196254,51.77900000003865
312294.7637,-0.29443062183450186,-2.4695601759731445,-0.05670799551251958,8.364249232061658,51.78000000002794
312294.7647,-0.12758870639156852,-1.3591552944669556,-0.12110907995287763,9.022773911241707,51.78100000001723
312294.7657,-0.11343403130835888,-0.40972068587709004,-0.29904734970065255,9.324596959638397,51.78200000000652
312294.7667,-0.24001622546962248,0.3685978871095832,-0.5758091914278998,9.269269999721853,51.78299999999581
312294.7677,-0.4751636606404685,0.986621400117451,-0.9189286186137483,8.883459526494976,51.78400000004331
312294.7687,-0.7697053348024611,1.4734206057583068,-1.2812544743387342,8.217840700083723,51.785000000032596
312294.7697,-1.062523365543168,1.871789435693398,-1.6057110189396235,7.3418764541610955,51.786000000021886
312294.7707,-1.2869430022879995,2.232386382133135,-1.8312847859135006,6.336997961394187,51.787000000011176
312294.7717,-1.3778311925518338,2.607150126208692,-1.899642246054515,5.288850647694167,51.788000000000466
312294.7727,-1.27870051105393,3.042664234219815,-1.7617133108677647,4.279353224598331,51.788999999989755
312294.7737,-0.9481101061528849,3.5741476172462923,-1.3835721208016634,3.37932779468165,51.79000000003725
312294.7747,-0.36471988220443746,4.220682608213944,-0.7510094806550679,2.6423962585795513,51.79100000002654
312294.7757,0.469517779864795,4.982167456426643,0.12768527344162195,2.10070844649794,51.79200000001583
312294.7767,1.5283652992606895,5.838307171018289,1.2210432540567715,1.76288355239475,51.79300000000512
312294.7777,2.7626299313787372,6.749753033133587,2.4759424849593477,1.6143267352785537,51.79399999999441
312294.7787,4.103714725017525,7.661286807826806,3.8212331087038334,1.6198487820716136,51.79500000004191
312294.7797,5.469072201002055,8.506741810308897,5.173146677923842,1.7282914359121924,51.7960000000312
312294.7807,6.769056613452386,9.215179561079912,6.441998688535469,1.878666395517941,51.79700000002049
312294.7817,7.914533362368203,9.717714833440303,7.5395644858217885,2.0071710237543052,51.79800000000978
312294.7827,8.824528955100572,9.95431580866899,8.386439606180021,2.0543624837616234,51.79899999999907
312294.7837,9.433199266865897,9.879906276339511,8.918693443743702,1.9717620822391493,51.800000000046566
312294.7847,9.695458327849037,9.469163302680402,9.093190228348742,1.7272237474196719,51.801000000035856
312294.7857,9.590738205799886,8.719529988040408,8.891077442428735,1.308528427672621,51.802000000025146
312294.7867,9.124530248118814,7.65213644047264,8.319116764880757,0.7248469474550413,51.803000000014435
312294.7877,8.327571462308207,6.31052586894401,7.408739382690336,0.005929510897298436,51.804000000003725
312294.7887,7.252766308755947,4.757296751441497,6.212925893115822,-0.8008907862206394,51.804999999993015
312294.7897,5.970151551373039,3.0689753688578523,4.801219705706964,-1.6355730648760451,51.80600000004051
312294.7907,4.560398856171234,1.3296056842757649,3.2533614461088245,-2.431625909238177,51.8070000000298
312294.7917,3.1074883174870247,-0.37633133025860116,1.652162888937207,-3.123110725381694,51.80800000001909
312294.7927,1.6912625567578135,-1.9709915152604385,0.07630956910172357,-3.6516789788843935,51.80900000000838
312294.7937,0.38057808502664925,-3.389558000194862,-1.4062154979693389,-3.972925726882227,51.80999999999767
312294.7947,-0.7722923502565511,-4.585338873684046,-2.7434589713531823,-4.061407906526012,51.81100000004517
312294.7957,-1.7354794460172744,-5.5330891771218695,-3.903073038662558,-3.9138067981399325,51.81200000003446
312294.7967,-2.4992100640263666,-6.230248108784697,-4.873812766524826,-3.5498970725637764,51.81300000002375
312294.7977,-3.0752357621904842,-6.695986243532068,-5.664834735667833,-3.01120186083794,51.81400000001304
312294.7987,-3.4940846161537435,-6.968171693629828,-6.302895480554366,-2.357442997188774,51.81500000000233
312294.7997,-3.8004393953750184,-7.09856750035489,-6.827757269608873,-1.6611153672573158,51.81599999999162
312294.8007,-4.04713044262392,-7.146745242879864,-7.286287521140549,-1.0007024801678737,51.817000000039116
312294.8017,-4.288368383902228,-7.173324963406608,-7.725869035764808,-0.4531883882739075,51.818000000028405
312294.8027,-4.572916612143786,-7.23321676655096,-8.18780827395147,-0.08659521172320175,51.819000000017695
312294.8037,-4.937908957822009,-7.369538436400907,-8.701431079673982,0.0467216647924904,51.820000000006985
312294.8047,-5.403953493805949,-7.608816185732089,-9.27948913592731,-0.08464235346051689,51.820999999996275
312294.8057,-5.972035289662408,-7.957948745803385,-9.915372302179918,-0.48780659887643385,51.82200000004377
312294.8067,-6.622551652273332,-8.403240803532832,-10.582444176512467,-1.1445625318224795,51.82300000003306
312294.8077,-7.3166005181805405,-8.911607316891942,-11.235607986128864,-2.0127444917272177,51.82400000002235
312294.8087,-7.99941707352488,-9.433835490948306,-11.814987700427631,-3.029901752192441,51.82500000001164
312294.8097,-8.605637529061964,-9.909587206377356,-12.251396776940528,-4.118936239505024,51.82600000000093
312294.8107,-9.065883547351818,-10.27365146225738,-12.47308501142658,-5.1951784705322535,51.82699999999022
312294.8117,-9.314024416978317,-10.46283094216534,-12.41312048047301,-6.174232987297522,51.82800000003772
312294.8127,-9.294400239933907,-10.422781497490323,-12.016691788329762,-6.979847655787125,51.82900000002701
312294.8137,-8.96828558855862,-10.114124652033619,-11.247613045535015,-7.551056242197358,51.8300000000163
312294.8147,-8.318939902907845,-9.517221138822988,-10.0933808123853,-7.847911262635742,51.83100000000559
312294.8157,-7.354722031822847,-8.635121433984725,-8.56826246951004,-7.855257737336566,51.83199999999488
312294.8167,-6.10992915935168,-7.494384817807335,-6.714076786968782,-7.584185246235424,51.833000000042375
312294.8177,-4.643237210106111,-6.143664561996121,-4.59854252024577,-7.071017481988942,51.834000000031665
312294.8187,-3.0338496449907586,-4.650173308962117,-2.311299024304885,-6.373933824372859,51.835000000020955
312294.8197,-1.3756819964312157,-3.0943484410257134,0.042077801638063614,-5.567543506163222,51.836000000010245
312294.8207,0.2299009077350264,-1.5632121478977448,2.3475515628739614,-4.735927819009575,51.836999999999534
312294.8217,1.6821377866103024,-0.1430479206427192,4.49093956135054,-3.9648106944867694,51.837999999988824
312294.8227,2.8889792423833374,1.087918046504203,6.366331862422516,-3.3335989646698474,51.83900000003632
312294.8237,3.774510180929263,2.0661420481378627,7.883871886958078,-2.908042984208422,51.84000000002561
312294.8247,4.2850092028519535,2.7480728061201805,8.976215299574886,-2.7342053982067918,51.8410000000149
312294.8257,4.393096978959481,3.1136510329929616,9.603108349170894,-2.8342970251524964,51.84200000000419
312294.8267,4.099606965349449,3.1676778383386135,9.7537033252019,-3.2047568520131504,51.84299999999348
312294.8277,3.433027670714562,2.9389360523164227,9.44644026719049,-3.816735906753348,51.84400000004098
312294.8287,2.446595028338118,2.477163869241832,8.726550024688235,-4.6189135506796575,51.84500000003027
312294.8297,1.2133339432652481,1.8481849967288682,7.661452411189696,-5.542352068691908,51.84600000001956
312294.8307,-0.18046160517636795,1.1276738047955404,6.334513542214851,-6.506902950061616,51.84700000000885
312294.8317,-1.642678798246776,0.3941609187549166,4.83777036641505,-7.428534524923156,51.84799999999814
312294.8327,-3.0830558654799294,-0.2780479068797069,3.26431437540403,-8.22686938230414,51.849000000045635
312294.8337,-4.420350953398647,-0.8253652842731605,1.7010429128844267,-8.832208797410038,51.850000000034925
312294.8347,-5.588349503719427,-1.2002179294784,0.2224344248716403,-9.191380896085953,51.851000000024214
312294.8357,-6.540173767937304,-1.3746578761146624,-1.114110878743391,-9.271873202000684,51.852000000013504
312294.8367,-7.250533537656633,-1.3419725394806754,-2.270989322478922,-9.063885966305607,51.853000000002794
312294.8377,-7.715766421836296,-1.116177001112369,-3.2309954654128505,-8.580152643810122,51.853999999992084
312294.8387,-7.951738222164407,-0.729481938371197,-3.995845948392397,-7.8535971285519715,51.85500000003958
312294.8397,-7.98988709264229,-0.2280300057733037,-4.582871489234767,-6.933111737642396,51.85600000002887
312294.8407,-7.871878115910657,0.33363744264498446,-5.020302766103429,-5.877924230785428,51.85700000001816
312294.8417,-7.643469611998008,0.8987992156425156,-5.3417105021726945,-4.751158209387939,51.85800000000745
312294.8427,-7.348265648340565,1.4148113130355735,-5.5802363681857745,-3.6132657145207205,51.85899999999674
312294.8437,-7.022033691455276,1.838756316724484,-5.763262075341691,-2.5160165311988187,51.86000000004424
312294.8447,-6.688201799005221,2.141905616235095,-5.908108490151091,-1.4976652371899843,51.86100000003353
312294.8457,-6.355022718659531,2.3125391873766445,-6.019240608135524,-0.5797909018140949,51.86200000002282
312294.8467,-6.01471547276732,2.356837446736126,-6.087289623683358,0.23387174465309818,51.86300000001211
312294.8477,-5.644686161482555,2.2977581457017764,-6.090006809954895,0.9564992164730265,51.8640000000014
312294.8487,-5.210709726181167,2.1720185831012246,-5.995055338978922,1.6152535601322837,51.86499999999069
312294.8497,-4.6717453526552895,2.0254989444514675,-5.764346611878268,2.246682448692627,51.866000000038184
312294.8507,-3.9858811137415264,1.9075467924984282,-5.3594573531581755,2.8909409584062757,51.867000000027474
312294.8517,-3.116776308326432,1.8647791726456528,-4.747540007375212,3.5854587607873234,51.868000000016764
312294.8527,-2.0399058224840823,1.9350356808808873,-3.9070746299482955,4.358741667665667,51.869000000006054
312294.8537,-0.7479166073020591,2.142127253410828,-2.832812391844397,5.224992125625489,51.86999999999534
312294.8547,0.7455179626900251,2.491951917045491,-1.5393293602476843,6.18015934297773,51.87100000004284
312294.8557,2.4038214317208553,2.970417251445833,-0.06273808968012105,7.199893112934488,51.87200000003213
312294.8567,4.167902425839089,3.5434325794438135,1.5397185556362876,8.239689180857626,51.87300000002142
312294.8577,5.958874664677175,4.159029162350711,3.192259186505712,9.237296282121514,51.87400000001071
312294.8587,7.682945531922285,4.751454014283957,4.805190856959682,10.11722706521583,51.875
312294.8597,9.238091920319325,5.246883314308148,6.281213528646751,10.79699947103717,51.87599999998929
312294.8607,10.521957881043223,5.57023455049128,7.522868670961564,11.194553165202562,51.87700000003679
312294.8617,11.440276538974102,5.652439103258061,8.440472188801866,11.236155552738918,51.87800000002608
312294.8627,11.915052114097067,5.437480815499275,8.95980757826478,10.864047011802432,51.87900000001537
312294.8637,11.891743742731201,4.888517097329131,9.02886001016721,10.043082240415709,51.88000000000466
312294.8647,11.34477114028008,3.9924766190016134,8.62294616497995,8.765703988604905,51.880999999993946
312294.8657,10.280805979652705,2.762664501204527,7.747731570494479,7.05472988764807,51.882000000041444
312294.8667,8.739508802447428,1.2390891494264542,6.439814262973295,4.963629158995504,51.883000000030734
312294.8677,6.791600883425686,-0.5135630259246191,4.76477321277128,2.574195176132439,51.88400000002002
312294.8687,4.534401990265407,-2.410158185354022,2.8128113047598884,-0.00823964382307115,51.88500000000931
312294.8697,2.0851954893505384,-4.3511962990033854,0.6923437054631871,-2.661671316059679,51.8859999999986
312294.8707,-0.4270201556899125,-6.230213404387338,-1.4779279333223665,-5.25580362364526,51.8870000000461
312294.8717,-2.8706885153892077,-7.941849921751844,-3.5777749377971673,-7.66122598535586,51.88800000003539
312294.8727,-5.120975509289856,-9.389866535165206,-5.494277188986534,-9.758599858173048,51.88900000002468
312294.8737,-7.0683799638323155,-10.494393527873825,-7.129970584344879,-11.44706058064433,51.89000000001397
312294.8747,-8.62594747191803,-11.197771314469069,-8.409606510161936,-12.651112405563655,51.89100000000326
312294.8757,-9.734493591275546,-11.468472289699662,-9.284952683535856,-13.325432519929748,51.89199999999255
312294.8767,-10.365429478678571,-11.302774233083905,-9.737246480109043,-13.457191933236281,51.89300000004005
312294.8777,-10.52100617887147,-10.724066005869522,-9.777128792310423,-13.065728893527904,51.89400000002934
312294.8787,-10.23203158484794,-9.779886897230309,-9.442117891223079,-12.199652238287271,51.89500000001863
312294.8797,-9.553343882678663,-8.537010542784147,-8.791906704236645,-10.931684792981677,51.896000000007916
312294.8807,-8.557525313189998,-7.075062806097535,-7.901962185174353,-9.351758521395395,51.896999999997206
312294.8817,-7.327491545793342,-5.479293410943511,-6.856053700042856,-7.5590246033805695,51.8980000000447
312294.8827,-5.948680883444339,-3.8331911764925137,-5.738424834273151,-5.653528857223587,51.89900000003399
312294.8837,-4.5015860407768615,-2.211636062490805,-4.626341904559453,-3.7283180711104937,51.90000000002328
312294.8847,-3.0553183490264315,-0.6752179864407072,-3.5837015234621146,-1.8626849860018146,51.90100000001257
312294.8857,-1.662775843196706,0.7337709047993909,-2.656264333676456,-0.11713505919409754,51.90200000000186
312294.8867,-0.3578149855159494,1.993334777988669,-1.8689141770681679,1.4695206536703405,51.90299999999115
312294.8877,0.8453819316089328,3.1016294239269264,-1.2251381702980726,2.880757328619462,51.90400000003865
312294.8887,1.9507747065124328,4.0747528520207945,-0.7087034689852006,4.1206540475363775,51.90500000002794
312294.8897,2.9770158359900427,4.942752307073025,-0.28729236786302126,5.2102012801357205,51.90600000001723
312294.8907,3.952519629613427,5.744301766729417,0.08233042516993316,6.182055746152351,51.90700000000652
312294.8917,4.909627867438838,6.5206304281060286,0.4481879178689358,7.074345840495851,51.90799999999581
312294.8927,5.87853234088058,7.309350522160282,0.8566533403663155,7.924214448476851,51.90900000004331
312294.8937,6.881629317976236,8.138835650042878,1.3463795241297931,8.761799855290306,51.910000000032596
312294.8947,7.9289271070023775,9.023738765759953,1.943221928976867,9.605298679710463,51.911000000021886
312294.8957,9.015011281789286,9.962118366308529,2.6566723896308613,10.4576334399982,51.912000000011176
312294.8967,10.117904800718904,10.93447456542719,3.4781602855165685,11.305073964447963,51.913000000000466
312294.8977,11.199959215340591,11.904800224775295,4.38138306490471,12.117953990788159,51.913999999989755
312294.8987,12.210698740413527,12.8235457853304,5.324618456304029,12.853402938119688,51.91500000003725
312294.8997,13.091332747091833,13.63220042431155,6.254767237821194,13.459800262727958,51.91600000002654
312294.9007,13.780474993892994,14.269026132419716,7.1126983836830915,13.88247739958548,51.91700000001583
312294.9017,14.220477469993057,14.675361751176437,7.8393353563643915,14.070058397811346,51.91800000000512
312294.9027,14.36371626748532,14.801852812472971,8.38184643899732,13.980758495271868,51.91899999999441
312294.9037,14.17816362733073,14.613966288631861,8.699290776200217,13.587957381031023,51.92000000004191
312294.9047,13.651644736222046,14.096216821663818,8.767126247740643,12.884431191881484,51.9210000000312
312294.9057,12.794303766098821,13.25465603497921,8.580099944891721,11.884757850508413,51.92200000002049
312294.9067,11.638978690295259,12.11734681955809,8.153205379143861,10.625591328200004,51.92300000000978
312294.9077,10.239391307959904,10.732743220845384,7.520586307870289,9.163713897901625,51.92399999999907
312294.9087,8.666277171482404,9.166104089333052,6.7324756617770865,7.57200023448587,51.925000000046566
312294.9097,7.001788052961646,7.494264454382139,5.850458656749507,5.933640918171993,51.926000000035856
312294.9107,5.332676462757972,5.799253221142694,4.94152168432146,4.335154117037177,51.927000000025146
312294.9117,3.742899800775122,4.16136290182074,4.071475669280613,2.858844709473193,51.928000000014435
312294.9127,2.3063479920670225,2.652334965306722,3.2984114004517937,1.5754365445794738,51.929000000003725
312294.9137,1.0803959972845505,1.3293171378602102,2.6668477738089784,0.5375988862045177,51.929999999993015
312294.9147,0.10091121098361408,0.23017713912449123,2.2031712937968835,-0.22498771443228466,51.93100000004051
312294.9157,-0.6207879318262166,-0.6293722118004265,1.9128424594791702,-0.7085208735121603,51.9320000000298
312294.9167,-1.0987090750255932,-1.2565562423105283,1.7796736904486588,-0.9356068223333629,51.93300000001909
312294.9177,-1.3706008716212192,-1.6801524515314956,1.767280910547526,-0.9533409856602796,51.93400000000838
312294.9187,-1.4941340034076067,-1.9470686448910235,1.82259666993751,-0.8290822483136253,51.93499999999767
312294.9197,-1.541191801920288,-2.1172169150704847,1.8811278378057845,-0.6442870604117679,51.93600000004517
312294.9207,-1.5907972573298195,-2.2571816147853925,1.873465678395598,-0.4869585870100012,51.93700000003446
312294.9217,-1.7213365814563282,-2.433297482661847,1.7324279260615698,-0.4434031032853198,51.93800000002375
312294.9227,-2.0028098590758057,-2.7048120357768712,1.4001441315076302,-0.5900572517270576,51.93900000001304
312294.9237,-2.489839670373642,-3.117798435512198,0.834394057935532,-0.9861484234326888,51.94000000000233
312294.9247,-3.216098688852595,-3.7004119234128066,0.013574725798981974,-1.6678762546895627,51.94099999999162
312294.9257,-4.190683772166293,-4.4599516630579465,-1.0602012902347078,-2.644662964547136,51.942000000039116
312294.9267,-5.396779774304804,-5.3820131778139695,-2.360197650415969,-3.8978273272172292,51.943000000028405
312294.9277,-6.792738965729352,-6.431811776767643,-3.8364493094481906,-5.381809921897715,51.944000000017695
312294.9287,-8.315472520018066,-7.557544431112105,-5.419353911986827,-7.027837711244847,51.945000000006985
312294.9297,-9.885831155177314,-8.69545734597768,-7.025141847205237,-8.749686967883223,51.945999999996275
312294.9307,-11.415463871708546,-9.776118597793248,-8.562726386658094,-10.451007084988573,51.94700000004377
312294.9317,-12.814504938884463,-10.73127616417011,-9.941301868626622,-12.033522717424079,51.94800000003306
312294.9327,-13.999363179147341,-11.500623192816759,-11.07798487109337,-13.405351878997747,51.94900000002235
312294.9337,-14.899881430988781,-12.037800257002393,-11.904787874191122,-14.488670630604187,51.95000000001164
312294.9347,-15.465198286098211,-12.315037959806318,-12.374277631059302,-15.226021352961904,51.95100000000093
312294.9357,-15.667772422801578,-12.32597548360017,-12.463395306237706,-15.58469474062285,51.95199999999022
312294.9367,-15.505209521039355,-12.086368703482611,-12.175090337732588,-15.558802574756095,51.95300000003772
312294.9377,-14.999745301356937,-11.632607975570652,-11.537628015966753,-15.168880854304193,51.95400000002701
312294.9387,-14.195464882229315,-11.018180557283321,-10.601651830464812,-14.459099412265378,51.9550000000163
312294.9397,-13.153556368557757,-10.308414865476536,-9.435294350263792,-13.492381839035946,51.95600000000559
312294.9407,-11.946084257716654,-9.574013685323239,-8.117814248195273,-12.343936422405312,51.95699999999488
312294.9417,-10.648907735722972,-8.884004395913454,-6.73237435261055,-11.093845989331415,51.958000000042375
312294.9427,-9.334446822955448,-8.298794415661014,-5.358653157667888,-9.819447973938761,51.959000000031665
312294.9437,-8.065008232754757,-7.864013434689841,-4.065992705325135,-8.588247947626776,51.960000000020955
312294.9447,-6.887322081004172,-7.605751119503638,-2.9077283476859326,-7.452049414938523,51.961000000010245
312294.9457,-5.828816373552164,-7.527666806744898,-1.9172263733633241,-6.442856126304176,51.961999999999534
312294.9467,-4.895980824283639,-7.610268962487566,-1.105985617719558,-5.570923126788613,51.962999999988824
312294.9477,-4.07496231300789,-7.812454106584081,-0.4639556174954513,-4.8251170616425885,51.96400000003632
312294.9487,-3.3343117501705337,-8.07517757177993,0.03799350309780046,-4.17551613358703,51.96500000002561
312294.9497,-2.6295881141895547,-8.326922870056967,0.4437242305229336,-3.5779581405175986,51.9660000000149
312294.9507,-1.9093409435802566,-8.490462428965454,0.8060649628416724,-2.9800529454716935,51.96700000000419
312294.9517,-1.121855667494516,-8.490276841934485,1.1802171450379393,-2.3280322960066653,51.96799999999348
312294.9527,-0.2219702407192841,-8.259934675880787,1.6170079606545804,-1.5737290659272565,51.96900000004098
312294.9537,0.8227359707717031,-7.748736576511507,2.1566720779699855,-0.6809675249966894,51.97000000003027
312294.9547,2.027018517385336,-6.926995733574118,2.823790489592846,0.36929297901395175,51.97100000001956
312294.9557,3.384822232384468,-5.78945510890891,3.6238973364601077,1.575592644582035,51.97200000000885
312294.9567,4.8682510242152865,-4.356517792725235,4.542098346589951,2.9147373705485724,51.97299999999814
312294.9577,6.428781476305739,-2.673173453709,5.5438436216462845,4.342836253186725,51.974000000045635
312294.9587,8.000626600407758,-0.8057211622448417,6.5777827383686285,5.798523022820263,51.975000000034925
312294.9597,9.50594285023064,1.1634040378583461,7.580422624246193,7.208055457157855,51.976000000024214
312294.9607,10.861390034996822,3.142216462730703,8.482128834398258,8.491798515656182,51.977000000013504
312294.9617,11.985418143330564,5.0365627877397845,9.21387640301777,9.571457542939381,51.978000000002794
312294.9627,12.805580675345356,6.757618014810337,9.7140806175315,10.377351204099373,51.978999999992084
312294.9637,13.265168258476029,8.22880524798567,9.93482835632966,10.855007474256151,51.98000000003958
312294.9647,13.328519729011012,9.391511791743245,9.846888028866765,10.970430702039556,51.98100000002887
312294.9657,12.984494331101494,10.209095608000933,9.442995041701732,10.713517175472475,51.98200000001816
312294.9667,12.24776584903323,10.668845441192477,8.73907840784379,10.099278006021233,51.98300000000745
312294.9677,11.157809984208134,10.781758233655584,7.77329602643554,9.166743617125096,51.98399999999674
312294.9687,9.775679462978921,10.580209115081152,6.602961406672769,7.97565237669871,51.98500000004424
312294.9697,8.178875301701158,10.113791521159326,5.299651985655267,6.601244340422097,51.98600000003353
312294.9707,6.4548063427823505,9.443778123840827,3.94296824601465,5.127667990694624,51.98700000002282
312294.9717,4.693464557863406,8.63678040610681,2.6135459033913255,3.6406446552992486,51.98800000001211
312294.9727,2.9800173869385036,7.7582536268149465,1.385997354647946,2.220108286051326,51.9890000000014
312294.9737,1.3880233042954009,6.8664981087330865,0.3224660242875074,0.933540083147425,51.98999999999069
312294.9747,-0.026087583545414475,6.00774716616325,-0.5325825647043593,-0.16935227435208217,51.991000000038184
312294.9757,-1.2267534178345672,5.212812900231376,-1.15583039354283,-1.0600955238661818,51.992000000027474
312294.9767,-2.20090410886089,4.495595645204508,-1.5465053577950147,-1.7327226136942069,51.993000000016764
312294.9777,-2.957342086658672,3.8535677447851473,-1.7255800792084075,-2.2027453790438645,51.994000000006054
312294.9787,-3.523976253888981,3.270137195754889,-1.7328588760696915,-2.503948725633398,51.99499999999534
312294.9797,-3.9432174550946,2.718602118883088,-1.622248229467997,-2.6833460857372926,51.99600000004284
312294.9807,-4.266025055877146,2.1672425376513904,-1.4556846312282057,-2.794821678465313,51.99700000003213
312294.9817,-4.545226488021229,1.5849780886022338,-1.2963256156325154,-2.8921188802672675,51.99800000002142
312294.9827,-4.8288017516786805,0.9469609230105266,-1.201682046796654,-3.021902278508391,51.99900000001071
312294.9837,-5.153825909729536,0.2394782194405123,-1.2173752111193048,-3.2176166885055877,52.0
312294.9847,-5.541694440903296,-0.5363920018242609,-1.3721403783294426,-3.494789691170179,52.00099999998929
312294.9857,-5.995125676629484,-1.3628015101374646,-1.6745753060390884,-3.848282409934152,52.00200000003679
312294.9867,-6.497254371703118,-2.2050873979919503,-2.111959768515607,-4.25180008845851,52.00300000002608
312294.9877,-7.0129186160598165,-3.0137220094159463,-2.651267534497551,-4.659748482968472,52.00400000001537
312294.9887,-7.49201981193474,-3.7281099880179385,-3.2422754255892823,-5.011286345893037,52.00500000000466
312294.9897,-7.874624429897178,-4.2818913083568235,-3.822466482103959,-5.2362016393986766,52.005999999993946
312294.9907,-8.09729772926469,-4.609247702807649,-4.3232462785083925,-5.262051659013774,52.007000000041444
312294.9917,-8.100031411835458,-4.65159721345074,-4.676860594256911,-5.021873661575252,52.008000000030734
312294.9927,-7.833062151491656,-4.364009273800224,-4.823331860245961,-4.461706333536964,52.00900000002002
312294.9937,-7.262882753820429,-3.7206864184055455,-4.716728074054234,-3.5471703863484736,52.01000000000931
312294.9947,-6.376822099088417,-2.7189375838828407,-4.33014163119333,-2.268438339759901,52.0109999999986
312294.9957,-5.185706873403036,-1.3812047145460997,-3.6588805484766276,-0.6430715209750238,52.0120000000461
312294.9967,-3.724304069878103,0.24511401397926422,-2.72154863097756,1.2835976745505506,52.01300000003539
312294.9977,-2.049460131593568,2.090092103590134,-1.5588972039275666,3.440627425158835,52.01400000002468
312294.9987,-0.23607910299639703,4.065785541218385,-0.2305488923108683,5.73601816540659,52.01500000001397
312294.9997,1.6287040495833296,6.072456315825375,1.190097787277617,8.063270769122798,52.01600000000326
312295.0007,3.452618798824395,8.005970327766471,2.6222959963657297,10.309373696815346,52.01699999999255
312295.0017,5.14595858603958,9.765713647424432,3.9850925403865123,12.363502143840133,52.01800000004005
312295.0027,6.629156045106322,11.262315471716883,5.204496090915102,14.125640965171565,52.01900000002934
312295.0037,7.8395123531280815,12.4244783325003,6.219980437925892,15.51434703603275,52.02000000001863
312295.0047,8.736436431541465,13.204295233386617,6.989696066151548,16.4729454132838,52.021000000007916
312295.0057,9.304690003918614,13.580572014536202,7.493889164452457,16.973599606630508,52.021999999997206
312295.0067,9.555324211015348,13.559858144613438,7.7362019601806065,17.018895353634598,52.0230000000447
312295.0077,9.524214155204328,13.17510256697986,7.7427348929607795,16.64081028956884,52.02400000003399
312295.0087,9.268327913807772,12.482072639211902,7.558969353236837,15.897186334059345,52.02500000002328
312295.0097,8.860083801672019,11.553882265612161,7.244858123828142,14.866053946712373,52.02600000001257
312295.0107,8.380332811509497,10.474149988006902,6.868568852827931,13.638355333591761,52.02700000000186
312295.0117,7.910634378433461,9.32943227679169,6.499496393711343,12.309758314270951,52.02799999999115
312295.0127,7.525560137929689,8.201639646375368,6.2012298921886675,10.972330209820845,52.02900000003865
312295.0137,7.285755728413605,7.161137649051174,6.02516323186982,9.706844648942877,52.03000000002794
312295.0147,7.232415430232634,6.2611620346517505,6.005372633407006,8.57642368741,52.03100000001723
312295.0157,7.383685924424786,5.534044687120594,6.155259230502473,7.622080350041659,52.03200000000652
312295.0167,7.733327253763504,4.989567460055385,6.466279726693122,6.860536339550276,52.03299999999581
312295.0177,8.251739568744618,4.615552348849107,6.908881968186337,6.284465011709439,52.03400000004331
312295.0187,8.889234871073782,4.380578966601572,7.4355447539758845,5.865072836382609,52.035000000032596
312295.0197,9.581216095946889,4.238515236651894,7.985613858025233,5.556706581055227,52.036000000021886
312295.0207,10.254742625333986,4.134374498416255,8.491449475465867,5.302980327728201,52.037000000011176
312295.0217,10.8358295124776,4.010888543069594,8.885271534679543,5.043774814702091,52.038000000000466
312295.0227,11.25676009109225,3.8151232999725337,9.106021226773892,4.722385010134625,52.038999999989755
312295.0237,11.462694718624391,3.504467834687483,9.105556406336488,4.29208737542693,52.04000000003725
312295.0247,11.416931719019761,3.0513972891791616,8.85356528697182,3.721465962513153,52.04100000002654
312295.0257,11.104312832234582,2.4465392146387956,8.34071051632126,2.9979692276242136,52.04200000001583
312295.0267,10.532451177536657,1.699747479766649,7.5796916848831835,2.129353784541738,52.04300000000512
312295.0277,9.730676594500554,0.8390911654104468,6.604121244537943,1.1428887790661033,52.04399999999441
312295.0287,8.746819897097852,-0.09212260074209824,5.465326261297695,0.08242345203766811,52.04500000004191
312295.0297,7.642171767612816,-1.0399740189818711,4.227394917399879,-0.9963619911654171,52.0460000000312
312295.0307,6.4851326636595745,-1.9457197824230839,2.960961780393035,-2.032017464131652,52.04700000002049
312295.0317,5.344199442201304,-2.752143840819233,1.7363522104652802,-2.9640579017957105,52.04800000000978
312295.0327,4.280999684026159,-3.4098102389947034,0.6167713054372019,-3.739664893441966,52.04899999999907
312295.0337,3.3440794825910345,-3.882567279069015,-0.34778005974124404,-4.319650265573517,52.050000000046566
312295.0347,2.564075218317128,-4.151726275464913,-1.1252501148940868,-4.6830501672014595,52.051000000035856
312295.0357,1.9507619320057452,-4.2184701326808485,-1.7044614933209352,-4.829855300327343,52.052000000025146
312295.0367,1.4922838649415011,-4.104223846567748,-2.0959159845984052,-4.781570200658509,52.053000000014435
312295.0377,1.1566549204043355,-3.848923334513023,-2.3303877743166344,-4.579513346477267,52.054000000003725
312295.0387,0.8953896419486385,-3.507330537810853,-2.455434007403181,-4.280998648975043,52.054999999993015
312295.0397,0.6489111681503168,-3.14374057333543,-2.530159471010495,-3.953754840702662,52.05600000004051
312295.0407,0.3532026388316637,-2.8255912286300915,-2.6187477777967643,-3.669120948551452,52.0570000000298
312295.0417,-0.05295949396549672,-2.616599936928234,-2.7833972546508328,-3.494685283226999,52.05800000001909
312295.0427,-0.6209151073104153,-2.570107043721002,-3.0773632754888296,-3.487099206219003,52.05900000000838
312295.0437,-1.3858900248147523,-2.723291187652494,-3.5388035807550993,-3.685788775115759,52.05999999999767
312295.0447,-2.3622641761440644,-3.092844006522246,-4.186049489159145,-4.108207715227762,52.06100000004517
312295.0457,-3.5408352077929615,-3.6725546214012676,-5.014790820732264,-4.747131540521493,52.06200000003446
312295.0467,-4.888383211756116,-4.4330726305118064,-5.99747882851154,-5.570298860832737,52.06300000002375
312295.0477,-6.349619889075537,-5.3239092566904205,-7.085037245399546,-6.522480717226347,52.06400000001304
312295.0487,-7.851373556738932,-6.277520129578859,-8.210747478286871,-7.529824044538504,52.06500000000233
312295.0497,-9.308642462709606,-7.215110950656188,-9.29596180094355,-8.506093906251836,52.06599999999162
312295.0507,-10.631964205308586,-8.053638654481666,-10.257118758607554,-9.360252566240321,52.067000000039116
312295.0517,-11.73541668579718,-8.713362060254497,-11.013405409108023,-10.004679982334283,52.068000000028405
312295.0527,-12.544498946151423,-9.12523897380204,-11.494344153308871,-10.36327302301015,52.069000000017695
312295.0537,-13.003145145946903,-9.237476852305614,-11.646584342982829,-10.378666306806187,52.070000000006985
312295.0547,-13.079201546368727,-9.020620575735071,-11.439250473893374,-10.01789566901201,52.070999999996275
312295.0557,-12.767837494219926,-8.47069626072227,-10.86733275109249,-9.275968469481759,52.07200000004377
312295.0567,-12.092553590485219,-7.610111390541658,-9.952789289412152,-8.176999557200828,52.07300000003306
312295.0577,-11.10367509769724,-6.486221380393124,-8.743244533866347,-6.772799010853563,52.07400000002235
312295.0587,-9.874454631900445,-5.167690883981185,-7.308394927386366,-5.139035925655774,52.07500000001164
312295.0597,-8.4951326602572,-3.73898373957965,-5.734448630231552,-3.3693286196173284,52.07600000000093
312295.0607,-7.0654957550276425,-2.2934887745781,-4.117110471545203,-1.5678039745546997,52.07699999999022
312295.0617,-5.6866126022075365,-0.9259132213246761,-2.553758615488653,0.15919121262859232,52.07800000003772
312295.0627,-4.4525030588065055,0.2753605191826015,-1.13553275099063,1.7114693569523085,52.07900000002701
312295.0637,-3.4424989856107273,1.2352614791257528,0.0599419188010131,3.002712039101499,52.0800000000163
312295.0647,-2.7149869838263108,1.8977351377163971,0.9745352128210212,3.9668214206089276,52.08100000000559
312295.0657,-2.3030893172968714,2.2296691958599775,1.5737645557685498,4.56235937440807,52.08199999999488
312295.0667,-2.212653275072981,2.2227161416180237,1.8487644071430054,4.774708121581229,52.083000000042375
312295.0677,-2.42269909808341,1.8928916666104427,1.8159273645583598,4.615807201022189,52.084000000031665
312295.0687,-2.8882436801486207,1.278040568278474,1.514294114554912,4.121554517119525,52.085000000020955
312295.0697,-3.5451940487497624,0.43346324548459514,1.000982500267218,3.3471813129915766,52.086000000010245
312295.0707,-4.316812608638127,-0.5738332130136471,0.34512924204600565,2.3611006420875498,52.086999999999534
312295.0717,-5.121113663420003,-1.6716714508676913,-0.37904631574866754,1.2378679407306212,52.087999999988824
312295.0727,-5.878471307300766,-2.7893747358761427,-1.0993715638597112,0.050967348800055545,52.08900000003632
312295.0737,-6.518709709597388,-3.863918845981758,-1.7523500520196438,-1.133858483892208,52.09000000002561
312295.0747,-6.987008528313281,-4.844975341949673,-2.2886574648329785,-2.264084209422472,52.0910000000149
312295.0757,-7.248082213346642,-5.698378061334162,-2.6769916277872126,-3.304163090218379,52.09200000000419
312295.0767,-7.288269569619353,-6.4077113129375185,-2.9059342436467626,-4.237235115616812,52.09299999999348
312295.0777,-7.115381428203117,-6.9739133072225945,-2.983684501016976,-5.064657095361223,52.09400000004098
312295.0787,-6.756378656684321,-7.412992278815834,-2.9357392438981256,-5.803454790521617,52.09500000003027
312295.0797,-6.253167882684186,-7.752145172911781,-2.8007998079212544,-6.482010634725025,52.09600000001956
312295.0807,-5.656987052782362,-8.024730502433117,-2.625361646565977,-7.134481428977155,52.09700000000885
312295.0817,-5.021989215999612,-8.264661953657237,-2.457572177904972,-7.7945705669545635,52.09799999999814
312295.0827,-4.398707456908812,-8.500846125612458,-2.341012225291014,-8.489345911671991,52.099000000045635
312295.0837,-3.828089589271833,-8.752280846546757,-2.3090602467186145,-9.233790764281979,52.100000000034925
312295.0847,-3.3367277567070492,-9.024360597425947,-2.380436045401845,-10.026701778047943,52.101000000024214
312295.0857,-2.9337820079334813,-9.306809750866435,-2.556398193905375,-10.848411449154026,52.102000000013504
312295.0867,-2.6099209363015023,-9.573495248825015,-2.819899283742609,-11.660627455272602,52.103000000002794
312295.0877,-2.338394229253029,-9.784174962851132,-3.1368023420306153,-12.408464998469817,52.103999999992084
312295.0887,-2.0781322672067173,-9.88803591438675,-3.4590503754337187,-13.024522908238957,52.10500000003958
312295.0897,-1.7785586631166486,-9.82868807844458,-3.7294800947410898,-13.43464200815818,52.10600000002887
312295.0907,-1.385623715866839,-9.550123626964899,-3.887800488874598,-13.564806338614154,52.10700000001816
312295.0917,-0.8484379284827263,-9.003043955254329,-3.8771340840380053,-13.348522118673955,52.10800000000745
312295.0927,-0.12581792315628348,-8.150908668867304,-3.65045576976725,-12.733948585303738,52.10899999999674
312295.0937,0.8079409550682798,-6.975077013220247,-3.176267406378408,-11.690065465474627,52.11000000004424
312295.0947,1.9586803409783153,-5.4784917449411825,-2.44291590046892,-10.211243204806573,52.11100000003353
312295.0957,3.3098652137319,-3.687490645162614,-1.4610913562621406,-8.31972661812174,52.11200000002282
312295.0967,4.822241671331316,-1.6515086986320442,-0.2642177038077872,-6.065736528189255,52.11300000001211
312295.0977,6.43575410440029,0.5593629091099986,1.0933463559353234,-3.525118510520965,52.1140000000014
312295.0987,8.073586770451394,2.8587862659827996,2.5401633447693963,-0.794701288432773,52.11499999999069
312295.0997,9.647983520042809,5.150186461190423,3.9932939741915265,2.014253088625605,52.116000000038184
312295.1007,11.067320766030996,7.333833967100546,5.365087617862349,4.7839408227865405,52.117000000027474
312295.1017,12.24378039820221,9.314362613328719,6.570555990674964,7.398552208684763,52.118000000016764
312295.1027,13.100903999440469,11.008037505919038,7.534637777380205,9.752689384810513,52.119000000006054
312295.1037,13.580314020471619,12.349104576003636,8.198667121439442,11.758911410481401,52.11999999999534
312295.1047,13.646961304361666,13.294635308135954,8.525430866475098,13.353731879433601,52.12100000004284
312295.1057,13.292394506490908,13.827418917044136,8.502331389697167,14.501538504209313,52.12200000003213
312295.1067,12.535732404060695,13.956636569847767,8.142351060114628,15.196098893730738,52.12300000002142
312295.1077,11.42223687449045,13.716260665024734,7.482723444405678,15.459543324514813,52.12400000001071
312295.1087,10.019611412631601,13.161336574074323,6.5814350799233265,15.338951812975829,52.125
312295.1097,8.412365401203772,12.362503892398847,5.51188868435617,14.900896412608873,52.12599999998929
312295.1107,6.69476703069771,11.399279786121669,4.3562339311658835,14.22447882744379,52.12700000003679
312295.1117,4.963040046276414,10.352742389154903,3.1979983207273954,13.39353995283644,52.12800000002608
312295.1127,3.30752855477027,9.298306172913648,2.114715895844635,12.488788757128345,52.12900000001537
312295.1137,1.8055532974869828,8.29926850121405,1.1712492188756896,11.58059633557036,52.13000000000466
312295.1147,0.5156122483335556,7.4017283917160235,0.4144303645146697,10.723127384483965,52.130999999993946
312295.1157,-0.526554896128679,6.631342401486268,-0.13048351833509425,9.950343154450808,52.132000000041444
