TimeStamp,ECR,FCR,ECU,FCU,time_index
312253.9837,-15.432588421474485,-7.031735051291576,-8.109737040902155,-9.680996818628312,11.0
312253.9847,-15.881514984621385,-7.15923959520274,-7.895050613722419,-9.99920806761871,11.00099999998929
312253.9857,-16.27379760522666,-7.372071751646758,-7.739873599767471,-10.40186656745325,11.002000000036787
312253.9867,-16.614886774825298,-7.691871213272456,-7.671628393773407,-10.903834322317135,11.003000000026077
312253.9877,-16.895332057548046,-8.121116182159323,-7.6987765052515575,-11.499217675419155,11.004000000015367
312253.9887,-17.090839377354747,-8.642601452655654,-7.809945140522437,-12.161110295170218,11.005000000004657
312253.9897,-17.164319929556193,-9.221014464824204,-7.975231532847485,-12.843630417356785,11.005999999993946
312253.9907,-17.069750651933706,-9.806454816626317,-8.14955479175533,-13.486076283758596,11.007000000041444
312253.9917,-16.757468822397474,-10.33954800629402,-8.277717175181072,-14.018808217768644,11.008000000030734
312253.9927,-16.180362507125526,-10.75764372969936,-8.300662047327261,-14.370287638419471,11.009000000020023
312253.9937,-15.300310854070094,-11.001478713553947,-8.162291739202821,-14.47458035372809,11.010000000009313
312253.9947,-14.094184998139601,-11.021634753051725,-7.816147491214848,-14.278576156844473,11.010999999998603
312253.9957,-12.55874665067519,-10.784139296185247,-7.23126186265217,-13.748194942968567,11.0120000000461
312253.9967,-10.713875442856526,-10.27463706762171,-6.396570877029096,-12.872939945803706,11.01300000003539
312253.9977,-8.603709207376127,-9.500699024228512,-5.3234114167371045,-11.668312843812487,11.01400000002468
312253.9987,-6.295479125336991,-8.49201599414224,-4.0458156190295895,-10.17580870204406,11.01500000001397
312253.9997,-3.8760450245883216,-7.298431027487853,-2.6185301417123497,-8.460441413968336,11.01600000000326
312254.0007,-1.4463634009747601,-5.985976598332278,-1.1129130575529462,-6.605989932198746,11.01699999999255
312254.0017,0.8856703157553495,-4.631279594125919,0.3889272332152399,-4.708378787156373,11.018000000040047
312254.0027,3.013393775340515,-3.3148592169624234,1.801209129405981,-2.867791342388769,11.019000000029337
312254.0037,4.839838605632876,-2.1139545482199593,3.042103140044035,-1.180242709021596,11.020000000018626
312254.0047,6.285708665272217,-1.0955685453705546,4.041175849767229,0.2706015561830853,11.021000000007916
312254.0057,7.296131044815435,-0.31039858627602296,4.745931948692244,1.42059102593479,11.021999999997206
312254.0067,7.845533472084692,0.21175821719622295,5.126812824025429,2.2305606826253257,11.023000000044703
312254.0077,7.940162767520398,0.4646760553334764,5.18015214721134,2.689582508337092,11.024000000033993
312254.0087,7.617968019132364,0.46618230951732326,4.928780240971372,2.8156821528618714,11.025000000023283
312254.0097,6.945809802938045,0.2563945056414943,4.420191487990561,2.6539428078159992,11.026000000012573
312254.0107,6.0142007950450544,-0.1061277344324466,3.7224212699632737,2.2721651009683814,11.027000000001863
312254.0117,4.930010491529729,-0.5499550048800019,2.91799850156709,1.7544831060373147,11.027999999991152
312254.0127,3.8077559126715683,-0.9975575761652918,2.0965254962837734,1.1935301500871998,11.02900000003865
312254.0137,2.760233083077523,-1.3726291314718468,1.3465706310007672,0.6818853112867871,11.03000000002794
312254.0147,1.889307973591422,-1.607268062933862,0.7476279967437317,0.3035990772268145,11.03100000001723
312254.0157,1.2776741880742166,-1.648332969662563,0.3628951169210418,0.12658803834290547,11.03200000000652
312254.0167,0.982298818483137,-1.4623683280765623,0.23354499022821457,0.1966045393352407,11.032999999995809
312254.0177,1.0301254696875624,-1.0386339628505412,0.3750292090090362,0.5333360026187944,11.034000000043306
312254.0187,1.4163986802526085,-0.389954623038789,0.7757580096361588,1.1289847684056835,11.035000000032596
312254.0197,2.1057360135043606,0.4486840273673605,1.3982791024871657,1.9494424437564535,11.036000000021886
312254.0207,3.035825281829132,1.4236497128884722,2.182841492191062,2.937925764951939,11.037000000011176
312254.0217,4.12338802338876,2.467941925741552,3.053005854366096,4.020707650061972,11.038000000000466
312254.0227,5.271848580907444,3.507718960627325,3.9227709439756953,5.114379885230274,11.038999999989755
312254.0237,6.37999970937856,4.4694390988385075,4.704544382187261,6.133941642886353,11.040000000037253
312254.0247,7.350874209166418,5.286923981606301,5.317209474751102,7.000934297656405,11.041000000026543
312254.0257,8.100024864685471,5.9076619122407825,5.69353468276504,7.650844638671336,11.042000000015832
312254.0267,8.562482088257102,6.2977446680501,5.78623928159748,8.039075104965024,11.043000000005122
312254.0277,8.697793156438525,6.444965941290898,5.572160928098528,8.144923365027786,11.043999999994412
312254.0287,8.492735421947021,6.359789611637099,5.054155327450287,7.973210206345911,11.04500000004191
312254.0297,7.961519948725493,6.074104104550306,4.26057693393926,7.553424993276506,11.0460000000312
312254.0307,7.143539933421467,5.637894823345888,3.2424213490121176,6.936499394502768,11.047000000020489
312254.0317,6.098947162370472,5.11416903749471,2.0684323185819693,6.189549180205319,11.048000000009779
312254.0327,4.90253778353358,4.572636961986645,0.8186675050239353,5.389118441511489,11.048999999999069
312254.0337,3.636577186622525,4.082772606323679,-0.4228408630230654,4.61360183744343,11.050000000046566
312254.0347,2.383279077659661,3.706936684292276,-1.5756152783544257,3.9355949391650045,11.051000000035856
312254.0357,1.2176684610624506,3.4942358111232914,-2.569728074284548,3.4149234927239,11.052000000025146
312254.0367,0.2015017016819809,3.475718253163958,-3.3515999376723546,3.0930297528086013,11.053000000014435
312254.0377,-0.6212044227389762,3.661373954715819,-3.8880651609288512,2.989255411681597,11.054000000003725
312254.0387,-1.2266560341775665,4.039228485011433,-4.168344146923088,3.099369936560892,11.054999999993015
312254.0397,-1.611606756483772,4.576614405522706,-4.203774524208158,3.3964692538380143,11.056000000040513
312254.0407,-1.7915734887069714,5.223489564349553,-4.025375805285834,3.834134775096429,11.057000000029802
312254.0417,-1.7972055241317513,5.9174709422380944,-3.6795367203982843,4.351519850080174,11.058000000019092
312254.0427,-1.669251805773784,6.590084565389308,-3.222298088153514,4.879841701275715,11.059000000008382
312254.0437,-1.452706140705157,7.17361310108371,-2.712839330784202,5.349620198274207,11.059999999997672
312254.0447,-1.190784588313361,7.607864669234895,-2.2068503432926136,5.697933733373777,11.06100000004517
312254.0457,-0.9193960539519668,7.846194777212652,-1.7504753524240346,5.874963753756986,11.062000000034459
312254.0467,-0.6627061938061651,7.86018724355519,-1.3754514353888736,5.849172855862608,11.063000000023749
312254.0477,-0.4302726604341345,7.642532220625785,-1.0959381108981703,5.610599343467283,11.064000000013039
312254.0487,-0.21605915818495858,7.207816952529138,-0.9073586236354728,5.171940045681278,11.065000000002328
312254.0497,0.0005658025248770771,6.59115027881624,-0.7873658624011552,4.567314261013055,11.065999999991618
312254.0507,0.25195165037281675,5.844754963395251,-0.6988270656500695,3.8488330829297963,11.067000000039116
312254.0517,0.5777172731638666,5.032861794623682,-0.5945134432566769,3.08131723103233,11.068000000028405
312254.0527,1.0192082729856444,4.2254064736803265,-0.4230043698080839,2.3356912784854504,11.069000000017695
312254.0537,1.613457985355923,3.4911482138298875,-0.13518854101392955,1.681714624237754,11.070000000006985
312254.0547,2.38731038648263,2.890886168395302,0.30932078646007666,1.180776660901533,11.070999999996275
312254.0557,3.352355869880869,2.471440700083587,0.936535987539857,0.8794787260972721,11.072000000043772
312254.0567,4.501256943181558,2.260992008629062,1.7538183666372744,0.8046490695632552,11.073000000033062
312254.0577,5.80590730307166,2.2662360652769133,2.7474488565171256,0.9602967268281167,11.074000000022352
312254.0587,7.217687589988094,2.4716401668063903,3.882338554965799,1.3268196630180937,11.075000000011642
312254.0597,8.66987218653025,2.8408751337227995,5.103959075630494,1.8625605740354851,11.076000000000931
312254.0607,10.082024415238399,3.3202883518266786,6.3423505758211505,2.507572137693761,11.076999999990221
312254.0617,11.36601400655371,3.8440823341143764,7.517855513485711,3.1892350735570942,11.078000000037719
312254.0627,12.433121089640188,4.340696782818052,8.5480494801771,3.8291885861556025,11.079000000027008
312254.0637,13.20157228620841,4.739774549502426,9.35521445588813,4.3509017197357975,11.080000000016298
312254.0647,13.603798881236273,4.97903488873631,9.873637196521825,4.6871487546684,11.081000000005588
312254.0657,13.592720459653343,5.010386497785558,10.056022668620692,4.786658494066543,11.081999999994878
312254.0667,13.146439022358978,4.804687073010177,9.878389130417206,4.619285516940322,11.083000000042375
312254.0677,12.27087091176502,4.354688160330694,9.342950459833661,4.179193592132369,11.084000000031665
312254.0687,11.00003338726232,3.6758809525898,8.478679373029829,3.4857335752272753,11.085000000020955
312254.0697,9.39392122265179,2.805163044484646,7.339464164068652,2.5819214720041317,11.086000000010245
312254.0707,7.534135175034002,1.7974579880734554,6.000000369765189,1.5306551166009723,11.086999999999534
312254.0717,5.517636674102763,0.7206180914663858,4.549775166626042,0.40902733653855333,11.087999999988824
312254.0727,3.449180971116361,-0.35089310958343056,3.0856853404023705,-0.6987218702764766,11.089000000036322
312254.0737,1.4331069467881334,-1.342925062140708,1.7039615393916603,-1.7089397601486933,11.090000000025611
312254.0747,-0.43477650800396933,-2.188500363782807,0.4921393762875952,-2.546241264051715,11.091000000014901
312254.0757,-2.0744762544985167,-2.8339486829736473,-0.4781848791018419,-3.1504006475303044,11.092000000004191
312254.0767,-3.4276197803621065,-3.2437253872490612,-1.1571495847476405,-3.4817969506974706,11.09299999999348
312254.0777,-4.461266552509356,-3.4034563505837077,-1.5204463360636309,-3.5248968912471277,11.094000000040978
312254.0787,-5.169402240543694,-3.320925399573836,-1.5708213211134914,-3.2894500654122076,11.095000000030268
312254.0797,-5.572011616297427,-3.0249230995820273,-1.3371381649805874,-2.8092937328551533,11.096000000019558
312254.0807,-5.711854545978276,-2.562085213558034,-0.8711114151185249,-2.138896468938265,11.097000000008848
312254.0817,-5.6492852244298835,-1.9920456270462843,-0.2420390890548272,-1.3479888461344685,11.097999999998137
312254.0827,-5.455636845823341,-1.381392577681435,0.46995028674018097,-0.514813703346131,11.099000000045635
312254.0837,-5.205824744844381,-0.7970326094903163,1.1814839432145587,0.28133949430794924,11.100000000034925
312254.0847,-4.970888159556404,-0.29962251188553,1.813638767948455,0.9675850399671779,11.101000000024214
312254.0857,-4.811187860910986,0.06227981086820261,2.299013911942342,1.484150000673144,11.102000000013504
312254.0867,-4.770904490946567,0.2567680776277135,2.5875202224173477,1.7896919329154704,11.103000000002794
312254.0877,-4.8743478498934625,0.271396886371435,2.650355211563313,1.864715134287619,11.103999999992084
312254.0887,-5.124403923890679,0.1139747978044631,2.4818134963807914,1.7127648569859695,11.105000000039581
312254.0897,-5.503232248728886,-0.18873020295563572,2.098796688693931,1.3592996829860011,11.106000000028871
312254.0907,-5.975102335538377,-0.5942360563776142,1.5381126023756289,0.8483725293215291,11.10700000001816
312254.0917,-6.491046329950253,-1.0492112212204274,0.8518692911569034,0.23746789193316686,11.10800000000745
312254.0927,-6.994826587161197,-1.4954648888793005,0.10145379514284243,-0.4089743961081447,11.10899999999674
312254.0937,-7.42958890180626,-1.8764558603071275,-0.6492793825114958,-1.0266883981064818,11.110000000044238
312254.0947,-7.7445072309777165,-2.143659738986655,-1.3409122137810807,-1.55863888337247,11.111000000033528
312254.0957,-7.90073017954603,-2.262146014782856,-1.9247580802120543,-1.961287127200695,11.112000000022817
312254.0967,-7.876012740384216,-2.2147927910216954,-2.3679121463442394,-2.209425120678749,11.113000000012107
312254.0977,-7.667551483536011,-2.0046999722053234,-2.656550240832393,-2.299079230812978,11.114000000001397
312254.0987,-7.292724194128079,-1.6555387121588505,-2.7971478871085163,-2.248175775768125,11.114999999990687
312254.0997,-6.787647748987262,-1.2097785149843407,-2.8155019324545774,-2.0948834862371566,11.116000000038184
312254.1007,-6.203689710564941,-0.7249436317299773,-2.7536593979131263,-1.8937796075034492,11.117000000027474
312254.1017,-5.602277724864114,-0.26824666016463417,-2.6650697404159907,-1.7102046995857798,11.118000000016764
312254.1027,-5.048525627233327,0.08988977880186201,-2.6084567658636733,-1.6133545289122724,11.119000000006054
312254.1037,-4.604318782500189,0.28279883221202756,-2.641037148473793,-1.668787703725629,11.119999999995343
312254.1047,-4.321561231256875,0.25434529758060986,-2.811780944332059,-1.93109192770554,11.12100000004284
312254.1057,-4.2362775424341965,-0.03515267734560166,-3.155408809891845,-2.4374433986280417,11.12200000003213
312254.1067,-4.364183596925057,-0.6044423176299444,-3.687750821118555,-3.2027135015800665,11.12300000002142
312254.1077,-4.6982003527617175,-1.4487460811309514,-4.402959609854077,-4.216632111679791,11.12400000001071
312254.1087,-5.2081965383830555,-2.5393334218447525,-5.27288890411796,-5.443321406043207,11.125
312254.1097,-5.8430284987786125,-3.8253182804855053,-6.248735267703773,-6.823286926610211,11.12599999998929
312254.1107,-6.534719347676861,-5.237532273922616,-7.26481680548835,-8.277715705440238,11.127000000036787
312254.1117,-7.204407304014378,-6.6941235768297584,-8.244149844413895,-9.714707532076686,11.128000000026077
312254.1127,-7.7695154729377505,-8.107364838880661,-9.10530405673254,-11.0368766438451,11.129000000015367
312254.1137,-8.151469903319116,-9.391036385216829,-9.769885980942517,-12.149625640223075,11.130000000004657
312254.1147,-8.283232002255277,-10.467694821146146,-10.169933366722935,-12.96932450717406,11.130999999993946
312254.1157,-8.115921525947591,-11.275147492588872,-10.254505031037835,-13.430632099646393,11.132000000041444
312254.1167,-7.623886718797936,-11.771529067954258,-9.994822956829394,-13.492274983256598,11.133000000030734
312254.1177,-6.8077212245700744,-11.93851046282566,-9.387458365577412,-13.140741814276796,11.134000000020023
312254.1187,-5.6949195137630495,-11.782349430172678,-8.455238461896455,-12.391546706904213,11.135000000009313
312254.1197,-4.338085327458175,-11.332699001682064,-7.245767595978341,-11.287943525860259,11.135999999998603
312254.1207,-2.810839581390456,-10.639304511148904,-5.827684676459064,-9.897212759032886,11.1370000000461
312254.1217,-1.2017929214266188,-9.766921340895156,-4.284995646779174,-8.3048704925396,11.13800000003539
312254.1227,0.39286747079317064,-8.788954279026097,-2.7100046232516526,-6.607343108561051,11.13900000002468
312254.1237,1.8774950030515858,-7.780439124619855,-1.1955019079665785,-4.903793019366865,11.14000000001397
312254.1247,3.16505568954043,-6.811046381381821,0.17306157181527415,-3.2878564998191027,11.14100000000326
312254.1257,4.184410328892103,-5.938779901497524,1.3246827414845455,-1.8400573559577489,11.14199999999255
312254.1267,4.886137553320475,-5.204971004314891,2.2085363754920575,-0.6215897382853226,11.143000000040047
312254.1277,5.24636774697649,-4.631038100030622,2.797798118727091,0.32997306200743853,11.144000000029337
312254.1287,5.268287498029456,-4.217306067303896,3.0912156864746456,1.0026760491581266,11.145000000018626
312254.1297,4.981195950078751,-3.94397584328665,3.1122999479150923,1.4097415131445652,11.146000000007916
312254.1307,4.437226720162544,-3.774122875612933,2.906236021277481,1.586780272109266,11.146999999997206
312254.1317,3.70606951421644,-3.658404002956109,2.5348326278235507,1.5869706077453836,11.148000000044703
312254.1327,2.868212936971056,-3.5409854401879826,2.070014610010061,1.4747126627532698,11.149000000033993
312254.1337,2.0073662501110134,-3.366086128750487,1.5865006419793872,1.318407448214388,11.150000000023283
312254.1347,1.2027899662043302,-3.0844722800735025,1.1543825180125464,1.1830865521519656,11.151000000012573
312254.1357,0.5222664221562415,-2.6592460998663943,0.8323268998928725,1.1236240147450098,11.152000000001863
312254.1367,0.0163720093528884,-2.0703436039899916,0.6620547622319244,1.1791955352722063,11.152999999991152
312254.1377,-0.28542041425358755,-1.3172859419692493,0.664624563851699,1.3695191099970991,11.15400000003865
312254.1387,-0.3764640199201987,-0.4199029131942467,0.8388651566977986,1.6932285911829217,11.15500000002794
312254.1397,-0.27235647428494664,0.5830507997911274,1.1620913265855688,2.1285157232960983,11.15600000001723
312254.1407,-0.008152556714590722,1.6372566233763337,1.5930095531557371,2.6359483644550865,11.15700000000652
312254.1417,0.36631486914879213,2.6778436339807046,2.0765061480816636,3.163155334158442,11.157999999995809
312254.1427,0.7925074964392823,3.6355595860311696,2.549825447215888,3.6508830115666555,11.159000000043306
312254.1437,1.2100160484487328,4.443494349498902,2.9495101990507306,4.039793593371279,11.160000000032596
312254.1447,1.5634540828298502,5.043692413215338,3.2184028945200867,4.277302968307708,11.161000000021886
312254.1457,1.8087076668443214,5.39300010103395,3.312002604008166,4.323754370742254,11.162000000011176
312254.1467,1.9179061512833824,5.467566500522586,3.2035372188132403,4.157292303885821,11.163000000000466
312254.1477,1.8826106541072232,5.265547611514178,2.8872393174414914,3.776932730124344,11.163999999989755
312254.1487,1.7148978524367822,4.8077380770702325,2.3794925069798856,3.203507054966223,11.165000000037253
312254.1497,1.4462293293709105,4.136056912236595,1.7177264227478297,2.4783709169864467,11.166000000026543
312254.1507,1.1242199977353822,3.310023086225242,0.9571618108155652,1.6599930489458787,11.167000000015832
312254.1517,0.8076309696396348,2.4015531128125924,0.16572032097808206,0.8187522683224127,11.168000000005122
312254.1527,0.5600917411207988,1.488576726206886,-0.5824041460778866,0.030450913270020957,11.168999999994412
312254.1537,0.4431859878115256,0.6480822067290776,-1.2138823623805366,-0.6308170884365137,11.17000000004191
312254.1547,0.5096018213112657,-0.0507413370053397,-1.6633934401336705,-1.0997387149476148,11.1710000000312
312254.1557,0.7970444210071669,-0.5526068783240843,-1.8800713524981711,-1.326093372739035,11.172000000020489
312254.1567,1.3235367494623653,-0.8208934416461902,-1.8326172791898525,-1.2796747768049415,11.173000000009779
312254.1577,2.084599610635254,-0.8406177444296618,-1.5125702799620289,-0.9533298423563393,11.173999999999069
312254.1587,3.0526187730143035,-0.6193350847012609,-0.9354082947457719,-0.3638056983893689,11.175000000046566
312254.1597,4.178492243972003,-0.18589306999366068,-0.13936332151072356,0.4496886568644349,11.176000000035856
312254.1607,5.395426109769418,0.41282892455634634,0.8179419500344269,1.4290744278560819,11.177000000025146
312254.1617,6.624534718192949,1.1168656234157412,1.8647156860647514,2.50280460831325,11.178000000014435
312254.1627,7.7817212920634535,1.8593044757581474,2.921574434752747,3.592551833783197,11.179000000003725
312254.1637,8.7851860283543,2.5730093043201663,3.908841670386818,4.620531492686589,11.179999999993015
312254.1647,9.562843120502556,3.197265799719871,4.753861743577616,5.516745301807881,11.181000000040513
312254.1657,10.058932503030807,3.6836953720468983,5.397622014115957,6.225437139200857,11.182000000029802
312254.1667,10.239186175192462,4.000857721105655,5.80004353593413,6.710129358789693,11.183000000019092
312254.1677,10.094045610703652,4.137093228982313,5.943430840879492,6.956746669894872,11.184000000008382
312254.1687,9.639612771966744,4.101331065423649,5.833751374513798,6.974522369751762,11.184999999997672
312254.1697,8.916234551576888,3.9217905556724624,5.499627333074517,6.794599850685681,11.18600000004517
312254.1707,7.984847922963672,3.642712077487702,4.989146240357259,6.466469420925036,11.187000000034459
312254.1717,6.921428553418888,3.3194490144515254,4.364809673146176,6.052594214126349,11.188000000023749
312254.1727,5.810068135151287,3.012414893844578,3.6971212108922753,5.621758234211242,11.189000000013039
312254.1737,4.735337454546543,2.7804937745706897,3.0574471448846694,5.241796665764593,11.190000000002328
312254.1747,3.7746604272151014,2.6745759901853483,2.510853754607715,4.972430863041327,11.190999999991618
312254.1757,2.991422359193903,2.731870137705255,2.1096261641259364,4.858921658993812,11.192000000039116
312254.1767,2.429463781652594,2.9715667850078438,1.8881058243867623,4.927175539286372,11.193000000028405
312254.1777,2.109476396454857,3.3922971054765476,1.8593532098884398,5.18079645413273,11.194000000017695
312254.1787,2.0276331375449352,3.971653481948923,2.013962182831101,5.600385416177163,11.195000000006985
312254.1797,2.1565681054151313,4.667836314022534,2.3211403506874806,6.14516919908054,11.195999999996275
312254.1807,2.4485952434604448,5.423281697951655,2.731946447487842,6.756810044415134,11.197000000043772
312254.1817,2.840839175240793,6.1699288838278665,3.184363221888675,7.3650328085152115,11.198000000033062
312254.1827,3.2617685366348534,6.8356236636900665,3.609703375847882,7.894525601741764,11.199000000022352
312254.1837,3.638489147213135,7.351040092208786,3.939714522163102,8.272442440381331,11.200000000011642
312254.1847,3.904084279393172,7.65644937999815,4.113679827572645,8.435774339142583,11.201000000000931
312254.1857,4.004288745553696,7.707676729440044,4.084810779743269,8.337864819186851,11.201999999990221
312254.1867,3.9028523723682294,7.480663195952155,3.8252973832442185,7.953426187223093,11.203000000037719
312254.1877,3.585079732650752,6.974182945277089,3.3295122951779885,7.281556418912652,11.204000000027008
312254.1887,3.059213737325789,6.210443556161704,2.615046084672779,6.346449139000683,11.205000000016298
312254.1897,2.3555430329193765,5.233501000653692,1.72146322028813,5.195712292659637,11.206000000005588
312254.1907,1.5233362354683708,4.105631722850866,0.70689172256596,3.8964429146734108,11.206999999994878
312254.1917,0.6259179947784669,2.9020012696705693,-0.35722823419028876,2.5294233208586125,11.208000000042375
312254.1927,-0.2656179943615133,1.7041329918494763,-1.3927309435513802,1.181986802787121,11.209000000031665
312254.1937,-1.0794331760564166,0.5927954474925757,-2.3220101372218567,-0.05976934653349848,11.210000000020955
312254.1947,-1.750010943028972,-0.3590178849525074,-3.0752967094274766,-1.118681596075751,11.211000000010245
312254.1957,-2.2245713454667064,-1.0923534444138094,-3.5972239227639258,-1.933394768244745,11.211999999999534
312254.1967,-2.4682071382457242,-1.5672186430733663,-3.8520441254859743,-2.463758640803626,11.212999999988824
312254.1977,-2.467244146686874,-1.7657025630676857,-3.82699246767627,-2.6942344110254943,11.214000000036322
312254.1987,-2.2305068769376573,-1.693015464735821,-3.5334737984726194,-2.634991169810256,11.215000000025611
312254.1997,-1.7883789451732925,-1.3763687746188047,-3.005961121104694,-2.320595715556403,11.216000000014901
312254.2007,-1.1897665663365025,-0.8618266300248103,-2.298716863518028,-1.8064313563806997,11.217000000004191
312254.2017,-0.49728040601799484,-0.20945589019436825,-1.4806599449846771,-1.1632001735316788,11.21799999999348
312254.2027,0.2188738708444199,0.5127353447373129,-0.6288814506601056,-0.4700472473710078,11.219000000040978
312254.2037,0.8876802497707984,1.2354661310722608,0.17855792161076733,0.19302331026812833,11.220000000030268
312254.2047,1.4440919305638724,1.8947985898697457,0.8698473268071627,0.7527047511733196,11.221000000019558
312254.2057,1.835129163019695,2.438052037827824,1.3859614983372095,1.1491865824415408,11.222000000008848
312254.2067,2.024689701447458,2.8284399822102753,1.6858814204035433,1.3415429444524818,11.222999999998137
312254.2077,1.9965974333910792,3.047984975012934,1.749999776897093,1.311197859816256,11.224000000045635
312254.2087,1.7555930944445322,3.0984401838927704,1.5813910272792162,1.0631448076333796,11.225000000034925
312254.2097,1.3261787606349025,3.0001467366538277,1.2048371459556189,0.6248191855681811,11.226000000024214
312254.2107,0.7494443802037553,2.788962688243362,0.6637216517216666,0.04275271991976689,11.227000000013504
312254.2117,0.07820845876312679,2.51159246185824,0.015114771403340782,-0.6226437749167916,11.228000000002794
312254.2127,-0.6290241234018125,2.2198058033973167,-0.6764492324241419,-1.3036399426871865,11.228999999992084
312254.2137,-1.3146633394113139,1.964146854695291,-1.3458729044420363,-1.932427709797123,11.230000000039581
312254.2147,-1.9285117629555282,1.787785856288077,-1.9343785216252958,-2.4483196820763204,11.231000000028871
312254.2157,-2.4334457488612675,1.721153045396106,-2.3956793616019696,-2.8041841129890424,11.23200000001816
312254.2167,-2.8097038355461272,1.7779176922775708,-2.7008165143873226,-2.971472927350281,11.23300000000745
312254.2177,-3.057323095714202,1.9527423449710957,-2.8411710468625246,-2.9433390208887036,11.23399999999674
312254.2187,-3.1964478440593322,2.2210661901648123,-2.829342629195377,-2.735528327682961,11.235000000044238
312254.2197,-3.2654475638409814,2.5409692215843855,-2.6977979464995703,-2.38495239113749,11.236000000033528
312254.2207,-3.3170012632966572,2.8569604654614214,-2.495414511456936,-1.9460767930777012,11.237000000022817
312254.2217,-3.4125119846722027,3.1053393314845623,-2.2822560068281885,-1.4854772710359987,11.238000000012107
312254.2227,-3.615387402476811,3.220618377953461,-2.123093282282259,-1.0750974474432557,11.239000000001397
312254.2237,-3.9838431868321553,3.1423843226869472,-2.0803130223902495,-0.7848719263635575,11.239999999990687
312254.2247,-4.563942874836653,2.821923135219473,-2.2069211877154813,-0.6754433133481013,11.241000000038184
312254.2257,-5.383575380418823,2.2279497693824446,-2.540344038159046,-0.7916950736000211,11.242000000027474
312254.2267,-6.447989772769809,1.3508623915226936,-3.0976560940155027,-1.1577446471888762,11.243000000016764
312254.2277,-7.737364100224367,0.20507737533165896,-3.8727287699721744,-1.7739004111348864,11.244000000006054
312254.2287,-9.206694393898195,-1.170818174539021,-4.8356087288322875,-2.6158956472323047,11.244999999995343
312254.2297,-10.788069838952678,-2.7161524148290397,-5.934219174959853,-3.6364912380842704,11.24600000004284
312254.2307,-12.395171687299468,-4.3523354392994404,-7.09825135673149,-4.7693080166085196,11.24700000003213
312254.2317,-13.929618927200414,-5.988748958659508,-8.24489951995695,-5.93453211099036,11.24800000002142
312254.2327,-15.288603877808056,-7.529834887538276,-9.285911374966716,-7.0459535519793866,11.24900000001071
312254.2337,-16.373133291183517,-8.882741938273824,-10.1352955622416,-8.018667769597636,11.25
312254.2347,-17.096127749244236,-9.96483353061068,-10.716960466229724,-8.776704203324444,11.25099999998929
312254.2357,-17.389640412904317,-10.710371038938161,-10.971561701038217,-9.259852502788801,11.252000000036787
312254.2367,-17.210534912025615,-11.075762658035936,-10.861908508006053,-9.429034109849,11.253000000026077
312254.2377,-16.54410392282857,-11.042902657527636,-10.376415172396229,-9.269707834414463,11.254000000015367
312254.2387,-15.405301210950116,-10.620305544655238,-9.530269246579504,-8.7929885930674,11.255000000004657
312254.2397,-13.837482263590685,-9.841947302113999,-8.364205855843986,-8.034380129830287,11.255999999993946
312254.2407,-11.90878070956065,-8.763941347432029,-6.941005547727321,-7.050253599781896,11.257000000041444
312254.2417,-9.706467204162788,-7.45937936025327,-5.340049868717703,-5.912421772404413,11.258000000030734
312254.2427,-7.3298232394426694,-6.011837113216361,-3.6504530762916367,-4.701342009239542,11.259000000020023
312254.2437,-4.882196616710658,-4.508166576461207,-1.9634222595208062,-3.498612187359197,11.260000000009313
312254.2447,-2.4629752929707225,-3.031256279729652,-0.36456870947611436,-2.3794896192347883,11.260999999998603
312254.2457,-0.1602154526150559,-1.6534365481188533,1.0731061033170353,-1.406157396973831,11.2620000000461
312254.2467,1.9554116817270655,-0.4311355669769734,2.294896037948032,-0.6223861136959897,11.26300000003539
312254.2477,3.8348243949005947,0.5987365671654192,3.2682258788295386,-0.05009918032237447,11.26400000002468
312254.2487,5.452541019834914,1.420372777663312,3.984298125136852,0.3118392500855897,11.26500000001397
312254.2497,6.806367425955245,2.0385221332038075,4.457426671981981,0.48651479052539837,11.26600000000326
312254.2507,7.914859293771569,2.475920832896423,4.722158736372346,0.515662065340553,11.26699999999255
312254.2517,8.812872306623252,2.769008717534834,4.828501037605034,0.45451895465488557,11.268000000040047
312254.2527,9.545696132584434,2.9624051400819997,4.835748955512342,0.36536355412385174,11.269000000029337
312254.2537,10.162400557418865,3.1027361534945794,4.8055503840905835,0.3103907200838994,11.270000000018626
312254.2547,10.709091640483198,3.2324636134151037,4.794906400047123,0.3446492692265525,11.271000000007916
312254.2557,11.222775793987735,3.384360382768963,4.849811961473276,0.5097538713390062,11.271999999997206
312254.2567,11.726460568372326,3.5772052196975284,5.000171733640237,0.8290081308891388,11.273000000044703
312254.2577,12.225989793646,3.8131433113525994,5.256495685986154,1.3044349353846048,11.274000000033993
312254.2587,12.708930789472273,4.076986578765562,5.608699297288173,1.9160206623862488,11.275000000023283
312254.2597,13.145620596444905,4.337528964729594,6.027121844519441,2.623259906112891,11.276000000012573
312254.2607,13.492257571089562,4.550745724828508,6.465654201494464,3.368858624197499,11.277000000001863
312254.2617,13.695716125754762,4.664552770785863,6.866656719487681,4.084238506164965,11.277999999991152
312254.2627,13.69958654788516,4.624641545082352,7.167168857460334,4.696305091222891,11.27900000003865
312254.2637,13.45081610287055,4.380792705728806,7.305782865956341,5.1348144771175654,11.28000000002794
312254.2647,12.90626443845902,3.8930192546330993,7.229486714594525,5.339610985159909,11.28100000001723
312254.2657,12.038491901384853,3.1369019484251774,6.899783172322534,5.267017118426209,11.28200000000652
312254.2667,10.840173180738928,2.10755577161597,6.297462320174699,4.894736812036145,11.282999999995809
312254.2677,9.326663396970877,0.8217985096412613,5.425536870665836,4.22477563780436,11.284000000043306
312254.2687,7.536426028429374,-0.6817319602868377,4.3100304930319435,3.2840734181180147,11.285000000032596
312254.2697,5.529243869739355,-2.3445634308911862,2.9985211134248106,2.1227669214459524,11.286000000021886
312254.2707,3.3823545779020705,-4.092322193952923,1.5565630370687518,0.8102312446939097,11.287000000011176
312254.2717,1.1848594470881955,-5.840263578243435,0.062321878731233404,-0.570734457316126,11.288000000000466
312254.2727,-0.9690726877975169,-7.499890988348986,-1.4000660260140714,-1.931029322921186,11.288999999989755
312254.2737,-2.9875623219305205,-8.986043781627913,-2.747770373077934,-3.1830047281433025,11.290000000037253
312254.2747,-4.7882339149846,-10.223784290731837,-3.9064754292532746,-4.248110111727351,11.291000000026543
312254.2757,-6.304595641117632,-11.15442979162539,-4.816820144663101,-5.063699712154165,11.292000000015832
312254.2767,-7.490970413673036,-11.740154885047135,-5.439442703710902,-5.5883492121873735,11.293000000005122
312254.2777,-8.325504008761511,-11.966725935060229,-5.75813733994113,-5.8051747543803565,11.293999999994412
312254.2787,-8.81096302986686,-11.844108648654085,-5.780814953340317,-5.72283982978984,11.29500000004191
312254.2797,-8.973251332222764,-11.404895062587391,-5.538173594912189,-5.374159359946001,11.2960000000312
312254.2807,-8.857797168507233,-10.70070704410743,-5.080209221438557,-4.812443072306387,11.297000000020489
312254.2817,-8.524172714408268,-9.796929238689419,-4.470909264136504,-4.105939302627833,11.298000000009779
312254.2827,-8.039482114294046,-8.766285982305966,-3.781650637342181,-3.3309242624903637,11.298999999999069
312254.2837,-7.471176460038524,-7.681888145768129,-3.0839521708923465,-2.5641126249219774,11.300000000046566
312254.2847,-6.880011967940173,-6.61042620349193,-2.442296347858037,-1.8751302217675867,11.301000000035856
312254.2857,-6.313855128724015,-5.606170013279338,-1.9077301221212182,-1.319782358604959,11.302000000025146
312254.2867,-5.802956738745128,-4.706355333765201,-1.5128797749231155,-0.9347724341447048,11.303000000014435
312254.2877,-5.3571732479735745,-3.9283998096158856,-1.2688773701373726,-0.7343828832571196,11.304000000003725
312254.2887,-4.9654226132264485,-3.2692104165538605,-1.1645096525086394,-0.7094378621011769,11.304999999993015
312254.2897,-4.597441373306904,-2.7066378406916676,-1.167682327211884,-0.8286433503771358,11.306000000040513
312254.2907,-4.207681430221308,-2.202921168927392,-1.229064783469097,-1.042167287929549,11.307000000029802
312254.2917,-3.740971313665701,-1.7097693492533683,-1.287564726792385,-1.2871027261270058,11.308000000019092
312254.2927,-3.1393884581761995,-1.1745634314904623,-1.2770999657122646,-1.4942721822023715,11.309000000008382
312254.2937,-2.349663770015915,-0.5470515540773937,-1.1340036535451123,-1.5956994597662877,11.309999999997672
312254.2947,-1.3303799277525177,0.21414197712795974,-0.8043325475152072,-1.5320090071299903,11.31100000004517
312254.2957,-0.05823653982204858,1.1358563325664437,-0.2503520198306079,-1.2590188849128725,11.312000000034459
312254.2967,1.467262364730278,2.226164485718926,0.544453551565214,-0.752871029766989,11.313000000023749
312254.2977,3.221197707507439,3.472018097309609,1.5723578442646908,-0.013184182269385426,11.314000000013039
312254.2987,5.153006300581899,4.83902887565193,2.800681024054123,0.9360931897991367,11.315000000002328
312254.2997,7.188713010394945,6.273440148092818,4.173492375282864,2.0482290686470583,11.315999999991618
312254.3007,9.235469766265231,7.706128172011417,5.615598021172263,3.2575188172171465,11.317000000039116
312254.3017,11.188026485060785,9.05827328914913,7.038464265670827,4.485005894303479,11.318000000028405
312254.3027,12.936573107404653,10.248175767075697,8.3475396127822,5.645571016585696,11.319000000017695
312254.3037,14.375258592982787,11.198576155697713,9.450302067343166,6.655714409741323,11.320000000006985
312254.3047,15.410624704630886,11.843786430795026,10.264286099334544,7.441287116968163,11.320999999996275
312254.3057,15.96919623912939,12.13595136611267,10.724342656684541,7.944430650739273,11.322000000043772
312254.3067,16.003544646636882,12.04983827670144,10.788455947392405,8.12905923310268,11.323000000033062
312254.3077,15.496281470812384,11.585689973815121,10.441575596408322,7.984358167517927,11.324000000022352
312254.3087,14.461628339209149,10.769857322077787,9.697109201940872,7.525961977581775,11.325000000011642
312254.3097,12.944433093632854,9.653136716747174,8.595940291918097,6.794698371927714,11.326000000000931
312254.3107,11.016735750647587,8.306953989296778,7.2030690191337445,5.853017264487766,11.326999999990221
312254.3117,8.772210986656056,6.817738901996451,5.602195277958706,4.779445386821233,11.328000000037719
312254.3127,6.319004556287121,5.280004032638882,3.8887549292886967,3.6615950419001244,11.329000000027008
312254.3137,3.7716214695702543,3.7887622173187685,2.1620612136047743,2.5883920942167307,11.330000000016298
312254.3147,1.2426007822774094,2.431976335447189,0.5172817903309704,1.642260223934872,11.331000000005588
312254.3157,-1.1652814262115645,1.283728502594729,-0.9620101174164963,0.8919989519245426,11.331999999994878
312254.3167,-3.3656030027731263,0.39872352591474375,-2.2100347137806846,0.38702209372591057,11.333000000042375
312254.3177,-5.2931301053073065,-0.19138904703242932,-3.183206054531288,0.15348819913604858,11.334000000031665
312254.3187,-6.9065227832594625,-0.4795659833837866,-3.862363943533837,0.1926685085806728,11.335000000020955
312254.3197,-8.188750926971633,-0.48269056956413986,-4.252680134442466,0.4816792811521592,11.336000000010245
312254.3207,-9.14528350583007,-0.23877079933724615,-4.381307642621542,0.9764754490038167,11.336999999999534
312254.3217,-9.800328194711756,0.19767502732905184,-4.293059048637707,1.6167839092479082,11.337999999988824
312254.3227,-10.191582263010705,0.7615668479675058,-4.044586746645277,2.3324687102489823,11.339000000036322
312254.3237,-10.36409123082939,1.3839458691924484,-3.697677075743771,3.0506850215884636,11.340000000025611
312254.3247,-10.363886365216706,1.9987305536293811,-3.312347873043033,3.7031071899191663,11.341000000014901
312254.3257,-10.232078747955967,2.5488871706423333,-2.9404479791199707,4.232515191323749,11.342000000004191
312254.3267,-10.000026267345044,2.99142399628891,-2.6203971449234453,4.59809327213938,11.34299999999348
312254.3277,-9.686067051003514,3.3007430894025576,-2.373581951832367,4.7789274871906935,11.344000000040978
312254.3287,-9.294141187878791,3.470053213549146,-2.202750222357893,4.775371945030108,11.345000000030268
312254.3297,-8.814419491385681,3.5107450065595067,-2.0925403263813633,4.608168695531656,11.346000000019558
312254.3307,-8.225843996750667,3.4498353245181326,-2.012063317292833,4.315432067478435,11.347000000008848
312254.3317,-7.500281366409947,3.3257814514206703,-1.9192466619202173,3.9478225739294177,11.347999999998137
312254.3327,-6.607817817741565,3.1831284539568223,-1.7664691805408017,3.562417100590321,11.349000000045635
312254.3337,-5.522599914066151,3.0665683702028725,-1.506885403689924,3.2159130577313073,11.350000000034925
312254.3347,-4.22856209959269,3.0150468283042255,-1.1007668539996156,2.957871576664365,11.351000000024214
312254.3357,-2.7243857041845967,3.056545561104969,-0.5211847372518134,2.824701988359892,11.352000000013504
312254.3367,-1.0271051096827228,3.204098907917325,0.24157654705049686,2.8350169640049256,11.353000000002794
312254.3377,0.8260919933961631,3.45347581602349,1.1773592232366208,2.9868519423463966,11.353999999992084
312254.3387,2.778144668787735,3.782788667713517,2.2555339838516533,3.257057126229514,11.355000000039581
312254.3397,4.754545029768577,4.1540933754498015,3.4265654570573565,3.60295360163329,11.356000000028871
312254.3407,6.667758950855242,4.516841172732651,4.62562462897355,3.966118327680699,11.35700000001816
312254.3417,8.423284018027125,4.812851673918178,5.777923743353524,4.277948200195461,11.35800000000745
312254.3427,9.926815011983187,4.982318104992897,6.805272462630603,4.46647227468369,11.35899999999674
312254.3437,11.091864846104581,4.970244996530479,7.633225996523124,4.463751477658631,11.360000000044238
312254.3447,11.84712912491293,4.732667244581858,8.198129318686458,4.213139669118901,11.361000000033528
312254.3457,12.142891716442135,4.242012631272078,8.453363307845628,3.6756854038995486,11.362000000022817
312254.3467,11.955846572061674,3.4910466462455036,8.374168780143208,2.8350299057206247,11.363000000012107
312254.3477,11.291850388240839,2.494971487994737,7.960556320973473,1.7002964331520172,11.364000000001397
312254.3487,10.186308448953742,1.2914276119372126,7.237990896427158,0.3066559804028037,11.364999999990687
312254.3497,8.70211419858574,-0.06165102279345577,6.255752900447229,-1.2865242018949785,11.366000000038184
312254.3507,6.925290814709851,-1.490167565724766,5.083100909022564,-2.9998109175473804,11.367000000027474
312254.3517,4.958698313776549,-2.909623005402899,3.8035741780193977,-4.739756142685527,11.368000000016764
312254.3527,2.91435169945528,-4.231989161033717,2.5079540490541814,-6.406324803474084,11.369000000006054
312254.3537,0.9050266869478893,-5.373063152710863,1.2865351631772828,-7.901020641339057,11.369999999995343
312254.3547,-0.9641031671206037,-6.259620076672773,0.2214267406465783,-9.134962016886643,11.37100000004284
312254.3557,-2.6030571599510326,-6.835693931380327,-0.6203957715054605,-10.036161648449715,11.37200000003213
312254.3567,-3.9431984391509163,-7.067394936788091,-1.1926378577928172,-10.555338065428785,11.37300000002142
312254.3577,-4.94141424133157,-6.945806910436997,-1.473313502776184,-10.669724943436414,11.37400000001071
312254.3587,-5.581980904594025,-6.4876883442764965,-1.4661174562233175,-10.384534161793383,11.375
312254.3597,-5.875987952732361,-5.733907942737309,-1.1994217989371054,-9.73195107669182,11.37599999998929
312254.3607,-5.858425419928714,-4.7457596391201635,-0.7230035462316378,-8.76777461098022,11.377000000036787
312254.3617,-5.583257420328098,-3.599502780183394,-0.10282697519732785,-7.566037672766067,11.378000000026077
312254.3627,-5.1169917093696204,-2.3796408265245783,0.585609909186055,-6.212133554187741,11.379000000015367
312254.3637,-4.531391706280903,-1.171570315159339,1.2647188681345078,-4.79511292966116,11.380000000004657
312254.3647,-3.8960510972807674,-0.054289500133673056,1.8623349897484551,-3.3998904419214773,11.380999999993946
312254.3657,-3.271554806598504,0.9061525490470509,2.3185761061435786,-2.100102491147464,11.382000000041444
312254.3667,-2.703883707695809,1.6618596882079835,2.5913896277232142,-0.9522885715024872,11.383000000030734
312254.3677,-2.220590664117506,2.186470869389183,2.6602578093121005,0.008065816178444091,11.384000000020023
312254.3687,-1.8290952041342619,2.4764239632216065,2.527713000640802,0.7682728074370279,11.385000000009313
312254.3697,-1.5172311013836763,2.550010139162326,2.2185284857419405,1.337840249062234,11.385999999998603
312254.3707,-1.255956261266758,2.444341449857435,1.7766772535214455,1.7456238689518777,11.3870000000461
312254.3717,-1.0039196108466144,2.210555293974706,1.2603684073301955,2.0350543209843104,11.38800000003539
312254.3727,-0.7133961216245374,1.9077482391006688,0.735657779501941,2.257948671286428,11.38900000002468
312254.3737,-0.3369665270237477,1.596251923568819,0.26926751758202533,2.4675538657079708,11.39000000001397
312254.3747,0.1657542424356662,1.3309238272439894,-0.07867444031920491,2.7115433892523013,11.39100000000326
312254.3757,0.8220394721664342,1.1551198917236454,-0.26125731135449337,3.025690525954836,11.39199999999255
312254.3767,1.6412579817806272,1.0959450004327351,-0.2501183024538174,3.428872205669183,11.393000000040047
312254.3777,2.6118724259350707,1.1612482780337043,-0.0389536126233249,3.9199232745812167,11.394000000029337
312254.3787,3.7005569420584883,1.33865577725422,0.3551401321850904,4.476675401921773,11.395000000018626
312254.3797,4.853552647537889,1.5967305411445332,0.8926320434523651,5.0572960459710705,11.396000000007916
312254.3807,6.000158173034716,1.8881391409823962,1.514744060852565,5.6038125131740095,11.396999999997206
312254.3817,7.058041413522576,2.1545052587749223,2.1485565336170565,6.047486854624896,11.398000000044703
312254.3827,7.93987868006609,2.3324641351367235,2.7135440551954018,6.3155207570331395,11.399000000033993
312254.3837,8.560696040195042,2.3603130298556296,3.1289155147139254,6.338434084418075,11.400000000023283
312254.3847,8.845217621361492,2.1845938119131203,3.3210558354433988,6.057389673477061,11.401000000012573
312254.3857,8.734523738332632,1.7659501281301917,3.2303589586524266,5.430737409763755,11.402000000001863
312254.3867,8.191387905151156,1.0836726144941873,2.8168028509324174,4.439122526046939,11.402999999991152
312254.3877,7.203789430452251,0.1384743035785884,2.063741451203976,3.088639466421452,11.40400000003865
312254.3887,5.786274678956866,-1.0467879003931624,0.9795631776171776,1.4117002232850169,11.40500000002794
312254.3897,3.979047761296137,-2.428528105152292,-0.4029263846805577,-0.534493563340887,11.40600000001723
312254.3907,1.8448899033783197,-3.945855190555221,-2.0293191808822737,-2.671753813422568,11.40700000000652
312254.3917,-0.5357854577572169,-5.525680427618087,-3.828326396495908,-4.906643355825866,11.407999999995809
312254.3927,-3.071258107999909,-7.089018147005599,-5.7179345050866335,-7.137618975309121,11.409000000043306
312254.3937,-5.665594981954148,-8.557870870560677,-7.612388113256136,-9.262915720547548,11.410000000032596
312254.3947,-8.225833149571647,-9.862032136423615,-9.429317729337937,-11.188436632759583,11.411000000021886
312254.3957,-10.668572409680014,-10.945147411646746,-11.09632389080224,-12.834912223937668,11.412000000011176
312254.3967,-12.925365181906411,-11.769445353560345,-12.556390462188004,-14.143665747891388,11.413000000000466
312254.3977,-14.946418851377796,-12.318681271078923,-13.771623066486084,-15.080456528144504,11.413999999989755
312254.3987,-16.70230067372256,-12.599009304839152,-14.724981145445366,-15.637060973412614,11.415000000037253
312254.3997,-18.183540252252946,-12.6377025130483,-15.419876789414307,-15.830471048638588,11.416000000026543
312254.4007,-19.3982389354081,-12.479850874696613,-15.877729794577332,-15.69982128870562,11.417000000015832
312254.4017,-20.36799778035893,-12.183365534052571,-16.13377480170415,-15.301375258689605,11.418000000005122
312254.4027,-21.122645694916375,-11.812783939191068,-16.23159223545195,-14.702089125556029,11.418999999994412
312254.4037,-21.69436990477867,-11.432488509995771,-16.216962510630616,-13.972405405971049,11.42000000004191
312254.4047,-22.111909795715615,-11.100009461262118,-16.131709785471667,-13.179000734247188,11.4210000000312
312254.4057,-22.39546637313035,-10.860074622458486,-16.00820065324224,-12.378210744541823,11.422000000020489
312254.4067,-22.55290373264324,-10.739996195438898,-15.865094533789621,-11.610783004482057,11.423000000009779
312254.4077,-22.577683414281164,-10.74685341766521,-15.704812865428472,-10.898472517359883,11.423999999999069
312254.4087,-22.44879068258875,-10.86675379764437,-15.513016314640037,-10.242807094088077,11.425000000046566
312254.4097,-22.1327016894237,-11.066251170172722,-15.26017077347691,-9.626130355204896,11.426000000035856
312254.4107,-21.587223109232866,-11.295786272579386,-14.90506467266179,-9.014799921113449,11.427000000025146
312254.4117,-20.76683301670816,-11.494815687132393,-14.399933939512666,-8.364200216591968,11.428000000014435
312254.4127,-19.628984030118357,-11.598127434470321,-13.696677521629265,-7.625044820394926,11.429000000003725
312254.4137,-18.14071425822039,-11.542722708894752,-12.753523382210899,-6.750310716152903,11.429999999993015
312254.4147,-16.28486049952858,-11.274584937166363,-11.541444956991205,-5.702079348258744,11.431000000040513
312254.4157,-14.06518730839967,-10.754665331898515,-10.049637781493578,-4.4575638733867935,11.432000000029802
312254.4167,-11.509833933566979,-9.963487733059013,-8.289445044765568,-3.013678181289458,11.433000000019092
312254.4177,-8.672630896891603,-8.903907701572196,-6.296262055030612,-1.3896438488190916,11.434000000008382
312254.4187,-5.632035165671093,-7.6017387332931365,-4.129139698595171,0.37267743829176575,11.434999999997672
312254.4197,-2.487658772265441,-6.104164808156056,-1.8680277330989974,2.2108149461970927,11.43600000004517
312254.4207,0.6454013169503564,-4.476073200697717,0.3911711463325638,4.045938549272235,11.437000000034459
312254.4217,3.644006812774905,-2.794643655661049,2.543348468494995,5.788960809612443,11.438000000023749
312254.4227,6.385589135025865,-1.1426999998779632,4.4821675903896185,7.3479382607853925,11.439000000013039
312254.4237,8.757195503769177,0.3985485120759406,6.1085704785425765,8.636084248048382,11.440000000002328
312254.4247,10.664178590579002,1.7566881106828587,7.339047275357697,9.579637140323323,11.440999999991618
312254.4257,12.037752558453635,2.8745213564899346,8.112909278994117,10.124831959477689,11.442000000039116
312254.4267,12.840725414651562,3.7151170783614744,8.39788499122743,10.243300278303858,11.443000000028405
312254.4277,13.070869815161972,4.2650088815944,8.193502845847672,9.93536538468573,11.444000000017695
312254.4287,12.761597914630977,4.535238171594337,7.5319197884381595,9.230893626029063,11.445000000006985
312254.4297,11.979841764745242,4.560143136617829,6.476083726178094,8.187589955081263,11.445999999996275
312254.4307,10.821287224093041,4.3940097611645585,5.115358474730189,6.8868642135037845,11.447000000043772
312254.4317,9.403343422497048,4.1059039678931,3.558969520853789,5.427621743059218,11.448000000033062
312254.4327,7.856429748874214,3.773175858904561,1.927826045833134,3.9185257634067048,11.449000000022352
312254.4337,6.314309557242954,3.474251268252381,0.34542067213771044,2.469421085175939,11.450000000011642
312254.4347,4.904280748788799,3.2813906284647416,-1.0714103633150853,1.1826856320579184,11.451000000000931
312254.4357,3.738040788984627,3.2540944673461256,-2.221074932267772,0.14528072379527418,11.451999999990221
312254.4367,2.9039771950320348,3.4337690159681493,-3.02443286299877,-0.5777970965256086,11.453000000037719
312254.4377,2.461500666012887,3.840141056709487,-3.4300266184094217,-0.9480939569127048,11.454000000027008
312254.4387,2.4378497075030707,4.469740544329197,-3.416921956112615,-0.9559243904612854,11.455000000016298
312254.4397,2.827570749707949,5.296569399920269,-2.994966467511194,-0.6200845700360866,11.456000000005588
312254.4407,3.5946376150328394,6.274864714481603,-2.2025099075317764,0.014872439960010114,11.456999999994878
312254.4417,4.676941276612541,7.343664813696725,-1.1018591485608853,0.8834993044761598,11.458000000042375
312254.4427,5.992676808640573,8.432716553652574,0.22705912663457914,1.9059600503254888,11.459000000031665
312254.4437,7.447997974201361,9.469138206578249,1.6942019088591471,2.9955384464774606,11.460000000020955
312254.4447,8.945215036803763,10.384186181193835,3.2073617969777124,4.066426457878964,11.461000000010245
312254.4457,10.3907861168099,11.119471742934492,4.679827374831998,5.041058153961619,11.461999999999534
312254.4467,11.702398005520823,11.632035718568133,6.03706040617516,5.856313565875563,11.462999999988824
312254.4477,12.814543249968828,11.897808497075166,7.2218117543536104,6.468040824763022,11.464000000036322
312254.4487,13.682164757849929,11.913147461893379,8.197264836166491,6.853520853036476,11.465000000025611
312254.4497,14.282140332899644,11.694337857422667,8.947998830799541,7.011709251294974,11.466000000014901
312254.4507,14.61259725640651,11.275146733698664,9.478783498749102,6.961313848103717,11.467000000004191
312254.4517,14.690259724506179,10.702712834248977,9.811431607457411,6.736981439690032,11.46799999999348
312254.4527,14.546218820683203,10.032218969871474,9.980122598619475,6.38405227062208,11.469000000040978
312254.4537,14.220657717457941,9.320911390131537,10.025754019297397,5.95247756967494,11.470000000030268
312254.4547,13.757150468485325,8.622091316153377,9.989961677730534,5.490570578444828,11.471000000019558
312254.4557,13.19717342259101,7.97970123022206,9.909467663467773,5.039267784131357,11.472000000008848
312254.4567,12.575422878623,7.424063118621465,9.811366116803411,4.627514165292737,11.472999999998137
312254.4577,11.916426650428814,6.969204276407936,9.709845503628348,4.269260767858839,11.474000000045635
312254.4587,11.232782312391322,6.612040744638933,9.604684866932441,3.9623876958720126,11.475000000034925
312254.4597,10.525167487249508,6.333495582833273,9.481666778289103,3.689658457897476,11.476000000024214
312254.4607,9.784067240886195,6.101428337514657,9.314841492171418,3.421593595576907,11.477000000013504
312254.4617,8.992971283819548,5.8750634213974,9.070376397556988,3.1209447893226048,11.478000000002794
312254.4627,8.132629167445325,5.610447649752639,8.711552714045164,2.7482762471116717,11.478999999992084
312254.4637,7.185832022529011,5.2663568012979685,8.204345062659744,2.2680359976178783,11.480000000039581
312254.4647,6.142127022678116,4.81001903736764,7.5229519878119,1.6544386042140564,11.481000000028871
312254.4657,5.001872212123881,4.222034806019638,6.65464372107428,0.896489384935788,11.48200000001816
312254.4667,3.7791046436468743,3.499947630135518,5.603357833730474,0.0015581012350481026,11.48300000000745
312254.4677,2.50281743501644,2.660050828012791,4.3915976263674406,-1.002950042149927,11.48399999999674
312254.4687,1.2164090016862763,1.7371890727323636,3.0603598045010836,-2.0700899113106246,11.485000000044238
312254.4697,-0.02473665018512411,0.7825137656311993,1.6670200203726824,-3.1360839793306923,11.486000000033528
312254.4707,-1.1573760344539277,-0.14064218129227973,0.28131693564566174,-4.125060668796331,11.487000000022817
312254.4717,-2.1158853841005367,-0.9624117859651203,-1.020223810261996,-4.95542971913763,11.488000000012107
312254.4727,-2.8385814679645613,-1.6130454952753472,-2.1609153162714083,-5.54732371575499,11.489000000001397
312254.4737,-3.27426364417663,-2.0299377425061094,-3.0709543920219957,-5.830411299125549,11.489999999990687
312254.4747,-3.3883089171441796,-2.164348952166262,-3.694196860702157,-5.751330260236299,11.491000000038184
312254.4757,-3.1676707685412593,-1.9871584236010296,-3.9939837544063232,-5.2800041462023986,11.492000000027474
312254.4767,-2.624217560888782,-1.4930632694318515,-3.9574161905391914,-4.414193486711982,11.493000000016764
312254.4777,-1.7959899442530243,-0.7027757785529051,-3.5976147220534878,-3.181784597213199,11.494000000006054
312254.4787,-0.7461456133884649,0.3370466465094226,-2.9536847237049955,-1.6405210799162901,11.494999999995343
312254.4797,0.44042397634572156,1.5561956931255343,-2.088325106671049,0.12488339343266394,11.49600000004284
312254.4807,1.6625975453740043,2.865470642141533,-1.083242483996804,2.008069843248993,11.49700000003213
312254.4817,2.810233568647952,4.163038059093781,-0.0327449618198674,3.888386571005966,11.49800000002142
312254.4827,3.7724984364232568,5.342059045844316,0.9639317445708108,5.639667288785932,11.49900000001071
312254.4837,4.446606792375225,6.298929021178914,1.810885762030257,7.139694461562794,11.5
312254.4847,4.746213170055567,6.9414143589918815,2.423654369927014,8.279537397876949,11.50099999998929
312254.4857,4.608710421017462,7.195976166198441,2.7364262142262987,8.97195929395537,11.502000000036787
312254.4867,4.000776819417991,7.01364347476084,2.707700319004021,9.15816666546464,11.503000000026077
312254.4877,2.921662552240001,6.3739292744586,2.3238716836333464,8.812321019793716,11.504000000015367
312254.4887,1.4039039204283041,5.286460594534219,1.6004130209393497,7.943432448725691,11.505000000004657
312254.4897,-0.48861841575312664,3.7902012884674234,0.5805438042479301,6.594489196653128,11.505999999993946
312254.4907,-2.665123810577833,1.9503635336300467,-0.6684898900062021,4.8389240661191915,11.507000000041444
312254.4917,-5.014501626265979,-0.146689303108505,-2.061180439087316,2.7747545190921774,11.508000000030734
312254.4927,-7.413440644076,-2.4000693740212347,-3.5010361299140196,0.5169363898746849,11.509000000020023
312254.4937,-9.735414816330033,-4.701911909611974,-4.888700933592859,-1.8113776496046912,11.510000000009313
312254.4947,-11.859750620164071,-6.945163914909608,-6.130172668857014,-4.087898192179651,11.510999999998603
312254.4957,-13.68000148137862,-9.030928183143054,-7.144372475164418,-6.199788732197847,11.5120000000461
312254.4967,-15.110926601138715,-10.874735492223506,-7.869386210721909,-8.051057089129158,11.51300000003539
312254.4977,-16.093507977616902,-12.41123497335007,-8.266830237088831,-9.568149192293854,11.51400000002468
312254.4987,-16.59762724476772,-13.596956235950165,-8.323977173070691,-10.703328172235256,11.51500000001397
312254.4997,-16.622245047813383,-14.410990510838246,-8.053493787602156,-11.435640044580564,11.51600000000326
312254.5007,-16.19315881197493,-14.85364264691585,-7.490872247092638,-11.769500185292555,11.51699999999255
312254.5017,-15.358637640880602,-14.943301169791766,-6.68985527539513,-11.731159662229839,11.518000000040047
312254.5027,-14.183424493731973,-14.711940749315684,-5.7163442621941725,-11.363505665688853,11.519000000029337
312254.5037,-12.741737657303718,-14.199794214294625,-4.641418861277187,-10.719797204222154,11.520000000018626
312254.5047,-11.109982640404583,-13.449798069703803,-3.534173857098368,-9.857022198548423,11.521000000007916
312254.5057,-9.359894893773019,-12.502420291871283,-2.455086843796229,-8.829577581081267,11.521999999997206
312254.5067,-7.552772908868633,-11.391422145893129,-1.4505681357601317,-7.68391932295618,11.523000000044703
312254.5077,-5.735336781389028,-10.140993157123363,-0.549218703048989,-6.454710687100633,11.524000000033993
312254.5087,-3.937571886948243,-8.764541925999737,0.239854637900964,-5.162826911480777,11.525000000023283
312254.5097,-2.1727084477437044,-7.265241255472329,0.9265275464363522,-3.8153704179589893,11.526000000012573
312254.5107,-0.43926618621794233,-5.638232820186724,1.537033470244435,-2.4076332303506254,11.527000000001863
312254.5117,1.2751191646694526,-3.8742139498766943,2.1095229222380647,-0.9267344883665111,11.527999999991152
312254.5127,2.9885530977682397,-1.963975538327961,2.688286995005086,0.6435182718749178,11.52900000003865
312254.5137,4.719023343438676,0.0966487834226569,3.3172604883708074,2.3171270821169037,11.53000000002794
312254.5147,6.4784980095266524,2.3020151223593834,4.033493668011468,4.100414732582212,11.53100000001723
312254.5157,8.267659285343699,4.632668019668082,4.861286620929437,5.987206319023877,11.53200000000652
312254.5167,10.071887551941014,7.052620757746253,5.807615925551583,7.955273258469998,11.532999999995809
312254.5177,11.858984780212737,9.508309268453404,6.859356191745677,9.964505155622382,11.534000000043306
312254.5187,13.578950206283633,11.929446075776413,7.982621402656432,11.957099076469387,11.535000000032596
312254.5197,15.16591279908574,14.231809305823159,9.124340318232612,13.859848403671156,11.536000000021886
312254.5207,16.542104545160864,16.321803522645666,10.215957152264577,15.58839523994261,11.537000000011176
312254.5217,17.623547845002864,18.102443755062446,11.178935224437685,17.05310316555523,11.538000000000466
312254.5227,18.326950193641913,19.480260157797126,11.931558327832658,18.166031898269196,11.538999999989755
312254.5237,18.577167686866698,20.372513883209038,12.396390191468203,18.84836981331688,11.540000000037253
312254.5247,18.314528909849304,20.7140659530662,12.507679976116961,19.037617265061925,11.541000000026543
312254.5257,17.50130956382703,20.463255575435067,12.217998497233788,18.693819969394728,11.542000000015832
312254.5267,16.126716181055333,19.60622159974715,11.503456337940039,17.804227280476894,11.543000000005122
312254.5277,14.209868110462674,18.159233643515172,10.366984896139893,16.385888104023863,11.543999999994412
312254.5287,11.800448117341517,16.16877537621854,8.83934219504922,14.485884327104683,11.54500000004191
312254.5297,8.976905993140418,13.709324758191846,6.977719481638002,12.179120001826876,11.5460000000312
312254.5307,5.8423258576344335,10.878985315718332,4.862051472144546,9.563812946012048,11.547000000020489
312254.5317,2.5182844972385277,7.793318655486578,2.589350561742524,6.755051700816139,11.548000000009779
312254.5327,-0.8627858001983439,4.577892476419908,0.2665722878135649,3.876963813434936,11.548999999999069
312254.5337,-4.166078820261295,1.3601744973448258,-1.9973423145877431,1.0541732862271087,11.550000000046566
312254.5347,-7.263013368654001,-1.7385402128194,-4.099525494837997,-1.59670719730663,11.551000000035856
312254.5357,-10.039215488405011,-4.610488510288771,-5.950613765584505,-3.9748067083312693,11.552000000025146
312254.5367,-12.401212146335379,-7.167476329313999,-7.480885106639899,-6.001280289603459,11.553000000014435
312254.5377,-14.281289991680445,-9.345113039822419,-8.644563093506667,-7.6236153098984785,11.554000000003725
312254.5387,-15.640148922786494,-11.104934701198275,-9.421926585436443,-8.817615830463728,11.554999999993015
312254.5397,-16.467189793010803,-12.434307818061876,-9.81907539146174,-9.586940479468467,11.556000000040513
312254.5407,-16.77849818727468,-13.344213272914804,-9.865427279625017,-9.960299753608025,11.557000000029802
312254.5417,-16.612800168470176,-13.865206201453583,-9.609237877706468,-9.986637550719266,11.558000000019092
312254.5427,-16.025850530312358,-14.042012789058463,-9.111621410491386,-9.728807891096734,11.559000000008382
312254.5437,-15.083851665288778,-13.927343479915805,-8.439688765922936,-9.256393236921541,11.559999999997672
312254.5447,-13.856578618036549,-13.575562702275706,-7.659496739538494,-8.638382575315509,11.56100000004517
312254.5457,-12.410896153241374,-13.036852429973537,-6.8295111528201256,-7.936428743018019,11.562000000034459
312254.5467,-10.805296258459954,-12.352441458584122,-5.99522628285373,-7.199335492062263,11.563000000023749
312254.5477,-9.085965613276825,-11.55135105590246,-5.185459858266112,-6.459292557576888,11.564000000013039
312254.5487,-7.2847243971820035,-10.648942987324949,-4.4106691077386975,-5.7301947060390805,11.565000000002328
312254.5497,-5.41897739525235,-9.64736438550423,-3.6634262698529425,-5.0081665131408455,11.565999999991618
312254.5507,-3.4936058283914897,-8.53778469466166,-2.9209721031708713,-4.2741896483226,11.567000000039116
312254.5517,-1.5045249498145226,-7.304132845380478,-2.149555013576062,-3.498515955619466,11.568000000028405
312254.5527,0.5565414870967547,-5.927886530666509,-1.3100822724560095,-2.64636868905866,11.569000000017695
312254.5537,2.696645935017579,-4.393355505514456,-0.36447631179216233,-1.684303733471276,11.570000000006985
312254.5547,4.916204675522075,-2.6928481606595462,0.7179435780057066,-0.5865353917492432,11.570999999996275
312254.5557,7.204233594113614,-0.8311204840816014,1.9547384812067545,0.659466017924608,11.572000000043772
312254.5567,9.534812463870939,1.1714220241003048,3.3459065415967815,2.0487251936323494,11.573000000033062
312254.5577,11.86523327556811,3.2771729359857193,4.871213610840462,3.5563471025908067,11.574000000022352
312254.5587,14.136115796382898,5.431659405856618,6.489616575073049,5.137237973053305,11.575000000011642
312254.5597,16.27357079803135,7.565804649148776,8.14088980971581,6.728048409830945,11.576000000000931
312254.5607,18.193278479589356,9.599960946956102,9.749345010397105,8.251200084722194,11.576999999990221
312254.5617,19.806147797464273,11.449370065809845,11.229324229429949,9.620644978176507,11.578000000037719
312254.5627,21.025051946367032,13.030554767337819,12.491966088303002,10.748827202812206,11.579000000027008
312254.5637,21.77201331434431,14.268039816855072,13.452613624562444,11.55418983284582,11.580000000016298
312254.5647,21.985150322754826,15.100754410890495,14.038162116981836,11.968505689763663,11.581000000005588
312254.5657,21.624705136718333,15.487485305011111,14.193643547671137,11.94331820693742,11.581999999994878
312254.5667,20.677545136574246,15.410829936353254,13.887411425852424,11.454855898216096,11.583000000042375
312254.5677,19.159665485071365,14.879234123461949,13.114419096214796,10.506924272525039,11.584000000031665
312254.5687,17.11640233451644,13.92687663589452,11.89726385370782,9.131468760477816,11.585000000020955
312254.5697,14.620278676713074,12.61136596661578,10.284880770413617,7.386722964212871,11.586000000010245
312254.5707,11.766626994691201,11.0094233409434,8.348993513317945,5.3530868379080605,11.586999999999534
312254.5717,8.667343148880002,9.21092002161537,6.178642834807045,3.12709679677257,11.587999999988824
312254.5727,5.443303823049671,7.311797306706462,3.873296055273575,0.8140329900136382,11.589000000036322
312254.5737,2.2161079573454456,5.406508436109543,1.5351749318237884,-1.4801598968966974,11.590000000025611
312254.5747,-0.900131706135951,3.580671835619669,-0.7384882410418908,-3.6568958249281405,11.591000000014901
312254.5757,-3.806224121159511,1.904609489665206,-2.8625526692359755,-5.63217755015555,11.592000000004191
312254.5767,-6.42391178076041,0.4283638740920786,-4.769780832860549,-7.342373373558869,11.59299999999348
312254.5777,-8.699942414637421,-0.82135078220756,-6.414839436835049,-8.748020619909147,11.594000000040978
312254.5787,-10.607867472582054,-1.8419890951168627,-7.776146932250354,-9.835326714486733,11.595000000030268
312254.5797,-12.147449329774537,-2.6537420693500304,-8.855435666976682,-10.61526120200142,11.596000000019558
312254.5807,-13.341785012518049,-3.295982489123992,-9.675119510365276,-11.120364628831911,11.597000000008848
312254.5817,-14.23246917264625,-3.8219410206344886,-10.273770933823974,-11.399620243069938,11.597999999998137
312254.5827,-14.873302291013372,-4.292134518167562,-10.70019419133677,-11.511920512838106,11.599000000045635
312254.5837,-15.323183985975431,-4.7671869923813635,-11.006715587238347,-11.518794375139105,11.600000000034925
312254.5847,-15.638902947790248,-5.300741441566759,-11.242384724217828,-11.47712983226446,11.601000000024214
312254.5857,-15.868537561185818,-5.933151588469373,-11.446784984586506,-11.432623294347838,11.602000000013504
312254.5867,-16.046114571414723,-6.686567280645671,-11.645086913539657,-11.414612227802609,11.603000000002794
312254.5877,-16.18804377387476,-7.561893062357441,-11.84485099919091,-11.432808508540697,11.603999999992084
312254.5887,-16.291667330112652,-8.537919075335136,-12.03490907326275,-11.476259982358332,11.605000000039581
312254.5897,-16.336050455820597,-9.572714324642664,-12.186443602918642,-11.514645653578208,11.606000000028871
312254.5907,-16.28491656342319,-10.60715457686823,-12.256162145063914,-11.501777362308198,11.60700000001816
312254.5917,-16.091416287468714,-11.570251708719965,-12.191252031001106,-11.380960510382458,11.60800000000745
312254.5927,-15.704237005622998,-12.385777976043073,-11.93561884878194,-11.091679908230958,11.60899999999674
312254.5937,-15.074425307616428,-12.979554101786713,-11.436779414617694,-10.576942396792864,11.610000000044238
312254.5947,-14.162222422739205,-13.286706236847042,-10.65270884746302,-9.79053872752065,11.611000000033528
312254.5957,-12.9432089294738,-13.258199793966828,-9.557939210047484,-8.703490069140155,11.612000000022817
312254.5967,-11.413120459695483,-12.86602748109534,-8.148274329085364,-7.309019229541939,11.613000000012107
312254.5977,-9.590824149828283,-12.106557723913532,-6.443615432454261,-5.6255260041281865,11.614000000001397
312254.5987,-7.519123741411065,-11.001725463839223,-4.48857254169056,-3.6972364586717275,11.614999999990687
312254.5997,-5.263272065459846,-9.597952917544815,-2.3507495893156474,-1.5924189224154401,11.616000000038184
312254.6007,-2.907292551605642,-7.962903307297993,-0.11681622008464371,0.6007066602029785,11.617000000027474
312254.6017,-0.5484246179545438,-6.180374944468733,2.113305780721371,2.7800173047515777,11.618000000016764
312254.6027,1.709809471571104,-4.343816644063185,4.2336295126747014,4.836956055145855,11.619000000006054
312254.6037,3.765284231816806,-2.549071611005999,6.14001653290442,6.664747007798256,11.619999999995343
312254.6047,5.524991849852683,-0.8870237069572988,7.738097269068996,8.166609487388612,11.62100000004284
312254.6057,6.912094288623542,0.5631787325900366,8.95047507141362,9.263224031466143,11.62200000003213
312254.6067,7.871660332196237,1.7397102903114599,9.722556862155276,9.898773932117932,11.62300000002142
312254.6077,8.374567333413172,2.601978254253918,10.026482695936316,10.045021737964207,11.62400000001071
312254.6087,8.419223223057076,3.1325345232786765,9.862806471099667,9.703067009878946,11.625
312254.6097,8.030972599330816,3.336867157259144,9.259792975422972,8.902651471189655,11.62599999998929
312254.6107,7.259271002945473,3.2411565418089627,8.270421655159899,7.69910906592584,11.627000000036787
312254.6117,6.172922248382683,2.8882777521347287,6.9674030381658305,6.168278851028232,11.628000000026077
312254.6127,4.853854383361173,2.332497195336854,5.4366986763859435,4.399886758674488,11.629000000015367
312254.6137,3.3900429643320296,1.6334317655142894,3.7701718868380074,2.4900399579937176,11.630000000004657
312254.6147,1.8682630787185486,0.8499010004907465,2.058071332641817,0.5335516957825818,11.630999999993946
312254.6157,0.367357106603802,0.03430130350797905,0.38205552935293036,-1.3831817614471935,11.632000000041444
312254.6167,-1.0473565791945942,-0.7719332601033458,-1.1905966315316867,-3.1880970743201034,11.633000000030734
312254.6177,-2.3280314668109714,-1.5413399541350463,-2.6110698271205126,-4.8276476769445,11.634000000020023
312254.6187,-3.4462659540817766,-2.261627332281439,-3.8510467780302986,-6.26891081645263,11.635000000009313
312254.6197,-4.392972660469712,-2.934979413354357,-4.902557421426385,-7.499485586382215,11.635999999998603
312254.6207,-5.1762285572268985,-3.5755772542755375,-5.775726945596744,-8.525273334271313,11.6370000000461
312254.6217,-5.817393763590081,-4.205638801369289,-6.494716961145526,-9.366444297216105,11.63800000003539
312254.6227,-6.345959763460257,-4.850434482538706,-7.092333543085598,-10.052074661150552,11.63900000002468
312254.6237,-6.7937131804200135,-5.5328457040200165,-7.6039069635523555,-10.614068645396214,11.64000000001397
312254.6247,-7.1888667157103185,-6.268085135093721,-8.061117714990901,-11.081047846666086,11.64100000000326
312254.6257,-7.550807974812204,-7.059186064444363,-8.486445028959194,-11.472888325759493,11.64199999999255
312254.6267,-7.886049850797738,-7.893794147438527,-8.888847396353903,-11.79651504847977,11.643000000040047
312254.6277,-8.185839642125405,-8.742665693222497,-9.261156217387324,-12.04343040813894,11.644000000029337
312254.6287,-8.425710816494506,-9.560104929378442,-9.579486390140135,-12.18927191508492,11.645000000018626
312254.6297,-8.56705861108118,-10.286375362689848,-9.804758983642833,-12.195481838374494,11.646000000007916
312254.6307,-8.560608756981622,-10.851916968936447,-9.886211870203523,-12.01294979283543,11.646999999997206
312254.6317,-8.351448757886917,-11.183011725677485,-9.7665661464246,-11.587280136049307,11.648000000044703
312254.6327,-7.885123419571688,-11.208383885238154,-9.38834013771609,-10.865160537659342,11.649000000033993
312254.6337,-7.114177662669465,-10.866114141563896,-8.700676441606138,-9.801183913443849,11.650000000023283
312254.6347,-6.0044721835415436,-10.110199518250164,-7.665983654309237,-8.36441577470688,11.651000000012573
312254.6357,-4.540607354371017,-8.916108608663206,-6.265699847221718,-6.544009350862315,11.652000000001863
312254.6367,-2.7298673220852225,-7.284763577694056,-4.504559411843468,-4.35325109294109,11.652999999991152
312254.6377,-0.6042324097026238,-5.244518651625556,-2.4128816512505207,-1.8315619487184467,11.65400000003865
312254.6387,1.779809450834987,-2.8508866617918893,-0.04658538381263407,0.9558284927331144,11.65500000002794
312254.6397,4.343710165783605,-0.18397322609487857,2.515149129496808,3.9205957519980137,11.65600000001723
312254.6407,6.99140628886868,2.656207638949107,5.1744225267715365,6.956251883608972,11.65700000000652
312254.6417,9.615593728287708,5.55616297290936,7.820999582502031,9.944907073803245,11.657999999995809
312254.6427,12.10519274202816,8.396556047018237,10.339988210409468,12.76529167217032,11.659000000043306
312254.6437,14.3533423495223,11.06039209049985,12.620138460470184,15.301339719332423,11.660000000032596
312254.6447,16.265205060144083,13.441044942955768,14.56201918532705,17.45057178095764,11.661000000021886
312254.6457,17.76487364306349,15.449427355239145,16.08533434242151,19.131524122682688,11.662000000011176
312254.6467,18.800750812643617,17.01968578311888,17.134715903535714,20.289552460528387,11.663000000000466
312254.6477,19.34891276626222,18.112937019297704,17.683469047078155,20.900484198887465,11.663999999989755
312254.6487,19.414155099839707,18.718745838802263,17.73493448456918,20.971789443295254,11.665000000037253
312254.6497,19.02863667716058,18.85425254824807,17.32135426863718,20.541169416789064,11.666000000026543
312254.6507,18.24826256114661,18.561076791516975,16.50035993023307,19.672699348779606,11.667000000015832
312254.6517,17.14715927529015,17.90032829329354,15.34942289367207,18.450888561218665,11.668000000005122
312254.6527,15.810773859571666,16.946226827580343,13.958795507039262,16.97321167354594,11.668999999994412
312254.6537,14.328255099975111,15.778956184712165,12.423608556242511,15.341803225503366,11.67000000004191
312254.6547,12.784838597459892,14.477438668979461,10.83586459044345,13.65508031666474,11.6710000000312
312254.6557,11.254950838068645,13.112711995399925,9.277068781301665,12.00005721684036,11.672000000020489
312254.6567,9.796671762667467,11.742520137865128,7.812170275357545,10.446042507282813,11.673000000009779
312254.6577,8.448057887451863,10.407600863451218,6.48535389338419,9.040270407004417,11.673999999999069
312254.6587,7.225642201751824,9.129978197822481,5.318037641123519,7.805827098213673,11.675000000046566
312254.6597,6.125211005708362,7.913365150361552,4.309213849758999,6.7420086821893515,11.676000000035856
312254.6607,5.124732650643207,6.745570657031376,3.438042099235105,5.827011667571039,11.677000000025146
312254.6617,4.1891008213638985,5.602605615469479,2.6683827695184816,5.022632491787156,11.678000000014435
312254.6627,3.276176323938691,4.45401557077448,1.9547724478091424,4.280461227875362,11.679000000003725
312254.6637,2.3434838159248286,3.2688483759603364,1.249204705457933,3.5489147922934245,11.679999999993015
312254.6647,1.3548560562839511,2.0216055528472228,0.5080052633477027,2.7803800423127765,11.681000000040513
312254.6657,0.2863243646352033,0.6975317874009394,-0.3019135856360019,1.9377341710426677,11.682000000029802
312254.6667,-0.8693704663412348,-0.7033327534416408,-1.1980679895400166,0.999578772485687,11.683000000019092
312254.6677,-2.100134888586758,-2.163784908304736,-2.1792053063371353,-0.03634217058393055,11.684000000008382
312254.6687,-3.3740486467655377,-3.6490510643606435,-3.2242315460963367,-1.1518846848454884,11.684999999997672
312254.6697,-4.641144957031666,-5.108415088722504,-4.293385850083811,-2.3095332747219963,11.68600000004517
312254.6707,-5.837303405291218,-6.478749338639089,-5.331557779076395,-3.4556109120619447,11.687000000034459
312254.6717,-6.8899007825702725,-7.6896216514545745,-6.273426829431108,-4.5253468277246744,11.688000000023749
312254.6727,-7.724685479061243,-8.669488571106204,-7.049918740602588,-5.44929181460025,11.689000000013039
312254.6737,-8.273212910191294,-9.352370686549337,-7.595337969431613,-6.160435078011632,11.690000000002328
312254.6747,-8.48011542882553,-9.684351197672095,-7.854463483077054,-6.601305160897622,11.690999999991618
312254.6757,-8.30948673435358,-9.629249170977026,-7.788892894509811,-6.730337070569657,11.692000000039116
312254.6767,-7.749737499865457,-9.172893474553797,-7.381988199963595,-6.526858385926224,11.693000000028405
312254.6777,-6.816418548096527,-8.325554845682703,-6.641908358845842,-5.994181789026608,11.694000000017695
312254.6787,-5.552697031321625,-7.122269096712022,-5.6023968303961365,-5.160476817530622,11.695000000006985
312254.6797,-4.027391498880386,-5.6209869174566105,-4.3212081198610175,-4.077311379001685,11.695999999996275
312254.6807,-2.3307022036700364,-3.8986952465148605,-2.8762853330279987,-2.8159822403295895,11.697000000043772
312254.6817,-0.5679912577241003,-2.0458512189901406,-1.3600184657315713,-1.461970784479884,11.698000000033062
312254.6827,1.1478477688078008,-0.15963302802531049,0.12790055748796786,-0.1080444478907398,11.699000000022352
312254.6837,2.70475733614582,1.66337336319735,1.4883733794813176,1.1533426946019816,11.700000000011642
312254.6847,3.9998771484328244,3.3343781076460215,2.6308147086323816,2.2376278221032897,11.701000000000931
312254.6857,4.947156481738347,4.778819157158141,3.480365515226787,3.074975362489862,11.701999999990221
312254.6867,5.483546228006395,5.94143403348359,3.98373622540041,3.6157234118994506,11.703000000037719
312254.6877,5.5732339241970745,6.78951609608444,4.11314666294552,3.833929129607959,11.704000000027008
312254.6887,5.209570026587491,7.314075951033809,3.86801105150098,3.7286880069571393,11.705000000016298
312254.6897,4.414551030006041,7.5288317755197225,3.274231367303143,3.3231200344455987,11.706000000005588
312254.6907,3.235953660927284,7.467162494752257,2.3811898025987075,2.661144223601577,11.706999999994878
312254.6917,1.742432198442816,7.177354384568596,1.2567489561680676,1.8023791885606608,11.708000000042375
312254.6927,0.017077020400763115,6.716635539346806,-0.019244521415969332,0.8156902526834721,11.709000000031665
312254.6937,-1.849931090951523,6.144607691915038,-1.362318832209271,-0.22796520513246057,11.710000000020955
312254.6947,-3.768862461369488,5.516739817416219,-2.690888367891979,-1.2626756814934756,11.711000000010245
312254.6957,-5.65746290262766,4.878577388191345,-3.933200603380028,-2.2339826242229046,11.711999999999534
312254.6967,-7.446812853783919,4.2612460737110105,-5.0330647064279095,-3.103917634149651,11.712999999988824
312254.6977,-9.085500655511542,3.6786964227837813,-5.953834463272838,-3.854169329663611,11.714000000036322
312254.6987,-10.54176655218999,3.126959566642155,-6.68029538691708,-4.487067824233291,11.715000000025611
312254.6997,-11.803483277699188,2.5854805464412456,-7.218316430899016,-5.024294517832775,11.716000000014901
312254.7007,-12.876059553906702,2.020385483362582,-7.592349802680489,-5.503454341394262,11.717000000004191
312254.7017,-13.77856262653806,1.3893421924132277,-7.841075979125136,-5.972864060018611,11.71799999999348
312254.7027,-14.538534277765685,0.6475104180798283,-8.011674144716164,-6.485092291016308,11.719000000040978
312254.7037,-15.186103916370257,-0.24603612957422333,-8.153332886956187,-7.0899164058488005,11.720000000030268
312254.7047,-15.748069556192274,-1.322086900722372,-8.310688860357997,-7.827425451681838,11.721000000019558
312254.7057,-16.24261609290066,-2.5959285301737185,-8.517885121244138,-8.721990042900394,11.722000000008848
312254.7067,-16.675270423403006,-4.063414881570096,-8.793875579670477,-9.777740299822877,11.722999999998137
312254.7077,-17.036561568227228,-5.69891561472266,-9.139473980253427,-10.976048860267952,11.724000000045635
312254.7087,-17.301674130125217,-7.455404256438666,-9.536467676573041,-12.275321598660241,11.725000000034925
312254.7097,-17.43217307809689,-9.266737874070122,-9.94890582830681,-13.61317278912992,11.726000000024214
312254.7107,-17.379658003743714,-11.05196451009958,-10.32644938075458,-14.910826040091486,11.727000000013504
312254.7117,-17.090997700501006,-12.721292613031848,-10.60945832116553,-16.07936042656619,11.728000000002794
312254.7127,-16.514622061894695,-14.183188597635144,-10.735311302742598,-17.027234646127106,11.728999999992084
312254.7137,-15.607225563878565,-15.35195097844669,-10.645321791604413,-17.66838915961919,11.730000000039581
312254.7147,-14.340177699061119,-16.155053997406036,-10.291546605691979,-17.930160415461938,11.731000000028871
312254.7157,-12.704947134333125,-16.539566061781255,-9.642784131049297,-17.760249185475594,11.73200000001816
312254.7167,-10.71692762869331,-16.477027794333505,-8.68913084073129,-17.13206639172953,11.73300000000745
312254.7177,-8.417197541918279,-15.96631372659607,-7.444599355284218,-16.047927066663956,11.73399999999674
312254.7187,-5.87193754925246,-15.034187467959983,-5.947486285958213,-14.539762321372658,11.735000000044238
312254.7197,-3.169454508493965,-13.733474830482404,-4.258395616251556,-12.66725136802091,11.736000000033528
312254.7207,-0.41499173648763654,-12.139002309694519,-2.4560522716223687,-10.51351846863063,11.737000000022817
312254.7217,2.2762753544370216,-10.34165809079784,-0.6312584690114638,-8.178769787112302,11.738000000012107
312254.7227,4.787475657833868,-8.441109169886623,1.1204689269584112,-5.772440302876769,11.739000000001397
312254.7237,7.008797759249936,-6.537834242788916,2.7069067745735143,-3.4045623344856795,11.739999999990687
312254.7247,8.845987115717717,-4.725195554988574,4.047035473049073,-1.1771411232192754,11.741000000038184
312254.7257,10.227816780380783,-3.0822677886124064,5.078106214003254,0.8236778507319392,11.742000000027474
312254.7267,11.111845193406934,-1.6680687782726653,5.76119354550677,2.533940579892507,11.743000000016764
312254.7277,11.487921877383174,-0.517702471079318,6.0846980460712405,3.916148879771914,11.744000000006054
312254.7287,11.37910112115518,0.35925795104604086,6.065452922122793,4.961087500354336,11.744999999995343
312254.7297,10.83985625185883,0.9780318775614008,5.747311449316844,5.687075355458234,11.74600000004284
312254.7307,9.951730973679838,1.3756460803875934,5.197328028732562,6.136745899967719,11.74700000003213
312254.7317,8.81679644676403,1.606022102911164,4.49987160466222,6.371694335333265,11.74800000002142
312254.7327,7.549481324144489,1.7336354968005039,3.7492045928940856,6.465528588850601,11.74900000001071
312254.7337,6.26748808864168,1.8263768884192706,3.0412046230903034,6.496007800350828,11.75
312254.7347,5.082588968872712,1.9483141878925796,2.4649864673359874,6.537032390390275,11.75099999998929
312254.7357,4.092101022496509,2.153056792962396,2.095189846671454,6.6512561766940035,11.752000000036787
312254.7367,3.371772248716936,2.47835656801671,1.9856346327496435,6.884023138149972,11.753000000026077
312254.7377,2.9706754862687137,2.9424534349651177,2.1649145319354126,7.259196188944976,11.754000000015367
312254.7387,2.908517430106302,3.542498218400044,2.634316267391001,7.77725612645242,11.755000000004657
312254.7397,3.1755445555777126,4.255179199778799,3.3682313180894203,8.415824356873994,11.755999999993946
312254.7407,3.734987634602068,5.039461851414721,4.316992604744744,9.132525053382885,11.757000000041444
312254.7417,4.527754703592986,5.841144601524142,5.411841661564494,9.869874253378665,11.758000000030734
312254.7427,5.4788807097888945,6.598757286568093,6.571534502239894,10.561687202395385,11.759000000020023
312254.7437,6.505089499759521,7.250200186998398,7.709945354606224,11.140349953340811,11.760000000009313
312254.7447,7.522734361987001,7.7394525329418995,8.743940741022584,11.544220750120944,11.760999999998603
312254.7457,8.45536487042251,8.022676546839564,9.600779981484111,11.724418612628675,11.7620000000461
312254.7467,9.240221284500478,8.073106418822134,10.22435322601428,11.650321259651642,11.76300000003539
312254.7477,9.833077286899877,7.884234592222658,10.57968880129696,11.313225415915545,11.76400000002468
312254.7487,10.211025102071295,7.470978077148684,10.655335876226019,10.727806571901999,11.76500000001397
312254.7497,10.37300665698621,6.868708333811421,10.463438975033828,9.931234181013224,11.76600000000326
312254.7507,10.338119658296373,6.1302397758867935,10.037547019538138,8.980030517395456,11.76699999999255
312254.7517,10.141946156347142,5.32107335558637,9.428419270300022,7.94498416962415,11.768000000040047
312254.7527,9.831342044418081,4.513363272117876,8.69828240168669,6.904620591150625,11.769000000029337
312254.7537,9.45827057879742,3.779199833504304,7.914138442270236,5.937873568467807,11.770000000018626
312254.7547,9.073347642117673,3.183867745835355,7.140808507131727,5.116679145769227,11.771000000007916
312254.7557,8.71978333454973,2.7797402418403543,6.434414171351679,4.499219985353406,11.771999999997206
312254.7567,8.428352510310681,2.6014055359804846,5.8369457389940855,4.1244828760787176,11.773000000044703
312254.7577,8.213911819706574,2.662499543690035,5.372450135600597,4.0086616999803795,11.774000000033993
312254.7587,8.073814610679689,2.9545498205940914,5.045202549005034,4.143755591186996,11.775000000023283
312254.7597,7.988374631968355,3.447937007793352,4.840022207639131,4.498495342865657,11.776000000012573
312254.7607,7.92331511977552,4.094871357550862,4.724674175183647,5.021501737957485,11.777000000001863
312254.7617,7.83393310153445,4.83408377261866,4.6540875155396755,5.646360021897849,11.777999999991152
312254.7627,7.670530342163185,5.596762771784729,4.5759366579489935,6.298106821816175,11.77900000003865
312254.7637,7.3845301373061325,6.313147455862158,4.43699546709835,6.900487939829845,11.78000000002794
312254.7647,6.934626329359397,6.919123835132029,4.189595985834194,7.383271154756566,11.78100000001723
312254.7657,6.292304747643766,7.362173938402558,3.7975137102603282,7.688894726629198,11.78200000000652
312254.7667,5.446138361085626,7.606093700776418,3.240659522864192,7.777799991146552,11.782999999995809
312254.7677,4.404379678338838,7.634020089879517,2.5180792067697912,7.631928519552849,11.784000000043306
312254.7687,3.195545134343795,7.449477922130778,1.6489327447016526,7.25604771388852,11.785000000032596
312254.7697,1.8668892728924102,7.075355478386715,0.6713303072344516,6.676785255068815,11.786000000021886
312254.7707,0.48088118631161525,6.550925645431474,-0.36088043280136084,5.93948109287051,11.787000000011176
312254.7717,-0.8899995639722129,5.927225281814475,-1.383071959104184,5.103183068702385,11.788000000000466
312254.7727,-2.1696559748443573,5.261270366742604,-2.326056312331207,4.234297262133702,11.788999999989755
312254.7737,-3.285337621134097,4.609701835237695,-3.1229509672627196,3.3995384049377675,11.790000000037253
312254.7747,-4.174492116581431,4.022515114585874,-3.7160046721363496,2.6588958645363823,11.791000000026543
312254.7757,-4.790822489196396,3.5375193882461304,-4.062693560057328,2.0593297341167203,11.792000000015832
312254.7767,-5.108938735058204,3.1761010897721578,-4.140463309837564,1.6298394696038911,11.793000000005122
312254.7777,-5.127122813942361,2.9407370203721426,-3.9496210287450046,1.3784113004074228,11.793999999994412
312254.7787,-4.867905929499504,2.814528441678106,-3.514058459635844,1.291163668682058,11.79500000004191
312254.7797,-4.376367634133163,2.762825631362364,-2.879698725093366,1.3337906084466638,11.7960000000312
312254.7807,-3.716287531989716,2.736802590209993,-2.110781499274297,1.455172872580087,11.797000000020489
312254.7817,-2.964490441301755,2.678644560619938,-1.284314399080507,1.5928084624476646,11.798000000009779
312254.7827,-2.2039041696460635,2.5278462454080266,-0.4832005774901695,1.6795295869218883,11.798999999999069
312254.7837,-1.5159779632746617,2.2280024543633674,0.21131398147621547,1.6508402931275028,11.800000000046566
312254.7847,-0.9731764159783399,1.7334169633247765,0.7271583585105158,1.4521413293490293,11.801000000035856
312254.7857,-0.6322614165030142,1.0148653704427073,1.0082021819170044,1.045113114886553,11.802000000025146
312254.7867,-0.5290035480678146,0.06392295047335073,1.0196181754860987,0.4126038485305846,11.803000000014435
312254.7877,-0.674830930407649,-1.1045981692983724,0.7513215848945273,-0.43848940645928997,11.804000000003725
312254.7887,-1.0557405973215885,-2.452379560669192,0.21914738882663612,-1.4766669036469915,11.804999999993015
312254.7897,-1.6335827538722576,-3.9195651384246095,-0.5363594048848487,-2.6476954339452474,11.806000000040513
312254.7907,-2.349602404174694,-5.428823531489849,-1.4534380959588757,-3.878761119484544,11.807000000029802
312254.7917,-3.129907733392295,-6.891157866979569,-2.4545713643695977,-5.084543185066557,11.808000000019092
312254.7927,-3.892351090769569,-8.21294709499071,-3.453401993146579,-6.174656835452928,11.809000000008382
312254.7937,-4.554174224352064,-9.303582301304452,-4.3624615044504464,-7.061776436557332,11.809999999997672
312254.7947,-5.039697546877694,-10.083001406567638,-5.100988264037852,-7.669679049704059,11.81100000004517
312254.7957,-5.287330600480313,-10.48843211402806,-5.602105238183913,-7.940450068053063,11.812000000034459
312254.7967,-5.255247744973688,-10.479725376725023,-5.818690219849834,-7.840167261014079,11.813000000023749
312254.7977,-4.925202886395407,-10.042793051515662,-5.727397855002661,-7.362519889661521,11.814000000013039
312254.7987,-4.304137148892743,-9.190841120688203,-5.3304708830586325,-6.530012275999852,11.815000000002328
312254.7997,-3.4234462595460147,-7.9632967415308356,-4.655190355750829,-5.392627775601426,11.815999999991618
312254.8007,-2.335999379702451,-6.422543467554222,-3.751040610726285,-4.024067719893247,11.817000000039116
312254.8017,-1.1112163400766897,-4.648783437642852,-2.6848825457823233,-2.5159075989362756,11.818000000028405
312254.8027,0.17130514818715065,-2.733518467747788,-1.5346171945996394,-0.9702076478785637,11.819000000017695
312254.8037,1.4289845981329015,-0.7722671804727332,-0.3819625527222379,0.5087416341047251,11.820000000006985
312254.8047,2.583573936379314,1.1427993820126368,0.6949535023939057,1.82278038091542,11.820999999996275
312254.8057,3.567884761123672,2.9296219242780204,1.6284700964486105,2.887582533488113,11.822000000043772
312254.8067,4.331283025774747,4.521801544401469,2.367084220132416,3.6390046550273922,11.823000000033062
312254.8077,4.843432715309556,5.872443063387638,2.8794216570947393,4.037517539928098,11.824000000022352
312254.8087,5.095946680637961,6.955975405508248,3.15612754830533,4.070344728302068,11.825000000011642
312254.8097,5.101812417424406,7.767833311306987,3.2095241080958603,3.7511539292882485,11.826000000000931
312254.8107,4.892682628157169,8.322096533928775,3.071104969633548,3.1173825881333888,11.826999999990221
312254.8117,4.514333076421179,8.64738375369166,2.787149818953834,2.2255045622173313,11.828000000037719
312254.8127,4.020772622228608,8.781469076489405,2.4129283553319167,1.144739228073959,11.829000000027008
312254.8137,3.467624456587101,8.765212478042317,2.006101001884054,-0.05015144897249642,11.830000000016298
312254.8147,2.905470179323491,8.636459854220076,1.620001606779572,-1.2862521389118824,11.831000000005588
312254.8157,2.373852245437134,8.424567170748718,1.297496990549462,-2.499335286514034,11.831999999994878
312254.8167,1.896564932987586,8.146136719899015,1.0660586750188903,-3.639483304359208,11.833000000042375
312254.8177,1.4787356465853168,7.802428236996785,0.9345593364390619,-4.674950142938726,11.834000000031665
312254.8187,1.106019546097488,7.378735923010149,0.892132548562191,-5.59390251539774,11.835000000020955
312254.8197,0.7460186459127967,6.845821144759086,0.9092263561365274,-6.403897727417418,11.836000000010245
312254.8207,0.3518124155390021,6.163279542760374,0.9407596495876605,-7.129185026209294,11.836999999999534
312254.8217,-0.13272746508346395,5.2845212517478775,0.9310770594786304,-7.806137931797221,11.837999999988824
312254.8227,-0.766349069399833,4.16287366347504,0.8202142287877316,-8.47731439328545,11.839000000036322
312254.8237,-1.6032043075632134,2.758194387915876,0.550849068085457,-9.184781148268222,11.840000000025611
312254.8247,-2.6857226476295954,1.0433199305724634,0.07523952032481068,-9.963414590003838,11.841000000014901
312254.8257,-4.038294355196706,-0.9903205725948764,-0.6385579592223478,-10.834895255506943,11.842000000004191
312254.8267,-5.6624151777446,-3.3285275328576325,-1.6018317169212029,-11.80304621865492,11.84299999999348
312254.8277,-7.533812417995516,-5.932060930453456,-2.80223559815205,-12.851033724480134,11.844000000040978
312254.8287,-9.601888863726472,-8.736574017548735,-4.203024278963013,-13.940764251851876,11.845000000030268
312254.8297,-11.791603631105831,-11.654840268977804,-5.744627991591277,-15.014593894075093,11.846000000019558
312254.8307,-14.007678520058793,-14.58114652126202,-7.348465393079651,-15.999234921364199,11.847000000008848
312254.8317,-16.140797154451338,-17.397519096717826,-8.922675783371007,-16.811523330063466,11.847999999998137
312254.8327,-18.075273310823903,-19.9812738823301,-10.369263998055967,-17.365521839392162,11.849000000045635
312254.8337,-19.69752282526427,-22.21325273420183,-11.592011414856323,-17.580293842544123,11.850000000034925
312254.8347,-20.904593998879232,-23.9860395651669,-12.50442830584588,-17.387609028860577,11.851000000024214
312254.8357,-21.612002155927197,-25.211446661032905,-13.037013938100564,-16.73883828950969,11.852000000013504
312254.8367,-21.76017583245978,-25.82662540371132,-13.143152335363341,-15.610364630638646,11.853000000002794
312254.8377,-21.31894902384,-25.798279516838527,-12.80309759097592,-14.00697162579859,11.853999999992084
312254.8387,-20.289713766337098,-25.12463127143788,-12.025680934103107,-11.962858506104425,11.855000000039581
312254.8397,-18.705062765261772,-23.834995258275622,-10.847585182822206,-9.540153216168196,11.856000000028871
312254.8407,-16.625982111754084,-21.987030801513765,-9.330260151674615,-6.82503016675494,11.85700000001816
312254.8417,-14.136877273660554,-19.661952191326797,-7.554773007920156,-3.9217652055817864,11.85800000000745
312254.8427,-11.338910187598088,-16.95815587288548,-5.615079234232043,-0.9452546484344023,11.85899999999674
312254.8437,-8.342272935005065,-13.983858564550854,-3.610344326891533,1.9873307313610702,11.860000000044238
312254.8447,-5.258110291046457,-10.849417443890811,-1.6370298305519775,4.765005965989147,11.861000000033528
312254.8457,-2.190821485311564,-7.6600161312683115,0.2185280605775101,7.290787544874733,11.862000000022817
312254.8467,0.7685803884122934,-4.5093476068090155,1.8863744445615012,9.488169995393813,11.863000000012107
312254.8477,3.5474891179116708,-1.4748131410678487,3.317472922335806,11.305699432488492,11.864000000001397
312254.8487,6.094712811012836,1.385403718987059,4.486142760107651,12.719263914375972,11.864999999990687
312254.8497,8.381278877637609,4.033220997094342,5.390221984774032,13.731939581091364,11.866000000038184
312254.8507,10.399067003882026,6.449537563943384,6.049004642987183,14.371464680264138,11.867000000027474
312254.8517,12.15751376330946,8.631342673945259,6.499215878610108,14.685638035756929,11.868000000016764
312254.8527,13.678818368556351,10.587460966243233,6.789476053447532,14.736132529021251,11.869000000006054
312254.8537,14.992219450672858,12.33346501857293,6.973846629388669,14.591359007885595,11.869999999995343
312254.8547,16.127994110911335,13.886358714496662,7.105132309334747,14.319097835637113,11.87100000004284
312254.8557,17.11184517183117,15.25964351242419,7.228628276500276,13.979626373052623,11.87200000003213
312254.8567,17.960289558629935,16.459325793278186,7.376947214701073,13.620010323685651,11.87300000002142
312254.8577,18.677545792283354,17.48131267598305,7.566443826725391,13.270101352720397,11.87400000001071
312254.8587,19.254253543374595,18.310487551211132,7.795586665533949,12.940605377318388,11.875
312254.8597,19.668159905058587,18.921571123148233,8.045425127255438,12.623373213528941,11.87599999998929
312254.8607,19.886695598103564,19.281677896323238,8.282083629885634,12.293839012638871,11.877000000036787
312254.8617,19.871161098911656,19.354291740579747,8.461006854102708,11.915314570785398,11.878000000026077
312254.8627,19.582068211890885,19.104226374924213,8.532500193907401,11.444660661012634,11.879000000015367
312254.8637,18.98505453101364,18.50302342460249,8.447976151743902,10.83871847751966,11.880000000004657
312254.8647,18.056719552703576,17.53418374616722,8.166243600682488,10.060808690991024,11.880999999993946
312254.8657,16.789728984569706,16.197632969533956,7.659169987661403,9.086599881884984,11.882000000041444
312254.8667,15.196598481841104,14.512889426601818,6.916107380246598,7.9087127096761956,11.883000000030734
312254.8677,13.311693399616955,12.520525359198484,5.946595759857617,6.5395545893881515,11.884000000020023
312254.8687,11.19115487856699,10.281678480208619,4.781029006785417,5.012059063832274,11.885000000009313
312254.8697,8.910667544724689,7.875564164471553,3.4691735489202946,3.378216614822099,11.885999999998603
312254.8707,6.561200010689178,5.395139568217906,2.0766463550754364,1.7055082024704569,11.8870000000461
312254.8717,4.243054780905014,2.9412597507996727,0.6796663022659168,0.07156701977297754,11.88800000003539
312254.8727,2.0587386252819457,0.615823458424707,-0.6414297238896043,-1.4424235255155853,11.88900000002468
312254.8737,0.10529052524526424,-1.4854833095629087,-1.809285059468258,-2.75895494617542,11.89000000001397
312254.8747,-1.5332308319511718,-3.2801858391081593,-2.7565461202626893,-3.811331803839627,11.89100000000326
312254.8757,-2.7924010927370535,-4.705113323028551,-3.432119314666199,-4.550013479121267,11.89199999999255
312254.8767,-3.6325979819644316,-5.72101303198892,-3.8060388735130415,-4.947521386568983,11.893000000040047
312254.8777,-4.042187465813656,-6.315245444470415,-3.8724518750912815,-5.001408167481456,11.894000000029337
312254.8787,-4.038414414448482,-6.502295613098717,-3.6504056939614857,-4.734970613185651,11.895000000018626
312254.8797,-3.6658965993721715,-6.322038931413142,-3.182334226768544,-4.1956056958504835,11.896000000007916
312254.8807,-2.9928444410094874,-5.835909740248421,-2.53036196717635,-3.450937804023279,11.896999999997206
312254.8817,-2.1053416659890076,-5.121318441290212,-1.7707575279538843,-2.583062653446997,11.898000000044703
312254.8827,-1.1002032897653926,-4.264827731247592,-0.9870496796092768,-1.6814379985433892,11.899000000033993
312254.8837,-0.07705949182393754,-3.3547150870214537,-0.26245150302206666,-0.8350850049428804,11.900000000023283
312254.8847,0.8696158580394358,-2.473605253817304,0.327691318236266,-0.12483371795385104,11.901000000012573
312254.8857,1.6578118653333582,-1.6918475626302663,0.7227108361083922,0.3836554993566167,11.902000000001863
312254.8867,2.223969839977985,-1.062239160695209,0.8820369768821068,0.6454354001911586,11.902999999991152
312254.8877,2.527132332743198,-0.6165637322665694,0.7887102358141895,0.6398579229446554,11.90400000003865
312254.8887,2.550908774188326,-0.3642387188212675,0.4506518460937892,0.3718685414794847,11.90500000002794
312254.8897,2.303126228886975,-0.29315953554537755,-0.10042849578953464,-0.12910485874518096,11.90600000001723
312254.8907,1.8132570093679699,-0.3726166944519186,-0.8123799466405944,-0.8125504945980345,11.90700000000652
312254.8917,1.1279278668862656,-0.5579617675209715,-1.617888079521505,-1.6122200234223847,11.907999999995809
312254.8927,0.30499742768704424,-0.7965302330859777,-2.441171594492462,-2.4528985311833376,11.909000000043306
312254.8937,-0.5931782416612077,-1.0342098094217491,-3.2054500464895,-3.2579345861601716,11.910000000032596
312254.8947,-1.5066005067410053,-1.2219835367803875,-3.8404601114381243,-3.9567958990152285,11.911000000021886
312254.8957,-2.3839090274970385,-1.3217834040530103,-4.289293573588328,-4.491915830494232,11.912000000011176
312254.8967,-3.1874598124727838,-1.3110620718481831,-4.513896402277037,-4.824167310661961,11.913000000000466
312254.8977,-3.896699358009471,-1.1856201818012264,-4.498698633431094,-4.93643672268382,11.913999999989755
312254.8987,-4.5095107632418,-0.960402125367852,-4.252026655231251,-4.8349576770491005,11.915000000037253
312254.8997,-5.041416425757548,-0.6681767809145146,-3.8051652553624264,-4.548285045781611,11.916000000026543
312254.9007,-5.522741633671331,-0.3562316468681238,-3.209165437933451,-4.124021587695259,11.917000000015832
312254.9017,-5.994052270011446,-0.0814082113220699,-2.529713308863465,-3.6236302911780625,11.918000000005122
312254.9027,-6.500357187763391,0.09602626992753752,-1.8405639082401788,-3.115853595638393,11.918999999994412
312254.9037,-7.084693958264262,0.1190566070434728,-1.2161833730477787,-2.669397534955298,11.92000000004191
312254.9047,-7.78178284907892,-0.05952544188673949,-0.7243196609313037,-2.3456111870918965,11.9210000000312
312254.9057,-8.612431368859339,-0.4713543487495875,-0.419228779309765,-2.1918925363289565,11.922000000020489
312254.9067,-9.579300619039634,-1.1281043064853096,-0.3362194031423268,-2.2364808834962506,11.923000000009779
312254.9077,-10.664511878704742,-2.0189440600401185,-0.48805018278548873,-2.485160207299553,11.923999999999069
312254.9087,-11.829390282995089,-3.110117233033056,-0.8635334759594402,-2.92021064508504,11.925000000046566
312254.9097,-13.016429931424774,-4.3467269735564305,-1.4284842762830434,-3.5017248112369583,11.926000000035856
312254.9107,-14.153342162579358,-5.656589908881898,-2.128924685842029,-4.171173533222446,11.927000000025146
312254.9117,-15.158837979215084,-6.955822856224106,-2.8962346207159024,-4.856884423975923,11.928000000014435
312254.9127,-15.949617518866608,-8.155656085025667,-3.6537499110627003,-5.480908115503231,11.929000000003725
312254.9137,-16.44791170766276,-9.169845667356666,-4.3241679828914155,-5.9666093636190505,11.929999999993015
312254.9147,-16.58885659555353,-9.92199638877615,-4.83704257566522,-6.246247036347507,11.931000000040513
312254.9157,-16.3269859973433,-10.352111780896255,-5.135640085602209,-6.267805377755472,11.932000000029802
312254.9167,-15.641202806905397,-10.421758620206042,-5.182491956485978,-6.000409080127417,11.933000000019092
312254.9177,-14.53772677119294,-10.117362889828618,-4.963104018801013,-5.4377897978980245,11.934000000008382
312254.9187,-13.050703541598079,-9.45133019809159,-4.48746246986414,-4.599458672955803,11.934999999997672
312254.9197,-11.240378539274142,-8.460888989732148,-3.7891898758223745,-3.5294600497786006,11.93600000004517
312254.9207,-9.188968534808122,-7.204769749807165,-2.9224323591843664,-2.2928144094982827,11.937000000034459
312254.9217,-6.994581731698765,-5.758037068742388,-1.9567788525483734,-0.9699810341271696,11.938000000023749
312254.9227,-4.7637225114483135,-4.205564305972637,-0.9707035903314164,0.3501385622229505,11.939000000013039
312254.9237,-2.6030519187237404,-2.6347660698444613,-0.044165396983283055,1.5779952944985678,11.940000000002328
312254.9247,-0.6111463726586066,-1.1282698511809603,0.7489219846959102,2.6312479852032675,11.940999999991618
312254.9257,1.1290019486221106,0.2427912938560029,1.3476230704249736,3.4419375354660944,11.942000000039116
312254.9267,2.55606921651337,1.424247958697449,1.7096511181983638,3.9623044751285925,11.943000000028405
312254.9277,3.6345282167147572,2.3826321955785157,1.8152335671181565,4.168706457615772,11.944000000017695
312254.9287,4.356464954804233,3.1068610863018296,1.6688063476092994,4.063276299741798,11.945000000006985
312254.9297,4.7409455537680385,3.6077437522753306,1.298382404305285,3.6731793875246144,11.945999999996275
312254.9307,4.831025434896198,3.9154004830351767,0.7526656858864251,3.0475604094189825,11.947000000043772
312254.9317,4.688712959224326,4.0748836452420605,0.09620020801461399,2.2524909501334895,11.948000000033062
312254.9327,4.388388902019138,4.140461523791579,-0.5969666864609988,1.3644199682302858,11.949000000022352
312254.9337,4.009323244817371,4.169151697019936,-1.2504854795350717,0.46277014988022364,11.950000000011642
312254.9347,3.6280085024261157,4.214157946239468,-1.7930674037941465,-0.3775989883752835,11.951000000000931
312254.9357,3.3110369429485185,4.318867727970272,-2.165294049902085,-1.0933329603088577,11.951999999990221
312254.9367,3.109187168666892,4.512005876546114,-2.325215939955656,-1.6382643717147987,11.953000000037719
312254.9377,3.053259970694893,4.804420725189628,-2.252203760045654,-1.987298421288687,11.954000000027008
312254.9387,3.1520266878192755,5.187813169224502,-1.9486893381213155,-2.138144797002068,11.955000000016298
312254.9397,3.39244296197891,5.635523767196833,-1.4396417165189523,-2.1107525704021555,11.956000000005588
312254.9407,3.7420574797893904,6.105287079313146,-0.7698463090162913,-1.9445311979533686,11.956999999994878
312254.9417,4.153330901251804,6.543666353786727,0.0007297117125332911,-1.6936578346765592,11.958000000042375
312254.9427,4.569395630345525,6.891714661045239,0.8030160660958915,-1.4209575655372901,11.959000000031665
312254.9437,4.930650306292534,7.0912870224121365,1.5657525648512853,-1.1909806542483465,11.960000000020955
312254.9447,5.181507070407916,7.091363869746408,2.222548038563778,-1.06297614693359,11.961000000010245
312254.9457,5.276601944710455,6.85374553726656,2.718384986551354,-1.0844669621749705,11.961999999999534
312254.9467,5.185839480630735,6.357540396552454,3.014927823453763,-1.2860676204765995,11.962999999988824
312254.9477,4.897765887762686,5.601989414904435,3.0941137697595265,-1.678058563984074,11.964000000036322
312254.9487,4.4209377062654,4.6073354227357175,2.959677845669015,-2.2490533603207696,11.965000000025611
312254.9497,3.7831584291584464,3.4136398277377245,2.6364700222417987,-2.9668846926937853,11.966000000014901
312254.9507,3.028672822239181,2.077653665633153,2.1676429371294033,-3.781612828484244,11.967000000004191
312254.9517,2.213616382363831,0.6680435183475719,1.6100009174526808,-4.630348276069826,11.96799999999348
312254.9527,1.400194748337531,-0.7405632248838147,1.0279843767471175,-5.443399583261609,11.969000000040978
312254.9537,0.6501972760328413,-2.0741313055663997,0.48689982170679985,-6.151125580847507,11.970000000030268
312254.9547,0.01851751111785887,-3.2657259915105206,0.04608120890668424,-6.690801830999263,11.971000000019558
312254.9557,-0.45264592778634294,-4.2613376425971285,-0.2473243054109762,-7.012810441323799,11.972000000008848
312254.9567,-0.73830165724047,-5.024450086952725,-0.3633148919959871,-7.085530756327431,11.972999999998137
312254.9577,-0.8334130545334361,-5.5389042943227516,-0.292230248080966,-6.898438912756306,11.974000000045635
312254.9587,-0.753580084964728,-5.809777393881252,-0.04585436953695129,-6.463103862007643,11.975000000034925
312254.9597,-0.5335626848884989,-5.8621937017475405,0.34369720433351586,-5.811978368025573,11.976000000024214
312254.9607,-0.22377159212618056,-5.738189635611491,0.8272059047208355,-4.995104721836241,11.977000000013504
312254.9617,0.11494010999771695,-5.491947854471576,1.3433818488738367,-4.075064477101077,11.978000000002794
312254.9627,0.4176760324562912,-5.1838784577774275,1.8252035993173112,-3.120678545592737,11.978999999992084
312254.9637,0.6224514838571173,-4.874140434756961,2.2069365776558816,-2.2000908381562287,11.980000000039581
312254.9647,0.6770061661183999,-4.616253237836736,2.431128340942793,-1.3739325834910612,11.981000000028871
312254.9657,0.5447815608436393,-4.451440617830264,2.454875751301159,-0.6892589991366528,11.98200000001816
312254.9667,0.20944408773710868,-4.404277318066021,2.254725712803939,-0.17487547758032962,11.98300000000745
312254.9677,-0.32252885895334193,-4.480080801492713,1.8297013327367657,0.1614659333212182,11.98399999999674
312254.9687,-1.0214979026064113,-4.664317430890109,1.202126534133379,0.33370391942624433,11.985000000044238
312254.9697,-1.8366274928156725,-4.924092389153283,0.41613669852846086,0.37585868209860646,11.986000000033528
312254.9707,-2.700024021724866,-5.211584802294827,-0.46601008421273055,0.3383202162816111,11.987000000022817
312254.9717,-3.5326873051292105,-5.469094504837718,-1.3694893584342553,0.28238982072515423,11.988000000012107
312254.9727,-4.251734893416756,-5.6352039506519915,-2.2138163146361154,0.2736082941028055,11.989000000001397
312254.9737,-4.778227802113396,-5.651444104333934,-2.920446869431479,0.3745303717042203,11.989999999990687
312254.9747,-5.044859113301985,-5.4687982351299125,-3.420345534983633,0.6376667469966724,11.991000000038184
312254.9757,-5.00277038389268,-5.053388031200487,-3.660788561354312,1.099306070978894,11.992000000027474
312254.9767,-4.626834971146373,-4.390761611286583,-3.61073861788043,1.7748501111976926,11.993000000016764
312254.9777,-3.9188854720882724,-3.4883357464414706,-3.2642597416064256,2.6561531457746934,11.994000000006054
312254.9787,-2.9085514898346525,-2.375722165895777,-2.6416257668239003,3.711165212725674,11.994999999995343
312254.9797,-1.6515959458890912,-1.1028730283394812,-1.7879942178879538,4.885956455922462,11.99600000004284
312254.9807,-0.22587198289793456,0.2638064464495814,-0.7697495930961502,6.108968025232885,11.99700000003213
312254.9817,1.2747542071374411,1.6470303259123011,0.3311573229364329,7.297116324118356,11.99800000002142
312254.9827,2.7479779137856317,2.9653741616374756,1.4243555472409257,8.363193191943912,11.99900000001071
312254.9837,4.091449938728431,4.140553647206067,2.4190242266373634,9.223872933154652,12.0
312254.9847,5.211234861541718,5.104548799582279,3.2319465918434305,9.807571001693184,12.00099999998929
312254.9857,6.029571985059097,5.805891697912932,3.794898275301255,10.061405344756547,12.002000000036787
312254.9867,6.4912427634152925,6.2145106691535,4.0606836977543965,9.956589652800188,12.003000000026077
312254.9877,6.567979178559107,6.3246575183731215,4.007262685894954,9.49173082823352,12.004000000015367
312254.9887,6.2605308923067415,6.155624215186611,3.6395909738567407,8.693697362454294,12.005000000004657
312254.9897,5.598227425321793,5.750164136648329,2.9890151953734225,7.615952497541093,12.005999999993946
312254.9907,4.636104149967457,5.170750487588772,2.110294423022416,6.33448433227073,12.007000000041444
312254.9917,3.4498852940403726,4.4940099547898855,1.0765439312933585,4.941691582082492,12.008000000030734
312254.9927,2.129312066185536,3.803843234794564,-0.027408860913153286,3.538776775678003,12.009000000020023
312254.9937,0.7704509883964342,3.1838691014221387,-1.1126199887351313,2.2273397116907354,12.010000000009313
312254.9947,-0.5322971851698418,2.709893119651872,-2.093855346422672,1.1009394359402536,12.010999999998603
312254.9957,-1.6937516972709814,2.4430997779853665,-2.896912454845366,0.23739556261319,12.0120000000461
312254.9967,-2.644387403253176,2.4245979493929757,-3.464758268231291,-0.3074708092740937,12.01300000003539
312254.9977,-3.3350890770232033,2.6718208618097674,-3.761924856045887,-0.5040932579320699,12.01400000002468
312254.9987,-3.7398332820623423,3.1771055906722974,-3.7767789015062636,-0.35104005706984026,12.01500000001397
312254.9997,-3.856113675236743,3.9085704695054813,-3.5214908114921837,0.1256301869539707,12.01600000000326
312255.0007,-3.703147593806024,4.813191658306863,-3.0297542148355405,0.875447303431407,12.01699999999255
312255.0017,-3.318116971754724,5.821773308610225,-2.3525247166086616,1.828724227169794,12.018000000040047
312255.0027,-2.750884050599544,6.855329174736302,-1.5522367049845456,2.9033521749756295,12.019000000029337
312255.0037,-2.05776383909061,7.832264034720634,-0.6961003313815098,4.012534542672386,12.020000000018626
312255.0047,-1.2950172880168624,8.675673192610736,0.15083631390988433,5.072715787926076,12.021000000007916
312255.0057,-0.5127440529569305,9.32007413742466,0.9321601775766195,6.010951727312925,12.021999999997206
312255.0067,0.2501994561861953,9.716946220254888,1.605456476077091,6.771030604133874,12.023000000044703
312255.0077,0.969746539854858,9.838575654501028,2.1460357282638416,7.3177835540952545,12.024000000033993
312255.0087,1.6382869129797595,9.679872134932353,2.5486682772057714,7.639205842476552,12.025000000023283
312255.0097,2.264308862962255,9.258023207223925,2.827174800866624,7.7462284188384025,12.026000000012573
312255.0107,2.870084987954654,8.610063548500097,3.0119403472060253,7.670211468790328,12.027000000001863
312255.0117,3.487674551829871,7.7886378681866955,3.1456308759757836,7.458454960225234,12.027999999991152
312255.0127,4.153691815928309,6.856408541143582,3.277574107572339,7.168213827631964,12.02900000003865
312255.0137,4.903419742220877,5.879685609580925,3.457402480937465,6.859848619130199,12.03000000002794
312255.0147,5.764919140201838,4.921925274691026,3.728631667113119,6.589822257087304,12.03100000001723
312255.0157,6.753787512558605,4.037747035844094,4.122855817460597,6.4042624076499575,12.03200000000652
312255.0167,7.869159041166763,3.268059188277811,4.655179724277503,6.333746195570301,12.032999999995809
312255.0177,9.091413530842466,2.6367637827094748,5.32138433344551,6.389836074860733,12.034000000043306
312255.0187,10.38188995463609,2.1493474274464486,6.097147801253476,6.563715426208925,12.035000000032596
312255.0197,11.684696645512695,1.793470042541738,6.939436786154278,6.827057895743353,12.036000000021886
312255.0207,12.930495449097622,1.5414593019262648,7.78996249526063,7.135036979404132,12.037000000011176
312255.0217,14.041932747441548,1.3544244226093998,8.580385049142398,7.431164513068923,12.038000000000466
312255.0227,14.940216680690092,1.1875385171661077,9.238769012161226,7.6534601977664956,12.038999999989755
312255.0237,15.552214638298647,0.9959202831194487,9.696660548679079,7.741317612185651,12.040000000037253
312255.0247,15.817380944105777,0.7404851420683349,9.89608597216027,7.642358948493406,12.041000000026543
312255.0257,15.693828402686258,0.39313909889147935,9.795769766966558,7.318568286156506,12.042000000015832
312255.0267,15.162929111008602,-0.05924473527813521,9.375938010324578,6.751061930284286,12.043000000005122
312255.0277,14.231963067772861,-0.6125034333302511,8.641204184059877,5.942987494434307,12.043999999994412
312255.0287,12.934514959853532,-1.2447836128804872,7.621216080162456,4.920227938392866,12.04500000004191
312255.0297,11.328532556803278,-1.91813497609935,6.368957288751483,3.7298045248152296,12.0460000000312
312255.0307,9.492183751260603,-2.5819655722045787,4.956823724376178,2.4361021735300716,12.047000000020489
312255.0317,7.51786167685843,-3.1780337334567896,3.4708126462166646,1.115259308681268,12.048000000009779
312255.0327,5.504867755946814,-3.6464902711007245,2.0033474130757982,-0.15174962062369576,12.048999999999069
312255.0337,3.5514332583227577,-3.9323706029650247,0.6453975239484259,-1.2866756883404769,12.050000000046566
312255.0347,1.7468080499435177,-3.991881601094869,-0.5213731548720696,-2.221467285137954,12.051000000035856
312255.0357,0.16414379174323618,-3.7978378865784435,-1.4316940662165152,-2.9049194784204317,12.052000000025146
312255.0367,-1.1451722337581167,-3.343676475508972,-2.0423435123496043,-3.3078412879583845,12.053000000014435
312255.0377,-2.1552106166454346,-2.6456101774976335,-2.335836470108111,-3.4262192667736744,12.054000000003725
312255.0387,-2.8668829991040776,-1.7426563798429162,-2.3217933863429763,-3.2820455721864144,12.054999999993015
312255.0397,-3.306894352737832,-0.6944817825623648,-2.035857197381705,-2.921701910939228,12.056000000040513
312255.0407,-3.5243725959198495,0.4227845387784401,-1.536257501997118,-2.4120256899508026,12.057000000029802
312255.0417,-3.585502384589644,1.5224183455298803,-0.8983433135865617,-1.834408555745809,12.058000000019092
312255.0427,-3.5666772114919825,2.514129597828956,-0.2075976488761152,-1.277468458189078,12.059000000008382
312255.0437,-3.5468219249047213,3.3116178182060287,0.4482101363777288,-0.8289757975762673,12.059999999997672
312255.0447,-3.599613161983115,3.839959716017216,0.9869986302706346,-0.567788471793264,12.06100000004517
312255.0457,-3.786330778354522,4.042144038992554,1.3397304859639423,-0.5565524228945462,12.062000000034459
312255.0467,-4.150008702161136,3.884143064170548,1.4564678354930003,-0.8358533242213696,12.063000000023749
312255.0477,-4.711425112753015,3.358043373961333,1.310571943199247,-1.4203681561415553,12.064000000013039
312255.0487,-5.467291996451512,2.482937911135233,0.900672347869316,-2.297375806755803,12.065000000002328
312255.0497,-6.390790486674952,1.303489601706921,0.250246292899528,-3.4277618421174694,12.065999999991618
312255.0507,-7.434371736705781,-0.11370591867310627,-0.5951209176033254,-4.749415892394369,12.067000000039116
312255.0517,-8.534525419362224,-1.6856256220035963,-1.5725021857494914,-6.182693592151304,12.068000000028405
312255.0527,-9.618030406042912,-3.3196859447841853,-2.607936762952287,-7.637420581756598,12.069000000017695
312255.0537,-10.609062884845358,-4.921339368813655,-3.6236513191204804,-9.020772468911144,12.070000000006985
312255.0547,-11.436459531209957,-6.401703930512324,-4.54548272814523,-10.245285644989538,12.070999999996275
312255.0557,-12.040424697461825,-7.684530362663004,-5.309778824536518,-11.236246926673184,12.072000000043772
312255.0567,-12.378031533638074,-8.711879261182961,-5.869111535370668,-11.937775599547159,12.073000000033062
312255.0577,-12.426991274343843,-9.448007855430347,-6.196259681185745,-12.317042966003278,12.074000000022352
312255.0587,-12.187340212920656,-9.881140206645691,-6.2860941108460064,-12.366258927554481,12.075000000011642
312255.0597,-11.680902749617042,-10.022998999720311,-6.155208324002892,-12.102274317841768,12.076000000000931
312255.0607,-10.948610695541706,-9.90619168909809,-5.83936257476578,-11.563880157199385,12.076999999990221
312255.0617,-10.04597185458493,-9.579747829278714,-5.389026510654165,-10.807107991661265,12.078000000037719
312255.0627,-9.037163820762222,-9.103278262802656,-4.863493353535624,-9.8990272614505,12.079000000027008
312255.0637,-7.988363920900528,-8.54035374563322,-4.3241790357514525,-8.910677579009786,12.080000000016298
312255.0647,-6.9610000442406905,-7.951768466441838,-3.8277988199087742,-7.909852177247483,12.081000000005588
312255.0657,-6.005612514683121,-7.389356449445537,-3.4201240460901277,-6.954456173305744,12.081999999994878
312255.0667,-5.15695371140889,-6.890966093773774,-3.1309618448435677,-6.08709922631603,12.083000000042375
312255.0677,-4.430826158745673,-6.477076537468469,-2.970876882871048,-5.331453214340777,12.084000000031665
312255.0687,-3.822983789577304,-6.149371310575087,-2.929998714482141,-4.690724646445863,12.085000000020955
312255.0697,-3.3102124856749695,-5.891386557219052,-2.9790484258775916,-4.1483766759366905,12.086000000010245
312255.0707,-2.853485487363831,-5.671142545752163,-3.072494696778201,-3.6710081106281756,12.086999999999534
312255.0717,-2.4028787086995864,-5.445468797187526,-3.153534232196401,-3.2130792475723537,12.087999999988824
312255.0727,-1.9037512925642226,-5.165564440427019,-3.1604059888368616,-2.722988197054948,12.089000000036322
312255.0737,-1.3035657655217991,-4.783212878741963,-3.0334110865808546,-2.1498649741131937,12.090000000025611
312255.0747,-0.5586529857057319,-4.257005472484636,-2.721934402710235,-1.4503774576438582,12.091000000014901
312255.0757,0.3597732859554039,-3.5579289045008085,-2.190757197566052,-0.5948405271674344,12.092000000004191
312255.0767,1.4609787035099189,-2.6737350432229965,-1.425013526477945,0.42801248404850084,12.09299999999348
312255.0777,2.7319429650555516,-1.611633975549564,-0.4332705936105679,1.6081051644042426,12.094000000040978
312255.0787,4.13678139948442,-0.399018293282754,0.7516077394571062,2.9132667886412356,12.095000000030268
312255.0797,5.618455349380098,0.9178769396537579,2.073941771081257,4.290765601000235,12.096000000019558
312255.0807,7.102649174988879,2.277268282867995,3.4589617980846454,5.671010711196625,12.097000000008848
312255.0817,8.503478437544869,3.6067668556520323,4.818461506968145,6.97309043654662,12.097999999998137
312255.0827,9.73051222396943,4.829500033891784,6.057873176117386,8.111630749373232,12.099000000045635
312255.0837,10.696460490959327,5.870823328273182,7.084118923999064,9.004323559616234,12.100000000034925
312255.0847,11.324807746866721,6.6649733802425155,7.813514123468206,9.57940410315688,12.101000000024214
312255.0857,11.556674264018223,7.161016471174724,8.178990524170969,9.782356714153671,12.102000000013504
312255.0867,11.356255454801287,7.3275139653662835,8.135968442439566,9.581198821083026,12.103000000002794
312255.0877,10.714322396774543,7.155450064340467,7.666333602513424,8.969827289347544,12.103999999992084
312255.0887,9.649448964302895,6.659135907794154,6.780152598309089,7.96909615742503,12.105000000039581
312255.0897,8.206845940193139,5.875000797803855,5.514974186533395,6.625512329009698,12.106000000028871
312255.0907,6.454909003676024,4.858386781431296,3.932791046622346,5.00766463846184,12.10700000001816
312255.0917,4.479803655922917,3.6786567932587193,2.1149562263493187,3.200719526980323,12.10800000000745
312255.0927,2.378594998973853,2.41308996718824,0.1555390051148205,1.2995020471133618,12.10899999999674
312255.0937,0.25156593036015445,1.1401545246640614,-1.846252015456722,-0.5991840945080777,12.110000000044238
312255.0947,-1.805559347440514,-0.06719262691830881,-3.7938688563106244,-2.4042724524242605,12.111000000033528
312255.0957,-3.70876560580876,-1.1475355435185568,-5.60072435672893,-4.037460090923101,12.112000000022817
312255.0967,-5.39161537648176,-2.055782479115359,-7.196326669001655,-5.438888644398627,12.113000000012107
312255.0977,-6.80930969196028,-2.766251956661558,-8.53070298891255,-6.570958612852126,12.114000000001397
312255.0987,-7.9405934175516295,-3.2737800579548684,-9.576740336939872,-7.419939957776778,12.114999999990687
312255.0997,-8.78736991667778,-3.592763998699176,-10.330278947390696,-7.995259280699497,12.116000000038184
312255.1007,-9.372114062065,-3.754261909414483,-10.80801593016426,-8.326572334762634,12.117000000027474
312255.1017,-9.733387130100246,-3.801461575139372,-11.043491481749033,-8.45894790271712,12.118000000016764
312255.1027,-9.919940951127073,-3.7839926759064557,-11.081615962268653,-8.446673824758268,12.119000000006054
312255.1037,-9.98403390627305,-3.751671835125719,-10.972335401196618,-8.346330012308336,12.119999999995343
312255.1047,-9.97465479704428,-3.7483261552347056,-10.764111864663326,-8.209843441842722,12.12100000004284
312255.1057,-9.931355151405047,-3.8063332609675684,-10.497906004182452,-8.078239453645688,12.12200000003213
312255.1067,-9.879325795911463,-3.942444830332786,-10.202291119313038,-7.9767322003414485,12.12300000002142
312255.1077,-9.826225922345106,-4.155333051475001,-9.890207114568168,-7.911661768087177,12.12400000001071
312255.1087,-9.761094965722565,-4.425127840373809,-9.557690937462166,-7.869599573752115,12.125
312255.1097,-9.655466869982433,-4.715013777464603,-9.184714591291291,-7.818725352397609,12.12599999998929
