TimeStamp,ECR,FCR,ECU,FCU,time_index
312308.9837,-77.74676965115034,-83.62847318275932,-84.08365899405902,-77.50510330111828,66.0
312308.9847,-79.87013442946497,-86.57075169866089,-85.08129586457758,-79.39606128466802,66.00099999998929
312308.9857,-81.31399030578045,-88.70817470614081,-85.32091854049943,-80.80766409618293,66.00200000003679
312308.9867,-81.92795759398129,-89.88407548446438,-84.6824879761412,-81.58423949859741,66.00300000002608
312308.9877,-81.56310983147453,-89.94645126936852,-83.05198917497604,-81.56374855116252,66.00400000001537
312308.9887,-80.08426673262501,-88.76010236328548,-80.33272518635653,-80.59127075424527,66.00500000000466
312308.9897,-77.38186927836377,-86.21824184123744,-76.45588835661688,-78.53222970869007,66.00599999999395
312308.9907,-73.3825317832716,-82.25270146877251,-71.38953947768726,-75.28438182622273,66.00700000004144
312308.9917,-68.05749180130401,-76.84198860212395,-65.14527332486543,-70.78772019495727,66.00800000003073
312308.9927,-61.42836502126814,-70.01663472935549,-57.78205609304914,-65.03163811421753,66.00900000002002
312308.9937,-53.56984049577117,-61.86150073951647,-49.40696625934392,-58.05893296792036,66.01000000000931
312308.9947,-44.60919997461789,-52.514945842463774,-40.172831930343676,-49.96648866373131,66.0109999999986
312308.9957,-34.72279090101933,-42.16500427529825,-30.273010234752906,-40.90273039697428,66.0120000000461
312308.9967,-24.129803881110053,-31.042925690332737,-19.933774583424157,-31.062176709376477,66.01300000003539
312308.9977,-13.08388330675395,-19.41460374086074,-9.404944007610263,-20.6776016177466,66.01400000002468
312308.9987,-1.8632202521574757,-7.5705299504618875,1.0505088413707093,-10.010449838739538,66.01500000001397
312308.9997,9.240168201589677,4.185040541900793,11.167105384478887,0.6597871607501515,66.01600000000326
312309.0007,19.931280686723966,15.545038894428032,20.687042867793483,11.04652865362303,66.01699999999255
312309.0017,29.92247462372784,26.210047660246147,29.369297981427025,20.866753547579552,66.01800000004005
312309.0027,38.94281355361385,35.89779910762759,36.997200793906785,29.850812171457275,66.01900000002934
312309.0037,46.74607782421377,44.3513741856302,43.3842200817013,37.75102037119223,66.02000000001863
312309.0047,53.11726845046478,51.34593162085561,48.37790360680275,44.34881901970643,66.02100000000792
312309.0057,57.87759930408586,56.69395258533794,51.86210653495591,49.460442227272154,66.0219999999972
312309.0067,60.888114120398285,60.2491188642913,53.757797227154434,52.94117633272457,66.0230000000447
312309.0077,62.0521668245142,61.909037394585475,54.02283545577986,54.68839454191406,66.024000000034
312309.0087,61.31705600046179,61.61707212603506,52.65116300219895,54.643609019389736,66.02500000002328
312309.0097,58.67510262906023,59.36354180994369,49.67182696804738,52.793789262543754,66.02600000001257
312309.0107,54.16440669074485,55.18649208933795,45.14817582138088,49.17215475894217,66.02700000000186
312309.0117,47.86942133659732,49.17216053018583,39.17743808841683,43.85856915875452,66.02799999999115
312309.0127,39.92135691607671,41.455137289709164,31.89073044623682,36.979555333792916,66.02900000003865
312309.0137,30.49828893033103,32.21809873244002,23.45336657940376,28.707832088531287,66.03000000002794
312309.0147,19.824713608188784,21.690874862227435,14.065173130407638,19.26116195133531,66.03100000001723
312309.0157,8.170191679070133,10.148521882355341,3.9603863058078566,8.900213055706708,66.03200000000652
312309.0167,-4.1533380179290305,-2.0919760334845283,-6.593379022131253,-2.0749081264537823,66.03299999999581
312309.0177,-16.795995720487042,-14.676745484874278,-17.29761302848743,-13.329791479988119,66.0340000000433
312309.0187,-29.376508523461823,-27.222107888910895,-27.827318679125487,-24.502802079588434,66.0350000000326
312309.0197,-41.49110517672984,-39.323891203659485,-37.83769045763916,-35.21426274587181,66.03600000002189
312309.0207,-52.724816214149314,-50.568979872823576,-46.97322551419954,-45.07773492609543,66.03700000001118
312309.0217,-62.66501940451872,-60.54890649276727,-54.87919793507853,-53.71319344839782,66.03800000000047
312309.0227,-70.9168319520765,-68.8750656180596,-61.21517252416685,-60.76167624766581,66.03899999998976
312309.0237,-77.11971560851822,-75.19491326913058,-65.66998181082955,-65.90078209101877,66.04000000003725
312309.0247,-80.96445367164152,-79.2083282694433,-67.9773652010027,-68.86021035957006,66.04100000002654
312309.0257,-82.20950323295467,-80.68317523365847,-67.93129692669302,-69.43640838242239,66.04200000001583
312309.0267,-80.69564173357014,-79.46904179370566,-65.39993025467055,-67.50533128976991,66.04300000000512
312309.0277,-76.35782770909346,-75.50813666855522,-60.33707353242036,-63.0323387999695,66.04399999999441
312309.0287,-69.23328782596764,-68.84243542196867,-52.79019546296857,-56.078357579674204,66.04500000004191
312309.0297,-59.46502377517258,-59.616344194889116,-42.904130218032954,-46.80162367886513,66.0460000000312
312309.0307,-47.300192632139925,-48.07440736470953,-30.9199066803801,-35.45457595824182,66.04700000002049
312309.0317,-33.083134526834584,-34.553894837247476,-17.168441538281083,-22.375780150080253,66.04800000000978
312309.0327,-17.243177338688803,-19.472444760876048,-2.0591882925586393,-7.9771003455334535,66.04899999999907
312309.0337,-0.27771109346327616,-3.311280588755502,13.935805257397888,7.273327117110888,66.05000000004657
312309.0347,17.268635150280016,13.405160725638957,30.30163982535549,22.871451595389136,66.05100000003586
312309.0357,34.82759248703179,30.132086832349504,46.50302828991423,38.29987554920205,66.05200000002515
312309.0367,51.83229345722349,46.32840093828823,62.00818747546993,53.051329328146565,66.05300000001444
312309.0377,67.74230355777871,61.48055294417327,76.31274544581991,66.65166487759063,66.05400000000373
312309.0387,82.06717839590415,75.1247997388157,88.96223570539439,78.6809955206875,66.05499999999302
312309.0397,94.38717631237316,86.86658689682677,99.57183951202363,88.79172663283117,66.05600000004051
312309.0407,104.36995068584426,96.39596120965355,107.84222616773471,96.72243309714379,66.0570000000298
312309.0417,111.7823250789726,103.49819901905154,113.57061353111294,102.30682735127512,66.05800000001909
312309.0427,116.49659551052883,108.05916717225746,116.65650507673338,105.47740354966807,66.05900000000838
312309.0437,118.4911800270103,110.06529495798391,117.10192864076564,106.26371133797161,66.05999999999767
312309.0447,117.84581635361768,109.59839772278211,115.00637592560201,104.78557737056242,66.06100000004517
312309.0457,114.73186363771941,106.82592735521645,110.55699118703772,101.24192492826116,66.06200000003446
312309.0467,109.39856661654821,101.98750551998789,104.01485504773832,95.89611580222578,66.06300000002375
312309.0477,102.15636730404218,95.37880142314611,95.69843260408615,89.05893330064784,66.06400000001304
312309.0487,93.35848466220067,87.3339327014843,85.96538813020075,81.07042717075628,66.06500000000233
312309.0497,83.38201894947672,78.20758933285742,75.19400391397365,72.28184494529313,66.06599999999162
312309.0507,72.6097754075421,68.35800814951818,63.7653788111479,63.038782789266484,66.06700000003912
312309.0517,61.41385094697833,58.131769492059206,52.04743204580285,53.66651353074199,66.0680000000284
312309.0527,50.141804228053935,47.851164621572444,40.38151608075893,44.45820838199167,66.0690000000177
312309.0537,39.10595648261435,37.80461488181252,29.072171262777903,35.666485292032924,66.07000000000698
312309.0547,28.576073689413633,28.240336645450625,18.380260290707216,27.49841733210675,66.07099999999627
312309.0557,18.77538757684026,19.363165995540744,8.519429441027711,20.11384597998005,66.07200000004377
312309.0567,9.87964932031164,11.334208513374028,-0.34441831199106954,13.62659171173277,66.07300000003306
312309.0577,2.018697962690411,4.272783289396126,-8.09116351236586,8.10795884512218,66.07400000002235
312309.0587,-4.7201179298016775,-1.7399984794584344,-14.642691466517578,3.59180801950441,66.07500000001164
312309.0597,-10.287392605439322,-6.656732954178336,-19.958027334151378,0.08042569543607292,66.07600000000093
312309.0607,-14.66670304680934,-10.458990413922226,-24.028104032804784,-2.449544563128094,66.07699999999022
312309.0617,-17.869863256988765,-13.152945480424416,-26.87079521401667,-4.041737326375531,66.07800000003772
312309.0627,-19.93287301379139,-14.765817679079694,-28.526699130603898,-4.755731443737952,66.07900000002701
312309.0637,-20.912853531694314,-15.34338230621003,-29.05597174619287,-4.664010366998801,66.0800000000163
312309.0647,-20.886056347973486,-14.948608937243419,-28.53630123725531,-3.8502645326025613,66.08100000000559
312309.0657,-19.946830948978793,-13.661289408343649,-27.061914674043493,-2.4088777559580565,66.08199999999488
312309.0667,-18.20726374693154,-11.578350233315367,-24.743333536534752,-0.44526523338285284,66.08300000004238
312309.0677,-15.797075026589232,-8.814424108396915,-21.707466734446854,1.9233937976320394,66.08400000003166
312309.0687,-12.86329491113203,-5.502193950284802,-18.097561441707512,4.567547884893597,66.08500000002095
312309.0697,-9.569240875000702,-1.7920267144447706,-14.072530032220742,7.345303059615345,66.08600000001024
312309.0707,-6.092386980315076,2.1495182098053895,-9.80523501843324,10.103531888117706,66.08699999999953
312309.0717,-2.620840628578583,6.1425981358685,-5.479435213099313,12.680374250596335,66.08799999998882
312309.0727,0.6516883724526249,9.99854139970415,-1.285261120962443,14.909270925935227,66.08900000003632
312309.0737,3.532348541293208,13.525787281845878,2.5867231252987084,16.624477013730147,66.09000000002561
312309.0747,5.836764151803236,16.537062904650355,5.952621721915798,17.667807157923164,66.0910000000149
312309.0757,7.397361113516859,18.85737870836653,8.643050175475533,17.896190161257525,66.09200000000419
312309.0767,8.071818087590275,20.33229259814854,10.511161930997885,17.189476290443704,66.09299999999348
312309.0777,7.7509806878750975,20.83581448802278,11.440221277271737,15.457861426161713,66.09400000004098
312309.0787,6.365563687078067,20.27730700530874,11.350069637660757,12.648277388532541,66.09500000003027
312309.0797,3.8910222700940684,18.606787257733536,10.201884453950134,8.749149655662915,66.09600000001956
312309.0807,0.35009437047150516,15.818144701403748,8.000745635455292,3.7930376922688906,66.09700000000885
312309.0817,-4.187308968564283,11.949950839508364,4.795693335459189,-2.143161836413779,66.09799999999814
312309.0827,-9.606976049727436,7.083732063574412,0.6771664195212768,-8.940568889341463,66.09900000004563
312309.0837,-15.755911633049715,1.3397881719868232,-4.228066702328887,-16.443136146960025,66.10000000003492
312309.0847,-22.450157106080372,-5.129154874467868,-9.764156128894951,-24.464624353615687,66.10100000002421
312309.0857,-29.484376141102533,-12.145988860495162,-15.755078318993984,-32.79725262113653,66.1020000000135
312309.0867,-36.64251897239882,-19.518357402203424,-22.01453995344094,-41.2214028852772,66.1030000000028
312309.0877,-43.70879041519089,-27.04819275994847,-28.35612931834471,-49.515678997515124,66.10399999999208
312309.0887,-50.47812855082627,-34.54095092589464,-34.602950389940105,-57.46660718097606,66.10500000003958
312309.0897,-56.7654542426141,-41.813888595033646,-40.59602840440681,-64.87731630639178,66.10600000002887
312309.0907,-62.41307090838442,-48.70283334159281,-46.20089385196519,-71.57464758055532,66.10700000001816
312309.0917,-67.29576739012766,-55.067054374331526,-51.31192280087015,-77.41430181760164,66.10800000000745
312309.0927,-71.32338723482131,-60.79202961514944,-55.85421835547517,-82.28382191876587,66.10899999999674
312309.0937,-74.44085466214152,-65.79010647625516,-59.783040605741164,-86.10340911820442,66.11000000004424
312309.0947,-76.62586897195719,-69.99924845701413,-63.08100902146047,-88.82476374989581,66.11100000003353
312309.0957,-77.88467396149612,-73.38022835539462,-65.75349111505497,-90.42830581291226,66.11200000002282
312309.0967,-78.2464587942564,-75.91275518526932,-67.82273648742641,-90.91925170872494,66.11300000001211
312309.0977,-77.75703808220165,-77.59109399945739,-69.3214028936447,-90.32309019819057,66.1140000000014
312309.0987,-76.47248408127295,-78.41974956981217,-70.28614346153697,-88.68100769094585,66.11499999999069
312309.0997,-74.45334190607197,-78.40973631012585,-70.75188099378083,-86.04576150732356,66.11600000003818
312309.1007,-71.75995529505813,-77.57585413644533,-70.74729228026624,-82.47839687474855,66.11700000002747
312309.1017,-68.44927751923028,-75.93524480913062,-70.29187433242689,-78.0460615166345,66.11800000001676
312309.1027,-64.5733561647933,-73.50733161098593,-69.39478184062494,-72.8210070484234,66.11900000000605
312309.1037,-60.17948147968322,-70.31506551247776,-68.0554302638186,-66.88069747680932,66.11999999999534
312309.1047,-55.31179658533516,-66.38723248779117,-66.26567199088166,-60.3087906075196,66.12100000004284
312309.1057,-50.01400390995619,-61.76143733531693,-64.01319297143557,-53.19663509500213,66.12200000003213
312309.1067,-44.33268244058628,-56.487284077214404,-61.28565996572773,-45.64484772774497,66.12300000002142
312309.1077,-38.32066682382364,-50.62923199454955,-58.07508523263308,-37.76451097590621,66.12400000001071
312309.1087,-32.03993804342702,-44.268624162340025,-54.38187136324187,-29.677562714581843,66.125
312309.1097,-25.563535932825708,-37.504460427523014,-50.21805309510173,-21.516035213223958,66.12599999998929
312309.1107,-18.976119292775877,-30.45261161815694,-45.60935825810798,-13.41993008093001,66.12700000003679
312309.1117,-12.37295736030496,-23.243333704221136,-40.59585422390307,-5.533676224656094,66.12800000002608
312309.1127,-5.857319935953961,-16.017123082140113,-35.23111320353166,1.9987080281823448,66.12900000001537
312309.1137,0.4635768841327449,-8.919138339131097,-29.58000117095807,9.0394583685496,66.13000000000466
312309.1147,6.483736862004797,-2.09258063861411,-23.71535256336373,15.463477549624711,66.13099999999395
312309.1157,12.104186436504365,4.328443315041224,-17.713919374427213,21.164776210654797,66.13200000004144
312309.1167,17.238844627716333,10.22596917874606,-11.652065337767649,26.062346209805415,66.13300000003073
312309.1177,21.81985510615233,15.50450331172655,-5.601704834751114,30.10487769795384,66.13400000002002
312309.1187,25.801803897997726,20.096039732307876,0.37304122408654933,33.2737992209855,66.13500000000931
312309.1197,29.16433657650678,23.963272533240325,6.218081289269732,35.58424514939919,66.1359999999986
312309.1207,31.912833048166792,27.100660889456588,11.890215853700342,37.083726225418054,66.1370000000461
312309.1217,34.07698245561591,29.533192008202732,17.35652037722117,37.8484815397663,66.13800000003539
312309.1227,35.70730725115686,31.31289582559522,22.59231588657733,37.97770479165185,66.13900000002468
312309.1237,36.86989355088484,32.51337395932342,27.577965760651672,37.586043468036934,66.14000000001397
312309.1247,37.639773339819,33.22279403319886,32.29488694374418,36.79494606490144,66.14100000000326
312309.1257,38.093553427167784,33.535950273354985,36.72127564263706,35.72356139559585,66.14199999999255
312309.1267,38.30198027328506,33.546087000053355,40.8281084428794,34.479961235729895,66.14300000004005
312309.1277,38.323158154956126,33.33721308017705,44.575981635598346,33.15345447853315,66.14400000002934
312309.1287,38.19709617618561,32.97759840872776,47.913292102997154,31.8086856073408,66.14500000001863
312309.1297,37.942149805502034,32.51504043667042,50.776146242772,30.48206750911531,66.14600000000792
312309.1307,37.55375408018168,31.97432842023738,53.09021888277961,29.180899899429964,66.1469999999972
312309.1317,37.00563342177252,31.357129802015915,54.77458676848506,27.88528696600382,66.1480000000447
312309.1327,36.25343673686888,30.644295607827228,55.747349545922596,26.55271244324382,66.149000000034
312309.1337,35.24050840734374,29.800351180363464,55.93264578349657,25.124880592671467,66.15000000002328
312309.1347,33.905288777897546,28.77972677826253,55.26849314492714,23.536210938721965,66.15100000001257
312309.1357,32.18966312821831,27.534109889058293,53.71474913696305,21.723204435066798,66.15200000000186
312309.1367,30.047463566268647,26.0201844843483,51.26041699405275,19.633796211302954,66.15299999999115
312309.1377,27.452286163241805,24.206973812737715,47.9295200737783,17.235786549042906,66.15400000003865
312309.1387,24.403821760758852,22.082028408301607,43.78484114686318,14.523501630156767,66.15500000002794
312309.1397,20.932011781956724,19.655798698740494,38.92896685301822,11.521975683296503,66.15600000001723
312309.1407,17.098521415602455,16.963694022305706,33.50228228194992,8.288155756999117,66.15700000000652
312309.1417,12.995256516995921,14.065542919230868,27.6778100102844,4.908892127212741,66.15799999999581
312309.1427,8.73991703128355,11.04241420141876,21.65306111649663,1.4957687218756646,66.1590000000433
312309.1437,4.468854798646556,7.991012207339213,15.639338869408883,-1.8228769559216857,66.1600000000326
312309.1447,0.32776206417897347,5.016099264194188,9.849184229566431,-4.912122954325639,66.16100000002189
312309.1457,-3.53906526677162,2.221601090307052,4.482852673138175,-7.641976133284997,66.16200000001118
312309.1467,-6.9999894860299445,-0.2988028840519412,-0.28515565232657664,-9.899231215763697,66.16300000000047
312309.1477,-9.946839032514312,-2.470727166391171,-4.318440144759072,-11.598609505891064,66.16399999998976
312309.1487,-12.30429067926186,-4.246892998993149,-7.528885404966609,-12.692137162009404,66.16500000003725
312309.1497,-14.036948440439263,-5.612918307671149,-9.883784094222891,-13.175842509397821,66.16600000002654
312309.1507,-15.153416428675117,-6.590455914211361,-11.409202534240134,-13.09305638517217,66.16700000001583
312309.1517,-15.706903914112353,-7.237271360376288,-12.189169870676096,-12.53387245187809,66.16800000000512
312309.1527,-15.792187827781548,-7.64411414140617,-12.36059068148637,-11.630642915879585,66.16899999999441
312309.1537,-15.539066216815055,-7.928517798250395,-12.104117724553129,-10.549721849402626,66.17000000004191
312309.1547,-15.102738793695156,-8.2259401114258,-11.631547966647894,-9.479994049154437,66.1710000000312
312309.1557,-14.651821013726883,-8.678899726881848,-11.17059335181073,-8.619013389160603,66.17200000002049
312309.1567,-14.35491194161685,-9.424957545705702,-10.948102984922444,-8.157795445495815,66.17300000000978
312309.1577,-14.366774180520393,-10.5845122716646,-11.17295559237461,-8.265444783068036,66.17399999999907
312309.1587,-14.815233534496382,-12.249417977286253,-12.019887196707108,-9.074835023049111,66.17500000004657
312309.1597,-15.789861809391866,-14.473383088639352,-13.615463918319978,-10.670495498078038,66.17600000003586
312309.1607,-17.33337145043803,-17.26497826666263,-16.027257336154502,-13.079696757587943,66.17700000002515
312309.1617,-19.436436838599203,-20.583876304069296,-19.257041945325955,-16.267481816003812,66.17800000001444
312309.1627,-22.036382384469487,-24.340688005777942,-23.238530409574977,-20.13608170871133,66.17900000000373
312309.1637,-25.019865902939063,-28.400466769091754,-27.839817744822156,-24.528809121734255,66.17999999999302
312309.1647,-28.229364287407957,-32.58965689907164,-32.87034906450924,-29.238172322951698,66.18100000004051
312309.1657,-31.472965244704927,-36.70598286129053,-38.09188684528998,-34.01762361980822,66.1820000000298
312309.1667,-34.53671008889586,-40.53054311168767,-43.23266094404862,-38.59608013831732,66.18300000001909
312309.1677,-37.198540446316954,-43.8412031195462,-48.003661728307634,-42.694153070995114,66.18400000000838
312309.1687,-39.24279209624006,-46.42629191167439,-52.1159012365168,-46.04091091402778,66.18499999999767
312309.1697,-40.47416027171301,-48.097601706547266,-55.29742891289137,-48.38999038594573,66.18600000004517
312309.1707,-40.73013236326051,-48.701769755760566,-57.30894807850427,-49.533954348315554,66.18700000003446
312309.1717,-39.89103756463706,-48.12927631589823,-57.95702909465777,-49.315968897718946,66.18800000002375
312309.1727,-37.88708261494979,-46.32050682034743,-57.104139450914275,-47.63811384809471,66.18900000001304
312309.1737,-34.702006687545364,-43.26857867586146,-54.6749877878929,-44.46592814890722,66.19000000000233
312309.1747,-30.373271347178836,-39.01889949176674,-50.65898207342905,-39.82909701201992,66.19099999999162
312309.1757,-24.98897701722692,-33.665679184032086,-45.10890419919787,-33.818482590820444,66.19200000003912
312309.1767,-18.681940839765666,-27.3458403881636,-38.136177721414256,-26.579959015490832,66.1930000000284
312309.1777,-11.621561450770594,-20.230941190037623,-29.903329569856513,-18.305714093304243,66.1940000000177
312309.1787,-4.0042192573907744,-12.517828445479882,-20.61440327852897,-9.22380925265044,66.19500000000698
312309.1797,3.956991252053546,-4.418772984451611,-10.504160821834336,0.41316066023596376,66.19599999999627
312309.1807,12.042427642264377,3.8481988325652194,0.17308950101996273,10.339494206023119,66.19700000004377
312309.1817,20.035288989417204,12.06816117437109,11.154274780290272,20.28718072007132,66.19800000003306
312309.1827,27.729701487769518,20.036862465386427,22.177318507951732,29.995503863260662,66.19900000002235
312309.1837,34.937156056858605,27.566722575439982,32.98942793455759,39.21907342508547,66.20000000001164
312309.1847,41.49115095998491,34.49114472000869,43.3536546405171,47.73410680447292,66.20100000000093
312309.1857,47.25008254229684,40.66720867913748,53.053675766961504,55.34297222167606,66.20199999999022
312309.1867,52.09859098645873,45.97695961600763,61.89692426782878,61.877168295563614,66.20300000003772
312309.1877,55.94769003357619,50.32761304960241,69.71634066833646,67.19903401980802,66.20400000002701
312309.1887,58.734079703997175,53.65105280389099,76.37111382060155,71.20254976198753,66.2050000000163
312309.1897,60.41905497020126,55.90300216178403,81.74681749879377,73.81360028007812,66.20600000000559
312309.1907,60.98738306944538,57.062201936850634,85.75533299919938,74.99002776930213,66.20699999999488
312309.1917,60.44643544508158,57.129840959455976,88.33488075952695,74.72171521973813,66.20800000004238
312309.1927,58.82573970596464,56.12936704593462,89.45037708647521,73.0308211382633,66.20900000003166
312309.1937,56.176978402160955,54.10667524737114,89.09419998077975,69.97215238848693,66.21000000002095
312309.1947,52.57432240817312,51.13054166584344,87.28730768921294,65.63353035036741,66.21100000001024
312309.1957,48.114864674153836,47.29306149015609,84.0805224420111,60.13589413933448,66.21199999999953
312309.1967,42.918830435604576,42.70977307293787,79.5556860201484,53.63280829217825,66.21299999998882
312309.1977,37.129194414512426,37.519116137393844,73.82632654809281,46.30901225951528,66.21400000003632
312309.1987,30.910340951893033,31.88088710515535,67.03745609198883,38.377671254007176,66.21500000002561
312309.1997,24.44546056072283,25.973418229122906,59.3641498479259,30.07606266488874,66.2160000000149
312309.2007,17.932481388558653,19.9893143721596,51.00863784068085,21.65955358242153,66.21700000000419
312309.2017,11.578476393618029,14.129721572381513,42.19576155185628,13.393881747682924,66.21799999999348
312309.2027,5.592652089017162,8.597260675250952,33.16679849042606,5.545928856996918,66.21900000004098
312309.2037,0.17819497262373962,3.5879204607459356,24.171821726921685,-1.626646780734954,66.22000000003027
312309.2047,-4.476591409052674,-0.717649762016625,15.460921394009624,-7.886390990592982,66.22100000001956
312309.2057,-8.207300209899882,-4.162894720321323,7.274753756993823,-13.026996365602882,66.22200000000885
312309.2067,-10.881947962938103,-6.6235339791548045,-0.16501475120700215,-16.883482054955067,66.22299999999814
312309.2077,-12.408353926156867,-8.014535732244177,-6.664748024474189,-19.340874203233838,66.22400000004563
312309.2087,-12.739751525360735,-8.295297256016966,-12.066747417832744,-20.340704747923596,66.22500000003492
312309.2097,-11.878112030650597,-7.4725499897818874,-16.255467442127067,-19.884764581128042,66.22600000002421
312309.2107,-9.874815085259641,-5.60066120012052,-19.161594631062197,-18.03572122463268,66.2270000000135
312309.2117,-6.828496159890909,-2.7791950909767285,-20.76370007128749,-14.914427271473,66.2280000000028
312309.2127,-2.88012024213309,0.8521927071190658,-21.08736101123755,-10.693985663143012,66.22899999999208
312309.2137,1.79444586371728,5.121241191353555,-20.20184373816192,-5.590880498157273,66.23000000003958
312309.2147,6.9938841525625115,9.832470905265064,-18.214629983343052,0.146294065796687,66.23100000002887
312309.2157,12.50225095762224,14.777835204275952,-15.264234424978627,6.2497893277824765,66.23200000001816
312309.2167,18.100412971014094,19.747894312094747,-11.511885650404256,12.446495358939352,66.23300000000745
312309.2177,23.577277632011175,24.542727725221628,-7.132715345359692,18.471664073042415,66.23399999999674
312309.2187,28.740020589848246,28.981824403164506,-2.3071137191407125,24.08166609987764,66.23500000004424
312309.2197,33.42260134770668,32.91227920650595,2.787137739596523,29.064970264066375,66.23600000003353
312309.2207,37.49200863807379,36.21477045610253,7.981447231081445,33.25068443492675,66.23700000002282
312309.2217,40.85187606865921,38.806984094396825,13.121345415363642,36.51419831831025,66.23800000001211
312309.2227,43.44333790188729,40.64436734631339,18.069585175691085,38.77970438345288,66.2390000000014
312309.2237,45.2432332897326,41.718319064834844,22.707413008368956,40.01962155745568,66.23999999999069
312309.2247,46.25999271489821,42.05213451657615,26.934199487727117,40.251185563583746,66.24100000003818
312309.2257,46.52773178645883,41.69519993944801,30.665774147672764,39.53067884354263,66.24200000002747
312309.2267,46.09921708127665,40.71606066063227,33.8319272857616,37.9459338702423,66.24300000001676
312309.2277,45.038443487559924,39.195054453919965,36.37360588301768,35.607842922829086,66.24400000000605
312309.2287,43.41356572026626,37.21720346666447,38.24033653220338,32.641637485263196,66.24499999999534
312309.2297,41.29085838978775,34.86599409700293,39.38835438363744,29.178660270489434,66.24600000004284
312309.2307,38.73024612066919,32.21855155261268,39.77980908207124,25.349247966216627,66.24700000003213
312309.2317,35.782760880674076,29.342546995377113,39.38326746964855,21.277184688055417,66.24800000002142
312309.2327,32.490066065835194,26.29497713983153,38.175554005821304,17.075991296688386,66.24900000001071
312309.2337,28.885957495544176,23.12274873297925,36.14478202476065,12.847104047794895,66.25
312309.2347,24.999533091450452,19.864804246229486,33.29425202168025,8.6797888289551,66.25099999998929
312309.2357,20.859537524338357,16.5553600332434,29.64674636527602,4.65245523711722,66.25200000003679
312309.2367,16.499254340004796,13.227710818061677,25.248649788855904,0.8348960787755502,66.25300000002608
312309.2377,11.961249905360054,9.91799666116482,20.173283975332417,-2.7091037801835793,66.25400000001537
312309.2387,7.301278463628239,6.668336571857785,14.522869071904442,-5.91936205686686,66.25500000000466
312309.2397,2.5907359658821907,3.5288061708282177,8.428615082143482,-8.737620681033254,66.25599999999395
312309.2407,-2.0828048566787136,0.5578681308165018,2.048595131329302,-11.107008017827152,66.25700000004144
312309.2417,-6.617248229656677,-2.178959543546392,-4.436752251692676,-12.972896704922654,66.25800000003073
312309.2427,-10.899856918493786,-4.612208767829289,-10.831421318297982,-14.285221792302751,66.25900000002002
312309.2437,-14.813158900543131,-6.673141454563465,-16.932636857239064,-15.002122133453847,66.26000000000931
312309.2447,-18.242447906875352,-8.299610738012051,-22.54113579375003,-15.094576510828979,66.2609999999986
312309.2457,-21.084254593251927,-9.442550168655096,-27.472239230566124,-14.551545602983815,66.2620000000461
312309.2467,-23.255029342587886,-10.072430724722622,-31.566899622332983,-13.385019452938803,66.26300000003539
312309.2477,-24.699212777370104,-10.184983083429607,-34.70185530183852,-11.634320614850923,66.26400000002468
312309.2487,-25.395883824206287,-9.805510557869631,-36.79804889344174,-9.369032535715194,66.26500000001397
312309.2497,-25.363267951274448,-8.991215372873432,-37.826567482585226,-6.690010991880135,66.26600000000326
312309.2507,-24.660552705705623,-7.83111964696988,-37.811533728762754,-3.728086633461189,66.26699999999255
312309.2517,-23.386679653018366,-6.443368584295412,-36.82960468184763,-0.6402656633284384,66.26800000004005
312309.2527,-21.676041343963778,-4.969938166283736,-35.00599965368797,2.3965349236847797,66.26900000002934
312309.2537,-19.691285274326503,-3.5690112238171574,-32.50725709243004,5.193942965262113,66.27000000001863
312309.2547,-17.6136886368944,-2.405511326297963,-29.531188301123247,7.562279118854466,66.27100000000792
312309.2557,-15.631793454586406,-1.6404717683146386,-26.294728913573625,9.321711099208201,66.2719999999972
312309.2567,-13.929159996180422,-1.42004861675183,-23.02056599945486,10.313595827899347,66.2730000000447
312309.2577,-12.672190923980825,-1.8650488525997957,-19.923523075656092,10.411128512192214,66.274000000034
312309.2587,-11.998989840453403,-3.0618299792639645,-17.197707153190198,9.528432501620813,66.27500000002328
312309.2597,-12.010143901293402,-5.055336020898518,-15.005358709125334,7.62731681929629,66.27600000001257
312309.2607,-12.762166977899815,-7.844873709292376,-13.468202385918538,4.721092932423953,66.27700000000186
312309.2617,-14.26412092495748,-11.383015540831519,-12.661885901004647,0.8750651779484306,66.27799999999115
312309.2627,-16.477667467392333,-15.577762317981978,-12.61383594784574,-3.796428811181945,66.27900000003865
312309.2637,-19.320516050707443,-20.297829425224645,-13.304576113862183,-9.136273372819549,66.28000000002794
312309.2647,-22.67294977712507,-25.380662576787365,-14.672268620912295,-14.953702326796874,66.28100000001723
312309.2657,-26.386857967426142,-30.64256348007584,-16.619984410365106,-21.035639266486136,66.28200000000652
312309.2667,-30.296502800241647,-35.89013414983528,-19.02499751979066,-27.159409726781288,66.28299999999581
312309.2677,-34.23011673577466,-40.93214590848398,-21.749257806241047,-33.105873985816764,66.2840000000433
312309.2687,-38.021378194550906,-45.590914437996574,-24.650132358389165,-38.67200002915326,66.2850000000326
312309.2697,-41.51984869713391,-49.71231738197468,-27.590524404483787,-43.681950615034985,66.28600000002189
312309.2707,-44.59957087878454,-53.17372032311607,-30.447575400361274,-47.99589124179005,66.28700000001118
312309.2717,-47.16521152818581,-55.88926806539432,-33.11932024962979,-51.51592475299661,66.28800000000047
312309.2727,-49.155368901336715,-57.81223304137995,-35.528880196319456,-54.188804964656576,66.28899999998976
312309.2737,-50.54292647152067,-58.93436953375614,-37.62602149351297,-56.005353512715736,66.29000000003725
312309.2747,-51.33260124664386,-59.28247771809974,-39.38615701412022,-56.99677653116953,66.29100000002654
312309.2757,-51.556079261117105,-58.91261228836733,-40.80709921737875,-57.22832652872619,66.29200000001583
312309.2767,-51.26533178206912,-57.90255626635136,-41.90406537058018,-56.790958265029595,66.29300000000512
312309.2777,-50.52484564266342,-56.343305688239234,-42.70357298352085,-55.79176842464099,66.29399999999441
312309.2787,-49.40356849601396,-54.33036528236284,-43.23693409929003,-54.344076403429995,66.29500000004191
312309.2797,-47.96736026515843,-51.95563579950135,-43.534057032660485,-52.55799348289837,66.2960000000312
312309.2807,-46.272658529135974,-49.30058401262514,-43.618195777871065,-50.53224319940155,66.29700000002049
312309.2817,-44.361917777385464,-46.43123665296699,-43.50215940300267,-48.34784669786425,66.29800000000978
312309.2827,-42.2611859409689,-43.39534511912235,-43.186320451052026,-46.06408886336709,66.29899999999907
312309.2837,-39.9799561715138,-40.22184791236292,-42.65856072147684,-43.71695373843134,66.30000000004657
312309.2847,-37.51319961008137,-36.922533584855614,-41.896084981806766,-41.31998305010631,66.30100000003586
312309.2857,-34.84526821059067,-33.495599649867195,-40.86883853705642,-38.86729159883335,66.30200000002515
312309.2867,-31.95517602994116,-29.930631485479342,-39.544101857757546,-36.33828787330503,66.30300000001444
312309.2877,-28.8226394861179,-26.214405089647517,-37.89171992845544,-33.70351384561561,66.30400000000373
312309.2887,-25.43419334958178,-22.336858793880225,-35.88936613634454,-30.9309455186103,66.30499999999302
312309.2897,-21.788704794020582,-18.296585863794274,-33.52724515933975,-27.992090292975355,66.30600000004051
312309.2907,-17.90168106399093,-14.105270108660122,-30.811705084250303,-24.86727688655351,66.3070000000298
312309.2917,-13.807899043928215,-9.790611926681732,-27.767348563277793,-21.549650373275142,66.30800000001909
312309.2927,-9.56206333290516,-5.397459161266917,-24.43739362367739,-18.047545495770944,66.30900000000838
312309.2937,-5.237405086275753,-0.9870484189389159,-20.882220183010848,-14.385098298757487,66.30999999999767
312309.2947,-0.9223460697898201,3.3655413421831892,-17.176229401683624,-10.601149633914574,66.31100000004517
312309.2957,3.284450220692953,7.5754397476621085,-13.403320224185816,-6.7466742437224205,66.31200000003446
312309.2967,7.280155574704779,11.553108526999324,-9.651432756411207,-2.8811177262061842,66.31300000002375
312309.2977,10.964385036213985,15.210004004087468,-6.006706695250349,0.9318739404342274,66.31400000001304
312309.2987,14.245687737519948,18.46419979815283,-2.5478448344718574,4.628801122857711,66.31500000000233
312309.2997,17.04728771774704,21.245406007877744,0.6587475181283385,8.150215386726458,66.31599999999162
312309.3007,19.311521101310014,23.49889387134899,3.562554570543368,11.443734487792796,66.31700000003912
312309.3017,21.002550797765302,25.187957002319223,6.1309100786220805,14.465838276127942,66.3180000000284
312309.3027,22.107116164101505,26.294698613825968,8.3491289792911,17.182270335036577,66.3190000000177
312309.3037,22.633274779393567,26.819112001684022,10.218802184686025,19.567042640537544,66.32000000000698
312309.3047,22.60729641542811,26.776600607886486,11.754436034626947,21.60021284189939,66.32099999999627
312309.3057,22.06905517232845,26.194246033159708,12.978790806764312,23.26475757194359,66.32200000004377
312309.3067,21.066416274139513,25.106261244267653,13.917411369924244,24.54298421107821,66.32300000003306
312309.3077,19.649214615775346,23.549149336886803,14.592933862533442,25.412995141281282,66.32400000002235
312309.3087,17.863463347000714,21.55711773851567,15.019786294811325,25.845735005798495,66.32500000001164
312309.3097,15.746409010223163,19.158271259880074,15.199874878238685,25.80311068494707,66.32600000000093
312309.3107,13.322967583049897,16.372028054272974,15.119764116447586,25.237579173827346,66.32699999999022
312309.3117,10.603941528522968,13.20807855491894,14.749725113974831,24.09345917524302,66.32800000003772
312309.3127,7.586244776761074,9.667051262950217,14.044855627552872,22.3100512679442,66.32900000002701
312309.3137,4.25516710071001,5.742876205042018,12.948282905134512,19.82646533156915,66.3300000000163
312309.3147,0.5885101292943732,1.426663723913027,11.396263985846735,16.587870373643884,66.33100000000559
312309.3157,-3.4377570915495363,-3.288240446462862,9.324815746943067,12.552718700590505,66.33199999999488
312309.3167,-7.842827480786411,-8.400488346344861,6.677355074572366,7.70036936124567,66.33300000004238
312309.3177,-12.63398130429221,-13.894798287862052,3.412721758549294,2.038457521564591,66.33400000003166
312309.3187,-17.799769815180333,-19.736437911534228,-0.48709730179673166,-4.390665007953632,66.33500000002095
312309.3197,-23.304110909112847,-25.866680018159183,-5.010219459475055,-11.505054600172619,66.33600000001024
312309.3207,-29.081883540985725,-32.19971752128737,-10.10970750317468,-19.18040713416217,66.33699999999953
312309.3217,-35.03648868230115,-38.62140814233875,-15.700499822332608,-27.249792342159548,66.33799999998882
312309.3227,-41.03968491442739,-44.99007090983295,-21.658771399807947,-35.50610623058892,66.33900000003632
312309.3237,-46.933821173612905,-51.13938905003171,-27.823881852517896,-43.707254009893866,66.34000000002561
312309.3247,-52.53639465721442,-56.88330293525346,-34.00286907454979,-51.583869832060216,66.3410000000149
312309.3257,-57.64667595621318,-62.02261789660386,-39.97725444734739,-58.8491878213031,66.34200000000419
312309.3267,-62.053982451788045,-66.35291897413545,-45.51175444479788,-65.21051779460733,66.34299999999348
312309.3277,-65.54705860204538,-69.67328936693883,-50.36435791696957,-70.38166214682124,66.34400000004098
312309.3287,-67.92394774769541,-71.79527895810251,-54.29713901924517,-74.09554688123077,66.34500000003027
312309.3297,-69.00171953342681,-72.55156688417631,-57.08713887713464,-76.11633397521632,66.34600000001956
312309.3307,-68.62544990036078,-71.80380611526289,-58.53666595329074,-76.25033314932217,66.34700000000885
312309.3317,-66.67593177414118,-69.44922244391002,-58.48243211643525,-74.3551325081737,66.34799999999814
312309.3327,-63.075714564193234,-65.42565547033014,-56.80305055651177,-70.34650885091611,66.34900000004563
312309.3337,-57.79321651405919,-59.714862749495026,-53.42456132050178,-64.20284575406974,66.35000000003492
312309.3347,-50.84481083287786,-52.34404644163011,-48.3238063432378,-55.96696488168728,66.35100000002421
312309.3357,-42.29493885300151,-43.385690763210235,-41.52963340737019,-45.74544702665617,66.3520000000135
312309.3367,-32.25443663448528,-32.955905815439266,-33.122052952411245,-33.70566894510238,66.3530000000028
312309.3377,-20.877363337252408,-21.211549136611904,-23.229590415453643,-20.070897552428374,66.35399999999208
312309.3387,-8.356681809347334,-8.34643437363533,-12.025160279793472,-5.113855782991419,66.35500000003958
312309.3397,5.080839808954181,5.413065139648489,0.2791692991753952,10.850799664954092,66.35600000002887
312309.3407,19.18016119952964,19.81274881516424,13.43815153414709,27.474668349543663,66.35700000001816
312309.3417,33.66365517246811,34.575457168303,27.17974330291755,44.38410322982389,66.35800000000745
312309.3427,48.23675172758828,49.405964953384334,41.21163015895112,61.188743597424406,66.35899999999674
312309.3437,62.593450937095646,63.99588403710631,55.22771692193015,77.48991795019373,66.36000000004424
312309.3447,76.42171804988476,78.02865046579662,68.9145006949112,92.88885755871769,66.36100000003353
312309.3457,89.408862833434,91.18473985632282,81.95733023760853,106.99475412716528,66.36200000002282
312309.3467,101.24706623168322,103.1472940144095,94.04662342678965,119.43276038324515,66.36300000001211
312309.3477,111.63924133624714,113.60834197017994,104.88415322061753,129.85206073253306,66.3640000000014
312309.3487,120.30539727131809,122.27575731656508,114.1895160076497,137.9341249443258,66.36499999999069
312309.3497,126.98961381050503,128.88101272966173,121.70686283301447,143.4012011658108,66.36600000003818
312309.3507,131.46763652682048,133.18767867043584,127.21190683350873,146.025010788212,66.36700000002747
312309.3517,133.55497693017787,135.000477684115,130.51912676613313,145.635487166507,66.36800000001676
312309.3527,133.11526304130194,134.17456285064236,131.48897787734177,142.1292671940769,66.36900000000605
312309.3537,130.06844922319513,130.62455502024488,130.03481104688927,135.4775159603761,66.36999999999534
312309.3547,124.3983765818951,124.33276485148221,126.12910362777107,125.73255754470648,66.37100000004284
312309.3557,116.15909255472,115.35595714609455,119.8085345734155,113.03271559229067,66.37200000003213
312309.3567,105.47930342146762,103.82999819693455,111.17740407384734,97.60474887271985,66.37300000002142
312309.3577,92.5643552825202,89.97176905588337,100.40891238441071,79.76330824432345,66.37400000001071
312309.3587,77.69522127989944,74.07783069973874,87.74387780171942,59.906945474934886,66.375
312309.3597,61.22411351577038,56.519487224517064,73.4865888352592,38.51036818756774,66.37599999998929
312309.3607,43.56652952182099,37.734101045231434,57.99764448099568,16.11284965441224,66.37700000003679
312309.3617,25.18977226770399,18.212755280782947,41.68382836414776,-6.697047457122916,66.37800000002608
312309.3627,6.598232305604857,-1.5153851260536568,24.985272736062424,-29.300007124448985,66.37900000001537
312309.3637,-11.684029411425973,-20.90141102690624,8.360379556581158,-51.06706761331088,66.38000000000466
312309.3647,-29.13263055113194,-39.396878516577516,-7.73084035335826,-71.38237885248812,66.38099999999395
312309.3657,-45.243193461446516,-56.47488551450052,-22.844190906131754,-89.66650412651774,66.38200000004144
312309.3667,-59.551565866149645,-71.65089656560038,-36.568551188202704,-105.39904607846967,66.38300000003073
312309.3677,-71.65279972031917,-84.50215866992117,-48.54200383946927,-118.13934518926548,66.38400000002002
312309.3687,-81.21777931888361,-94.68459509114123,-58.46589041118815,-127.5440572049706,66.38500000000931
312309.3697,-88.00650043847968,-101.94619045516482,-66.11595300360695,-133.3805643487921,66.3859999999986
312309.3707,-91.87719051618366,-106.13608192093797,-71.34988912759503,-135.53540574342793,66.3870000000461
312309.3717,-92.79071320997161,-107.20883413429675,-74.11087069458685,-134.01721004120262,66.38800000003539
312309.3727,-90.81000073413385,-105.22368083810277,-74.42684184949637,-128.95395623193846,66.38900000002468
312309.3737,-86.09458114397258,-100.33884012083381,-72.40569342690573,-120.58475074615791,66.39000000001397
312309.3747,-78.89058962766958,-92.80132792353984,-68.2266911319449,-109.24666162941827,66.39100000000326
312309.3757,-69.51694679417936,-82.93298024274621,-62.12878675485098,-95.35746515473588,66.39199999999255
312309.3767,-58.348628803518096,-71.113625456505,-54.39664525250484,-79.39541089353106,66.39300000004005
312309.3777,-45.798124048520286,-57.76250582831391,-45.34535769570414,-61.87727728014477,66.39400000002934
312309.3787,-32.29625518634706,-43.31911922914979,-35.30486891082295,-43.336057600634845,66.39500000001863
312309.3797,-18.273537405722845,-28.224633668954507,-24.60512417062073,-24.299581265557084,66.39600000000792
312309.3807,-4.1431459246698745,-12.904921575113088,-13.56283419747997,-5.271241566730422,66.3969999999972
312309.3817,9.713611998509547,2.2439211027888293,-2.470582249009628,13.286217851422633,66.3980000000447
312309.3827,22.95866544839051,16.866946214422786,8.411232012854317,30.963188917620794,66.399000000034
312309.3837,35.30501338625002,30.658266493143056,18.859378015020322,47.41160974186884,66.40000000002328
312309.3847,46.52094159398,43.36544812773424,28.68974332320689,62.349281701708684,66.40100000001257
312309.3857,56.43082187185847,54.79059159531663,37.756530838174136,75.56038315858068,66.40200000000186
312309.3867,64.91293551052507,64.78854193142702,45.94919885246128,86.89273059996988,66.40299999999115
312309.3877,71.89494880138257,73.26284462288778,53.187790408043426,96.2525298778109,66.40400000003865
312309.3887,77.34778295224173,80.16016844307151,59.41737981196077,103.59746969686336,66.40500000002794
312309.3897,81.27865797974427,85.46394658349892,64.60237061378935,108.92903150680837,66.40600000001723
312309.3907,83.72405147687628,89.18794462058503,68.72131366580494,112.28482808248127,66.40700000000652
312309.3917,84.74320741516192,91.37035736264441,71.7627858860954,113.73164892933868,66.40799999999581
312309.3927,84.41267224020608,92.06888131456799,73.72269559545542,113.35970228488668,66.4090000000433
312309.3937,82.82214469233992,91.35702419504807,74.60317837882938,111.2783233336007,66.4100000000326
312309.3947,80.07172349387986,89.32171836983305,74.41303984143502,107.61319068689497,66.41100000002189
312309.3957,76.27044475387885,86.06212172194411,73.16950964407971,102.50488201297091,66.41200000001118
312309.3967,71.53583799282175,81.68933562823136,70.90091373651141,96.10842586110795,66.41300000000047
312309.3977,65.9941114915697,76.32665968700562,67.64976358690575,88.59338632949827,66.41399999998976
312309.3987,59.78051434697196,70.10994582659482,63.47571184971793,80.14396022353255,66.41500000003725
312309.3997,53.03941824175431,63.18761378148279,58.45783660373735,70.95857582375281,66.41600000002654
312309.4007,45.923714374391835,55.719943121136986,52.69578805322895,61.24855454232115,66.41700000001583
312309.4017,38.59322236725239,47.87735613943042,46.309453679465506,51.23552159859341,66.41800000000512
312309.4027,31.21194565580185,39.8375386602447,39.436956780804316,41.14741441150022,66.41899999999441
312309.4037,23.94416591036238,31.781396890380847,32.230982369643066,31.213119378863148,66.42000000004191
312309.4047,16.949529864262068,23.888001172529062,24.85360512396281,21.655949341538552,66.4210000000312
312309.4057,10.377428059055706,16.328805469327854,17.46995832182633,12.686336073800621,66.42200000002049
312309.4067,4.361080838441487,9.261540130271941,10.24121411111542,4.494237698422652,66.42300000000978
312309.4077,-0.9881799032006867,2.824243667992822,3.3174311502646883,-2.7581630214935564,66.42399999999907
312309.4087,-5.58592209058334,-2.8700801533623306,-3.1691428149617833,-8.942874995659674,66.42500000004657
312309.4097,-9.37843754923985,-7.73772285865507,-9.109751667755535,-13.971076412106475,66.42600000003586
312309.4107,-12.34497991175764,-11.727068684180887,-14.423313946570863,-17.796197742067818,66.42700000002515
312309.4117,-14.498142178194982,-14.819664106685236,-19.05875538316541,-20.41479886690405,66.42800000001444
312309.4127,-15.882255760479358,-17.029439013327107,-22.995301573444486,-21.865107256022068,66.42900000000373
312309.4137,-16.569865037061216,-18.400117566705816,-26.240724448041952,-22.223279018307224,66.42999999999302
312309.4147,-16.65650302775305,-19.001013988521517,-28.827721278318293,-21.59763762689475,66.43100000004051
312309.4157,-16.25414786328498,-18.92154882837975,-30.808774105821673,-20.121317642103982,66.4320000000298
312309.4167,-15.483860918467162,-18.264930926876495,-32.24997416610119,-17.94387613870928,66.43300000001909
312309.4177,-14.46818352619783,-17.141518326110578,-33.22438654572368,-15.222519554399462,66.43400000000838
312309.4187,-13.323892129448485,-15.662390994613482,-33.80556578795835,-12.113619856923473,66.43499999999767
312309.4197,-12.155678739483095,-13.9336373504831,-34.06180959960102,-8.765158441556839,66.43600000004517
312309.4207,-11.051237304233874,-12.051778115143309,-34.05165714046888,-5.310642121460058,66.43700000003446
312309.4217,-10.078104972200903,-10.100632672398914,-33.82100819617733,-1.864891745138487,66.43800000002375
312309.4227,-9.282442723844069,-8.14978650317144,-33.40207242738007,1.47807598429164,66.43900000001304
312309.4237,-8.689758242883546,-6.254657935602116,-32.8141702315001,4.645051791110869,66.44000000000233
312309.4247,-8.307392835881991,-4.458004341828324,-32.066217122716765,7.581699192492195,66.44099999999162
312309.4257,-8.128431379085725,-2.7925678181815834,-31.160550869372607,10.249038251436197,66.44200000003912
312309.4267,-8.13656569056503,-1.2844523563068835,-30.097622321803552,12.618846666149988,66.4430000000284
312309.4277,-8.31136011004795,0.043240559905014166,-28.880981010804383,14.668569345630875,66.4440000000177
312309.4287,-8.63334154370381,1.167006493951523,-27.52195454421167,16.37636053104196,66.44500000000698
312309.4297,-9.088367486857523,2.060215561653224,-26.043450207347988,17.716853101986615,66.44599999999627
312309.4307,-9.670811525517857,2.6914422706213976,-24.482395500667923,18.658161036584854,66.44700000004377
312309.4317,-10.385238016854629,3.024094227729903,-22.89047324476969,19.1604819824674,66.44800000003306
312309.4327,-11.246402878800549,3.0174364310483432,-21.332982870596844,19.17649141021053,66.44900000002235
312309.4337,-12.277599118445012,2.6289462998878945,-19.885855318257807,18.653525331537423,66.45000000001164
312309.4347,-13.507545577575394,1.8177778689220891,-18.631045202046533,17.53735443118594,66.45100000000093
312309.4357,-14.966177100877395,0.5489779641874666,-17.650700945670437,15.777178030061146,66.45199999999022
312309.4367,-16.67981753707204,-1.2020029529978338,-17.02065352771487,13.331328995554035,66.45300000003772
312309.4377,-18.666290789696607,-3.445016276069233,-16.80385284264431,10.173094327357092,66.45400000002701
312309.4387,-20.930541517448663,-6.171648893051439,-17.044407926855264,6.296029443388981,66.4550000000163
312309.4397,-23.46129373270812,-9.352843556199005,-17.762849767917743,1.7181800412167403,66.45600000000559
312309.4407,-26.22917616939051,-12.938061561194514,-18.9531357727532,-3.5152795178187257,66.45699999999488
312309.4417,-29.186597324431258,-16.85619996405016,-20.581762012255364,-9.331337290505212,66.45800000004238
312309.4427,-32.26947481457651,-21.018305548433617,-22.58915721915577,-15.630529458729477,66.45900000003166
312309.4437,-35.400730906196884,-25.321947739819365,-24.89331933607769,-22.290387047708904,66.46000000002095
312309.4447,-38.4952782747451,-29.656940659579657,-27.39544160433871,-29.170712974009728,66.46100000001024
312309.4457,-41.46605651179803,-33.911958094264115,-29.987081448971182,-36.12028289120794,66.46199999999953
312309.4467,-44.230557715344,-37.981479671472734,-32.55827070401273,-42.98442608553457,66.46299999998882
312309.4477,-46.71721181560152,-41.77245351855964,-35.00586536866717,-49.61285766537162,66.46400000003632
312309.4487,-48.87099690894625,-45.21006662283208,-37.24139728095246,-55.867108844994064,66.46500000002561
312309.4497,-50.657698404734916,-48.2420797146731,-39.19772286814475,-61.626940548125745,66.4660000000149
312309.4507,-52.066358409400294,-50.84130351060064,-40.8338629313721,-66.79522287550897,66.46700000000419
312309.4517,-53.1096226393898,-53.00595682312467,-42.13758335034978,-71.30090935520914,66.46799999999348
312309.4527,-53.821890449845995,-54.757839105976466,-43.125465275607176,-75.09991564027293,66.46900000004098
312309.4537,-54.255385042985175,-56.138452170412336,-43.84043634665788,-78.17390941357588,66.47000000003027
312309.4547,-54.47446482031946,-57.20339857592094,-44.34696098156484,-80.52721219050416,66.47100000001956
312309.4557,-54.548672977005154,-58.01554879086446,-44.7242967913471,-82.1821854598055,66.47200000000885
312309.4567,-54.545153219058875,-58.63758947587992,-45.05839638992662,-83.17360657419117,66.47299999999814
312309.4577,-54.521131708365125,-59.124629251598435,-45.43315358584933,-83.54262147124125,66.47400000004563
312309.4587,-54.517171510707605,-59.51753960398818,-45.921749496260574,-83.33088443533475,66.47500000003492
312309.4597,-54.55184490460665,-59.837646775914585,-46.578842871004134,-82.57545840449606,66.47600000002421
312309.4607,-54.618346425675604,-60.08327132492032,-47.4342715906819,-81.30495745171042,66.4770000000135
312309.4617,-54.68339698429295,-60.22844674534064,-48.48879676897386,-79.53727608408037,66.4780000000028
312309.4627,-54.68858314384219,-60.22395278517846,-49.71224029553738,-77.27908223192708,66.47899999999208
312309.4637,-54.55405522221141,-60.00059127792551,-51.04415810689748,-74.52706932481887,66.48000000003958
312309.4647,-54.18429409477353,-59.47443190168589,-52.396974347565745,-71.27078575868428,66.48100000002887
312309.4657,-53.475469497731915,-58.55358083935383,-53.66129566723518,-67.49670464030542,66.48200000001816
312309.4667,-52.32376965170043,-57.14589277395785,-54.71294851677268,-63.193077783624666,66.48300000000745
312309.4677,-50.63399623978666,-55.16696783494045,-55.42115063274167,-58.3550465146259,66.48399999999674
312309.4687,-48.327697782168975,-52.54775668077886,-55.65715161931078,-52.989464090215,66.48500000004424
312309.4697,-45.350159711872635,-49.24113983352296,-55.30266195014397,-47.118921318858156,66.48600000003353
312309.4707,-41.67567624593881,-45.22694695596364,-54.25743439478479,-40.78455387215493,66.48700000002282
312309.4717,-37.31068707235818,-40.51502810929834,-52.44546086850408,-34.047337613082405,66.48800000001211
312309.4727,-32.2945559213367,-35.1461681041925,-49.819390232245276,-26.987734021226114,66.4890000000014
312309.4737,-26.697980051704878,-29.190829979705647,-46.36294414705925,-19.703715877233375,66.48999999999069
312309.4747,-20.61922984056396,-22.745906244995858,-42.09129193965574,-12.307367075650088,66.49100000003818
312309.4757,-14.178606567070702,-15.92982897364472,-37.04952406057357,-4.9203934892509364,66.49200000002747
312309.4767,-7.511656681181647,-8.87652624469896,-31.30952047311451,2.331010158145774,66.49300000001676
312309.4777,-0.7617784484025959,-1.7288001963507393,-24.965630905509638,9.321430570290874,66.49400000000605
312309.4787,5.92710722715009,5.368267029377641,-18.129657660420857,15.93112756312309,66.49499999999534
312309.4797,12.417179192065252,12.273301817190479,-10.925652532046232,22.050077279438092,66.49600000004284
312309.4807,18.582080674039855,18.853530070787954,-3.4850064455880903,27.580794153228187,66.49700000003213
312309.4817,24.310620650974467,24.988213111891653,4.057771855223504,32.43969841704519,66.49800000002142
312309.4827,29.508591849815467,30.570441252502004,11.568313981582317,36.55696468431448,66.49900000001071
312309.4837,34.0986925703691,35.507287271335684,18.9145614943029,39.8749682699807,66.5
312309.4847,38.018748252285924,39.71851167049049,25.96788018879648,42.34562071939475,66.50099999998929
312309.4857,41.218617812642805,43.1341819956581,32.60330354129241,43.92703562891413,66.50200000003679
312309.4867,43.65631976236525,45.691701699628815,38.69921650902148,44.580073150157325,66.50300000002608
312309.4877,45.29400793012635,47.33282530646271,44.13687851209157,44.2653630330413,66.50400000001537
312309.4887,46.09445539198249,48.001256091578874,48.80022229343012,42.941393237446526,66.50500000000466
312309.4897,46.01866334939298,47.641376134073916,52.576347877780556,40.564171745118564,66.50599999999395
312309.4907,45.02510152507421,46.198548863263895,55.35705822307041,37.08882758323049,66.50700000004144
312309.4917,43.07091724739097,43.62126990785378,57.04166143311085,32.473324048470175,66.50800000003073
312309.4927,40.115236896144985,39.86523761831331,57.54110501299986,26.684229179665177,66.50900000002002
312309.4937,36.12444561699495,34.899188941189436,56.78332638836914,19.7042464421386,66.51000000000931
312309.4947,31.0790919278884,28.71212098373714,54.719519460488364,11.54097559667442,66.5109999999986
312309.4957,24.981846623339376,21.321315992181574,51.33084913052027,2.236173413792632,66.5120000000461
312309.4967,17.865772455779908,12.780428638625287,46.635013480113,-8.125362036236886,66.51300000003539
312309.4977,9.802051191238323,3.186797210104554,40.691972895835534,-19.408233642287886,66.51400000002468
312309.4987,0.9062812451528584,-7.312882819423499,33.60814868725804,-31.421154120442658,66.51500000001397
312309.4997,-8.657491052090517,-18.519327034722433,25.538446709215663,-43.914762941308624,66.51600000000326
312309.5007,-18.675711204511114,-30.18053956624009,16.685583582548013,-56.583208960400974,66.51699999999255
312309.5017,-28.887725637282543,-41.99525936145756,7.296376898498017,-69.06989877514312,66.51800000004005
312309.5027,-38.991893685846165,-53.620171035604905,-2.3451075471942775,-80.97749813454588,66.51900000002934
312309.5037,-48.655334375276894,-64.68077745701117,-11.9273981197931,-91.88193066372368,66.52000000001863
312309.5047,-57.52692695586849,-74.7855226995866,-21.124029914308654,-101.34977343040259,66.52100000000792
312309.5057,-65.25288761555294,-83.54246249146365,-29.60786108042757,-108.95813270857805,66.5219999999972
312309.5067,-71.49399172555586,-90.57753120784075,-37.06642247049541,-114.3158247593035,66.5230000000447
312309.5077,-75.9433254811779,-95.553273266137,-43.21729041421041,-117.08451074992902,66.524000000034
312309.5087,-78.34335164183226,-98.18681076517382,-47.822412945059035,-116.99836092273883,66.52500000002328
312309.5097,-78.50107280898082,-98.26581961608387,-50.70034980916365,-113.88086131870314,66.52600000001257
312309.5107,-76.30017536921915,-95.66138620298777,-51.73550724021761,-107.65752765676193,66.52700000000186
312309.5117,-71.70923190952236,-90.33680994365595,-50.88365246920573,-98.36354620501966,66.52799999999115
312309.5127,-64.78531489345255,-82.3516896416394,-48.1732648285988,-86.14570194935152,66.52900000003865
312309.5137,-55.6727073877427,-71.86096147680223,-43.7025977496965,-71.2583532410165,66.53000000002794
312309.5147,-44.59675966121599,-59.10891655938878,-37.6326615601318,-54.05363670189322,66.53100000001723
312309.5157,-31.853302347552248,-44.41858573681781,-30.176660853567753,-34.96650083428566,66.53200000000652
312309.5167,-17.794356045651803,-28.177208027627625,-21.58670271380156,-14.495536178739776,66.53299999999581
312309.5177,-2.8111448589657915,-10.818768466595213,-12.138806825450091,6.819137722372261,66.5340000000433
312309.5187,12.68439597005392,7.195221648734562,-2.1173749652870346,28.419477899297895,66.5350000000326
312309.5197,28.278346159206297,25.395439553114677,8.199696962687126,49.753092945994744,66.53600000002189
312309.5207,43.57251302857432,43.323712806758394,18.554159415414016,70.29531500529473,66.53700000001118
312309.5217,58.20001187173179,60.550095463970756,28.717872682409684,89.56846420587772,66.53800000000047
312309.5227,71.83781381636308,76.68712987363814,38.499920328084876,107.15726945412631,66.53899999998976
312309.5237,84.2156482147961,91.40063723984052,47.750013420525,122.71975287201657,66.54000000003725
312309.5247,95.12097494975575,104.41669350652086,56.358168140560025,135.99327138430664,66.54100000002654
312309.5257,104.4000803972968,115.52477236830133,64.25097706393059,146.79580251218235,66.54200000001583
312309.5267,111.95566775521101,124.57734409682678,71.38509644097589,155.02292691820728,66.54300000000512
312309.5277,117.7415793385098,131.4864798119241,77.73881009251656,160.6412657310556,66.54399999999441
312309.5287,121.75548206549632,136.21820343796293,83.30268327631833,163.67935070470813,66.54500000004191
312309.5297,124.03045217628325,138.78544280067374,88.07037359145093,164.21702319968014,66.5460000000312
312309.5307,124.62640475499437,139.24045071373615,92.03061684149942,162.37446741717383,66.54700000002049
312309.5317,123.62223087414273,137.66749912459824,95.16125986578942,158.30188849014607,66.54800000000978
312309.5327,121.10934211981744,134.17650564810558,97.42598499835528,152.170661077295,66.54899999999907
312309.5337,117.18709840893821,128.89805052086447,98.77408496959232,144.166521396865,66.55000000004657
312309.5347,111.96033528262437,121.98000668036482,99.14333091647424,134.48508332928145,66.55100000003586
312309.5357,105.53893890226114,113.58576240089397,98.46566030060254,123.32965825443665,66.55200000002515
312309.5367,98.03916833291441,103.89379062973333,96.67512590033525,110.91107923790237,66.55300000001444
312309.5377,89.58622007011745,93.09813500089432,93.71731807150596,97.44900021252226,66.55400000000373
312309.5387,80.31738863442949,81.40925756367388,89.55932061369465,83.17398113151421,66.55499999999302
312309.5397,70.38511192799433,69.05463896280754,84.19919853037236,68.32959408480049,66.55600000004051
312309.5407,59.95920542876935,56.278541944525415,77.67404770019074,53.17379761946842,66.5570000000298
312309.5417,49.22768150947716,43.340439688881744,70.06575712887016,37.97892259081922,66.55800000001909
312309.5427,38.39570794213875,30.51176052130225,61.503831089757824,23.02978022328356,66.55900000000838
312309.5437,27.682465453966508,18.070793172289896,52.164871535218985,8.61962247366755,66.55999999999767
312309.5447,17.315896130181493,6.29581110602721,42.268606531734214,-4.956067467978131,66.56100000004517
312309.5457,7.525568492779775,-4.543312097212572,32.0706417860595,-17.407726418327638,66.56200000003446
312309.5467,-1.4659025080605173,-14.194533878346853,21.852383511917907,-28.461348497023142,66.56300000002375
312309.5477,-9.452272688713789,-22.43350997882194,11.908808513468369,-37.86897026687956,66.56400000001304
312309.5487,-16.253204681794003,-29.073196957198455,2.534922714156753,-45.41924530041688,66.56500000000233
312309.5497,-21.723163659675112,-33.972464950181156,-5.988160027687303,-50.94730261191109,66.56599999999162
312309.5507,-25.75894559116609,-37.04304035553151,-13.406576388601852,-54.34311265772065,66.56700000003912
312309.5517,-28.305211912533526,-38.25420705703576,-19.50563422099807,-55.55768611568295,66.5680000000284
312309.5527,-29.357563895599846,-37.634857295570534,-24.119556385966224,-54.60659335315461,66.5690000000177
312309.5537,-28.96289165549659,-35.27268349978087,-27.1384988110927,-51.570499702848615,66.57000000000698
312309.5547,-27.216956711153824,-31.310521065448604,-28.51251849413476,-46.5926428564507,66.57099999999627
312309.5557,-24.2593915547766,-25.940068460058402,-28.252405022639817,-39.873411580932014,66.57200000004377
312309.5567,-20.2665034438933,-19.393404939450356,-26.427518467709962,-31.662397750312916,66.57300000003306
312309.5577,-15.44243370803301,-11.932879938436075,-23.160977352187853,-22.24846712791592,66.57400000002235
312309.5587,-10.009333633933553,-3.8400483891127744,-18.622696544325972,-11.948513565892352,66.57500000001164
312309.5597,-4.197264442578484,4.59563516909937,-13.020875179242534,-1.0956171519519549,66.57600000000093
312309.5607,1.7654906290250125,13.087675655170859,-6.592573769910402,9.972683368109031,66.57699999999022
312309.5617,7.661095670913865,21.362345565307592,0.40600154086678625,20.925365940953583,66.57800000003772
312309.5627,13.289340024305817,29.166970939575315,7.70896427275399,31.4476349694744,66.57900000002701
312309.5637,18.473022707146498,36.27639117907494,15.049535275294293,41.24901398725663,66.5800000000163
312309.5647,23.0614307628859,42.49747236003879,22.167867584513687,50.06965049628535,66.58100000000559
312309.5657,26.93198720506577,47.67173458694425,28.817773355979632,57.68484198311444,66.58199999999488
312309.5667,29.99031167768922,51.676313510450946,34.77235798529033,63.90795154438859,66.58300000004238
312309.5677,32.1690664702055,54.4235983623352,39.82868069043023,68.59200382415831,66.58400000003166
312309.5687,33.426039187640704,55.85996186858827,43.811636219771074,71.63032463941775,66.58500000002095
312309.5697,33.7419338161911,55.96401478073336,46.577281177544116,72.95660400082525,66.58600000001024
312309.5707,33.118303159097636,54.74477926659006,48.01580878881078,72.5447219713497,66.58699999999953
312309.5717,31.57596321162616,52.240087024944295,48.05431196546639,70.40858629779943,66.58799999998882
312309.5727,29.154095587535366,48.51538139836551,46.65937623428061,66.60210234592246,66.58900000003632
312309.5737,25.910084037255302,43.66295407690231,43.83942606310538,61.21924663187027,66.59000000002561
312309.5747,21.919964955791652,37.80149507108904,39.64662799323958,54.39406511295656,66.5910000000149
312309.5757,17.279220105832863,31.075699016520673,34.178050312570775,46.300286988980496,66.59200000000419
312309.5767,12.103521832800594,23.655569567637695,27.57570903375344,37.15015299952485,66.59299999999348
312309.5777,6.52897259843617,15.735011065220224,20.02510744976164,27.192019093764888,66.59400000004098
312309.5787,0.7113721451746231,7.529301921068526,11.75191001139972,16.7063211306968,66.59500000003027
312309.5797,-5.175899177114984,-0.7288901341491603,3.016482662187139,5.9995761283156925,66.59600000001956
312309.5807,-10.9456768609369,-8.795168991892265,-5.893824002301052,-4.603754844045947,66.59700000000885
312309.5817,-16.402618991529604,-16.420798438377204,-14.674587103075725,-14.77152033521163,66.59799999999814
312309.5827,-21.350554937959437,-23.361673466311192,-23.01614878901687,-24.17600179205002,66.59900000004563
312309.5837,-25.601295989244083,-29.38852684134868,-30.616896510377433,-32.50742878499006,66.60000000003492
312309.5847,-28.98442638554693,-34.297833795622836,-37.1973131666964,-39.488197016201944,66.60100000002421
312309.5857,-31.357424242355613,-37.92272410208529,-42.513975035570276,-44.88693170540724,66.6020000000135
312309.5867,-32.61534531633446,-40.14311152209691,-46.372586961056285,-48.531434702780295,66.6030000000028
312309.5877,-32.69925337370501,-40.89421939085924,-48.63912950190629,-50.31952861070485,66.60399999999208
312309.5887,-31.602607594817545,-40.17272512933011,-49.248257771890984,-50.22687321756186,66.60500000003958
312309.5897,-29.374921071188265,-38.03986566884635,-48.20823501565496,-48.310978310981916,66.60600000002887
312309.5907,-26.122178503805593,-34.62103266894087,-45.60189634074773,-44.71086367398971,66.60700000001816
312309.5917,-22.00373212512866,-30.10162675882208,-41.5834033692952,-39.642105245811344,66.60800000000745
312309.5927,-17.225663275821116,-24.71921412957553,-36.37084737755531,-33.3873331942676,66.60899999999674
312309.5937,-12.030879619374929,-18.75231329234352,-30.235061865340644,-26.28258587390257,66.61000000004424
312309.5947,-6.686489528343804,-12.506409864521657,-23.48528949401865,-18.700244422700667,66.61100000003353
312309.5957,-1.469231147349401,-6.2980288463988074,-16.45258837926198,-11.029548056322502,66.61200000002282
312309.5967,3.350087672394913,-0.43786605632996833,-9.472037907331242,-3.655895421389663,66.61300000001211
312309.5977,7.522077754235865,4.78592274260384,-2.8648992272132014,3.0597460768159226,66.6140000000014
312309.5987,10.833104231224786,9.123164427693021,3.078108007769832,8.799984453615748,66.61499999999069
312309.5997,13.117455328503441,12.374807044541015,8.11133387824519,13.307448264479817,66.61600000003818
312309.6007,14.266479446056191,14.402874748792291,12.045617625847532,16.397462365115462,66.61700000002747
312309.6017,14.234045084170845,15.13658473758586,14.755917582836549,17.966148090054176,66.61800000001676
312309.6027,13.037949359318397,14.57424726114116,16.184752439894975,17.993466095547387,66.61900000000605
312309.6037,10.757201136597875,12.780873064225727,16.341361108483536,16.54107860895886,66.61999999999534
312309.6047,7.525409087539248,9.881718809773384,15.296794589169258,13.74527144968407,66.62100000004284
312309.6057,3.5207881634594385,6.052285481160478,13.175434598287806,9.805516078310697,66.62200000003213
312309.6067,-1.0464628392155446,1.5055250277255927,10.143668443912865,4.969541794971376,66.62300000002142
312309.6077,-5.9484834447313055,-3.5228116025107585,6.396620576320574,-0.48399347636683654,66.62400000001071
312309.6087,-10.954743335819504,-8.78964892888621,2.1439371017108733,-6.264013642633814,66.625
312309.6097,-15.84665472918046,-14.05982562858492,-2.4043642209974605,-12.085458254416565,66.62599999998929
312309.6107,-20.4308179818839,-19.120096802146556,-7.0510270968933355,-17.686437626140606,66.62700000003679
312309.6117,-24.55004815368798,-23.791028946212226,-11.622851322946472,-22.843048465658153,66.62800000002608
312309.6127,-28.09152488447328,-27.936105366886565,-15.979511782950983,-27.381001141087978,66.62900000001537
312309.6137,-30.991644062710712,-31.467589508581632,-20.019485835234804,-31.183472449408573,66.63000000000466
312309.6147,-33.23740645900173,-34.3489442343798,-23.682910870722903,-34.19488822822936,66.63099999999395
312309.6157,-34.864434019738,-36.593855384832075,-26.951427700070102,-36.42063419972707,66.63200000004144
312309.6167,-35.95193817861546,-38.26213797579552,-29.84527647804261,-37.922967905953016,66.63300000003073
312309.6177,-36.615158518558246,-39.45299599543745,-32.418084232417065,-38.81363930711261,66.63400000002002
312309.6187,-36.99593088782264,-40.29624895349636,-34.74990524432387,-39.243906961037084,66.63500000000931
312309.6197,-37.25212346941745,-40.94222232139288,-36.93914123076741,-39.39275078021246,66.6359999999986
312309.6207,-37.54669501134083,-41.55102261412529,-39.093976724723,-39.454127549198795,66.6370000000461
312309.6217,-38.037084967735055,-42.28188450368612,-41.323920769780344,-39.62409431745213,66.63800000003539
312309.6227,-38.86554946873196,-43.283195396820396,-43.7319582240378,-40.08854576479924,66.63900000002468
312309.6237,-40.150922849467705,-44.683684669927615,-46.40769533627321,-41.01218754035023,66.64000000001397
312309.6247,-41.98212775409088,-46.58512507950632,-49.421749707964636,-42.529214343666325,66.64100000000326
312309.6257,-44.41359455235108,-49.056748522714145,-52.82149975575467,-44.73599642088635,66.64199999999255
312309.6267,-47.46259930098447,-52.131442307905296,-56.62818776758977,-47.68591796506288,66.64300000004005
312309.6277,-51.10840277733966,-55.80367806681176,-60.83527548871758,-51.38637020137128,66.64400000002934
312309.6287,-55.292981503851436,-60.02904241591584,-65.40788999986718,-55.79779161203155,66.64500000001863
312309.6297,-59.92309072415888,-64.72519095615608,-70.28317399085485,-60.8345740622055,66.64600000000792
312309.6307,-64.87338932725423,-69.77403482510951,-75.37136702145835,-66.36761766218861,66.6469999999972
312309.6317,-69.990383000101,-75.02498678530505,-80.55748697637605,-72.2283152101181,66.6480000000447
312309.6327,-75.09699530590069,-80.29913289288511,-85.70354377191094,-78.21377093297045,66.649000000034
312309.6337,-79.99764467747706,-85.3942446822384,-90.6512879444539,-84.0930969028576,66.65000000002328
312309.6347,-84.48377468575264,-90.09059302394246,-95.22556147589587,-89.61467144194079,66.65100000001257
312309.6357,-88.33984183968744,-94.15755652178878,-99.23836417940997,-94.51427484417961,66.65200000000186
312309.6367,-91.34979804682632,-97.36102494595943,-102.4937655924998,-98.52402863835434,66.65299999999115
312309.6377,-93.30410568669066,-99.47157581958724,-104.79377274997901,-101.38204863669182,66.65400000003865
312309.6387,-94.0072886203258,-100.27334849107017,-105.94520631765472,-102.84267684959738,66.65500000002794
312309.6397,-93.2859541452302,-99.57345833513787,-105.76754442868405,-102.68708559935419,66.65600000001723
312309.6407,-90.99712576257936,-97.21169227439742,-104.10157329531646,-100.73395618310519,66.65700000000652
312309.6417,-87.03661590026879,-93.07011754735771,-100.81854868777498,-96.84983555230835,66.65799999999581
312309.6427,-81.34705582436473,-87.08213299052326,-95.82943813078774,-90.95868172469469,66.6590000000433
312309.6437,-73.92510276549827,-79.24041127456145,-89.0936969874192,-83.0500370898508,66.6600000000326
312309.6447,-64.82727731262798,-69.60313574048236,-80.62694879037423,-73.1852326520402,66.66100000002189
312309.6457,-54.17386067603938,-58.29793814066098,-70.50690515505852,-61.50103716367874,66.66200000001118
312309.6467,-42.15031088558432,-45.523000838076115,-58.87688319023863,-48.2102303918806,66.66300000000047
312309.6477,-29.00574358671096,-31.544900645257055,-45.94636294808574,-33.59870138556928,66.66399999998976
312309.6487,-15.048165132106075,-16.692937429168488,-31.988172418776035,-18.01884654631737,66.66500000003725
312309.6497,-0.6363354164229512,-1.3498990654790757,-17.332084901696835,-1.8792586015441841,66.66600000002654
312309.6507,13.83163787289931,14.060549528468899,-2.354849567684109,14.369058938929957,66.66700000001583
312309.6517,27.93263086435895,29.089420302646403,12.533067637752568,30.24946570773367,66.66800000000512
312309.6527,41.235180850754126,43.280232266814316,26.90350017632004,45.27872235523607,66.66899999999441
312309.6537,53.31771692798906,56.188250048812556,40.32858936481278,58.987364452569715,66.67000000004191
312309.6547,63.787384508953146,67.40011310651502,52.399832378866186,70.94033549547618,66.6710000000312
312309.6557,72.2983998899974,76.55275493962442,62.74709162479755,80.75672343387036,66.67200000002049
312309.6567,78.56884155077968,83.35050573625429,71.05643740587558,88.1274472703255,66.67300000000978
312309.6577,82.39483645665547,87.57934686812136,77.085728477012,92.82982693440275,66.67399999999907
312309.6587,83.66123151991611,89.11743850755612,80.6769502673334,94.73813741140883,66.67500000004657
312309.6597,82.34804466663306,87.94126257085688,81.76452107661741,93.82948640431275,66.67600000003586
312309.6607,78.53225216860949,84.12699629173737,80.37902861942929,90.18464666090935,66.67700000002515
312309.6617,72.38476913205693,77.84703628565067,76.64615361988473,83.98379750010467,66.67800000001444
312309.6627,64.16279466831378,69.36190523196589,70.78085065733505,75.49745985782168,66.67900000000373
312309.6637,54.197997067382374,59.008068573931205,63.07716426086461,65.07321922557281,66.67999999999302
312309.6647,42.8812826678386,47.1824434636666,53.89433591945664,53.119096425527275,66.68100000004051
312309.6657,30.645103377392577,34.324576467745366,43.640083404513696,40.08462610389289,66.6820000000298
312309.6667,17.944395136157777,20.897585373683878,32.75209033663704,26.440821485946636,66.68300000001909
312309.6677,5.237292632027054,7.368995379269221,21.678820080463407,12.660232599107133,66.68400000000838
312309.6687,-7.033268770933442,-5.80745017391912,10.860759643758037,-0.8017571804642344,66.68499999999767
312309.6697,-18.456070085249433,-18.208053416323597,0.7131094193889302,-13.523397995220366,66.68600000004517
312309.6707,-28.665439183103473,-29.452743970649287,-8.389226606611055,-25.130022432259743,66.68700000003446
312309.6717,-37.351830780024,-39.215466391952546,-16.123712192643588,-35.30396257542183,66.68800000002375
312309.6727,-44.26886488826869,-47.23112872493408,-22.228925470769173,-43.79071533480643,66.68900000001304
312309.6737,-49.23681249906305,-53.299138467646934,-26.50985868043053,-50.40143121269598,66.69000000000233
312309.6747,-52.14277949315138,-57.283801349462976,-28.839902105401052,-55.012072295707114,66.69099999999162
312309.6757,-52.93806218966082,-59.11206511240915,-29.159864441241904,-57.559808907088396,66.69200000003912
312309.6767,-51.6333123938007,-58.76923841574738,-27.47455303654143,-58.03738307411481,66.6930000000284
312309.6777,-48.29224390171654,-56.29339332010434,-23.847546142140327,-56.48624904387461,66.6940000000177
312309.6787,-43.024630564533254,-51.769164464295706,-18.394829035123735,-52.989301989532386,66.69500000000698
312309.6797,-35.9792898259505,-45.32159188812637,-11.277936874276731,-47.66392878636227,66.69599999999627
312309.6807,-27.33762375096169,-37.11052695562226,-2.697156123737755,-40.655969488294666,66.69700000004377
312309.6817,-17.308116715195137,-27.325947157671056,7.114804118320424,-32.13498129674651,66.69800000003306
312309.6827,-6.1219845872399805,-16.184325116240586,17.8984324472501,-22.290969449464793,66.69900000002235
312309.6837,5.970043297245596,-3.9259916528178835,29.372274021579805,-11.332515331986212,66.70000000001164
312309.6847,18.700027826077196,9.186755601137573,41.23715168093058,0.513984541593944,66.70100000000093
312309.6857,31.7845924663526,22.871197636491473,53.18002147111768,13.004431815336696,66.70199999999022
312309.6867,44.92665881943795,36.82589042120568,64.87783796338734,25.877073461191877,66.70300000003772
312309.6877,57.81768602305236,50.733041568957255,76.00185058192059,38.853111952585344,66.70400000002701
312309.6887,70.14092958318089,64.26205997824732,86.22273434153159,51.63847845862,66.7050000000163
312309.6897,81.57614049403335,77.07466771208878,95.21687736168445,63.92726537669178,66.70600000000559
312309.6907,91.8059698565409,88.8318028313122,102.67401043021668,75.40714578733034,66.70699999999488
312309.6917,100.52414282154912,99.20233969214276,108.30618410298324,85.76688991614301,66.70800000004238
312309.6927,107.44523878975183,107.87342949254854,111.85789472081679,94.70584390022523,66.70900000003166
312309.6937,112.31568573025764,114.56204139618772,113.11695397252898,101.94498871870638,66.71000000002095
312309.6947,114.9253693960017,119.02708662422864,111.92551008152928,107.23897246402794,66.71100000001024
312309.6957,115.11909570552609,121.08135588162838,108.19048406657521,110.38833085945417,66.71199999999953
312309.6967,112.8070453550458,120.60241177221553,101.89260015298672,111.25099860179172,66.71299999998882
312309.6977,107.97333675548025,117.54156406822909,93.0931782371008,109.75218114140556,66.71400000003632
312309.6987,100.68187241589733,111.93012143322619,81.93792441202596,105.89170880546764,66.71500000002561
312309.6997,91.07878282697733,103.88225549111476,68.65710133608448,99.74813046152299,66.7160000000149
312309.7007,79.39099089274204,93.59402166199553,53.56167431532811,91.47901194268337,66.71700000000419
312309.7017,65.92068228288872,81.33833917133785,37.03529501794894,81.31716790603136,66.71799999999348
312309.7027,51.035760645022634,67.45601839918415,19.522280817946914,69.56285197002431,66.71900000004098
312309.7037,35.15666603974771,52.34321269298664,1.51204840757399,56.57223294099928,66.72000000003027
312309.7047,18.740213923579706,36.43593873566119,-16.47926110898822,42.74276798514215,66.72100000001956
312309.7057,2.261345706206274,20.192531084161732,-33.92899719626805,28.496321755619256,66.72200000000885
312309.7067,-13.806150623934467,4.075053019423738,-50.32892410554864,14.261052820466608,66.72299999999814
312309.7077,-29.008805279992785,-11.469236472908864,-65.20564559266697,0.4531802926645529,66.72400000004563
312309.7087,-42.93137575839222,-26.025267811178843,-78.13933625954408,-12.540253326407486,66.72500000003492
312309.7097,-55.21245207434418,-39.225399260733376,-88.77969330780424,-24.3765921408717,66.72600000002421
312309.7107,-65.55688462430332,-50.76167970379623,-96.85821469325042,-34.76988385812535,66.7270000000135
312309.7117,-73.74440231683276,-60.39453817846165,-102.19617054144207,-43.499667985346065,66.7280000000028
312309.7127,-79.6340753508017,-67.957575396289,-104.70794219779879,-50.415873656593405,66.72899999999208
312309.7137,-83.16458440972013,-73.35842267463254,-104.39973127314309,-55.439759662859615,66.73000000003958
312309.7147,-84.35055951987229,-76.57591628316015,-101.36396162741903,-58.56111767002343,66.73100000002887
312309.7157,-83.27552162072979,-77.65408603409216,-95.76998340557472,-59.83221770898856,66.73200000001816
312309.7167,-80.08217541228412,-76.69365523109906,-87.85191636497481,-59.35918151216452,66.73300000000745
312309.7177,-74.9609458891719,-73.84187916330362,-77.89462170334278,-57.29160804569576,66.73399999999674
312309.7187,-68.13771254104206,-69.28160204609479,-66.2188564349216,-53.811337117064035,66.73500000004424
312309.7197,-59.86167158668787,-63.220385813284935,-53.166639144715866,-49.12121901055408,66.73600000003353
312309.7207,-50.39415280140035,-55.88046395500663,-39.087745947198655,-43.43466587031274,66.73700000002282
312309.7217,-39.99904582533023,-47.49011191009154,-24.328073536181293,-36.96660588882013,66.73800000001211
312309.7227,-28.935269762148348,-38.276820097447725,-9.220371457642088,-29.926261620295865,66.7390000000014
312309.7237,-17.451472189116423,-28.462428007296214,5.922418301334275,-22.51195002416448,66.73999999999069
312309.7247,-5.782894360081009,-18.260151058853207,20.811243931225064,-14.907876957589032,66.74100000003818
312309.7257,5.849886866216998,-7.87322882624522,35.18272387297838,-7.282695114235284,66.74200000002747
312309.7267,17.24081083650609,2.5052362950658096,48.79910054703721,0.2105683953934844,66.74300000001676
312309.7277,28.197367414041487,12.691781511245894,61.44698196892454,7.433715202661045,66.74400000000605
312309.7287,38.53944713687144,22.51199110759527,72.9355488206744,14.26225091769494,66.74499999999534
312309.7297,48.09860797929627,31.80033502085892,83.09488892299478,20.584446571258898,66.74600000004284
312309.7307,56.71825420951755,40.40086138275957,91.77503008106972,26.301009575340306,66.74700000003213
312309.7317,64.2550570021548,48.16900950015472,98.84608711854256,31.325644396274793,66.74800000002142
312309.7327,70.58173862515903,54.974617803949165,104.19973720489013,35.58660465044019,66.74900000001071
312309.7337,75.59111539300815,60.705995557681696,107.75201171476492,39.02914540575378,66.75
312309.7347,79.20107469014995,65.27473107467164,109.447167772372,41.61859987477604,66.75099999998929
312309.7357,81.35997342376606,68.62074570940389,109.26220330372767,43.343650657832946,66.75200000003679
312309.7367,82.05181147288778,70.71699173922052,107.21142829188233,44.21926154435696,66.75300000002608
312309.7377,81.30047086155743,71.57314795134162,103.350419569006,44.28869581633663,66.75400000001537
312309.7387,79.17232899130742,71.23769688412017,97.77867766938068,43.62407844676147,66.75500000000466
312309.7397,75.77665335715024,69.79787193283906,90.64037479328616,42.32506219762259,66.75599999999395
312309.7407,71.26335804684113,67.37713258105808,82.1227271817177,40.515323092241644,66.75700000004144
312309.7417,65.81793322210063,64.13004621313019,72.45172965704049,38.33682349807995,66.75800000003073
312309.7427,59.653625400445684,60.23470386801863,61.88523465340579,35.94201977851562,66.75900000002002
312309.7437,53.00122209470589,55.8830498425555,50.70361811962613,33.484431221577545,66.76000000000931
312309.7447,46.09705103083445,51.269735109970654,39.198523600768745,31.108201782059847,66.7609999999986
312309.7457,39.17001486150212,46.58028758661243,27.660387712288887,28.9374518584093,66.7620000000461
312309.7467,32.42862420503308,41.97950804174779,16.3656026483812,27.06631396668593,66.76300000003539
312309.7477,26.04904858778762,37.60103491122595,5.564247586092034,25.55056036518293,66.76400000002468
312309.7487,20.165168234071217,33.53896828243348,-4.530688406929864,24.401657033755153,66.76500000001397
312309.7497,14.861480475757492,29.842305248430797,-13.751764919143017,23.583920250288685,66.76600000000326
312309.7507,10.169502753583021,26.512726474515404,-21.982577335438805,23.015221200766067,66.76699999999255
312309.7517,6.068037829479878,23.50600540032235,-29.15985702189115,22.57139996849678,66.76800000004005
312309.7527,2.4873504611755526,20.737010941899555,-35.27204769960554,22.094237919221175,66.76900000002934
312309.7537,-0.6830229376232196,18.087969205165148,-40.35451535429108,21.402525289814463,66.77000000001863
312309.7547,-3.583419187228847,15.419367705545945,-44.4818312728997,20.305477658162964,66.77100000000792
312309.7557,-6.370997187169467,12.582653115292361,-47.75781170700193,18.61752770485995,66.7719999999972
312309.7567,-9.205530521290722,9.433712389295074,-50.30418049790952,16.173369311015517,66.7730000000447
312309.7577,-12.235184840612268,5.846052473701339,-52.24882585365069,12.84207473686728,66.774000000034
312309.7587,-15.583423598484396,1.7226129088943942,-53.71463987041657,8.539149212679146,66.77500000002328
312309.7597,-19.338089274294525,-2.99474294069297,-54.80985817336407,3.2355285316564513,66.77600000001257
312309.7607,-23.54352058118762,-8.318818511608784,-55.620664402570924,-3.0372469221862777,66.77700000000186
312309.7617,-28.19630635272393,-14.214258329750198,-56.2066049696941,-10.186152811184291,66.77799999999115
312309.7627,-33.24496746841497,-20.598507521979325,-56.599094433853146,-18.060229258927084,66.77900000003865
312309.7637,-38.59352723568342,-27.34644319880202,-56.80300589158221,-26.458338597698965,66.78000000002794
312309.7647,-44.10860766449267,-34.2982627451426,-56.801060448616234,-35.14057903209475,66.78100000001723
312309.7657,-49.62940248826221,-41.26995215820131,-56.56048071775645,-43.84251105729552,66.78200000000652
312309.7667,-54.979652293872455,-48.06545783061773,-56.04117763182331,-52.291133513342416,66.78299999999581
312309.7677,-59.980601465650075,-54.489564076162594,-55.20461461058901,-60.22141431381909,66.7840000000433
312309.7687,-64.46386200943331,-60.36044535513422,-54.022448420794184,-67.39214768078706,66.7850000000326
312309.7697,-68.28314847003408,-65.52091764898947,-52.48408448108223,-73.59997701841452,66.78600000002189
312309.7707,-71.3239753681831,-69.84755084640992,-50.60240079951375,-78.69058352062426,66.78700000001118
312309.7717,-73.5106103636014,-73.25700923384251,-48.41707708359667,-82.56628038186435,66.78800000000047
312309.7727,-74.80983282388225,-75.70924036891572,-45.995195962210225,-85.18954961273194,66.78899999998976
312309.7737,-75.23133433553672,-77.20741004856919,-43.42903981598893,-86.58238686895142,66.79000000003725
312309.7747,-74.82488849272758,-77.7947574420647,-40.831265581489816,-86.82165101636592,66.79100000002654
312309.7757,-73.67468591453711,-77.54879513158647,-38.32787746961917,-86.03092125140758,66.79200000001583
312309.7767,-71.89145343508599,-76.57348211533926,-36.049612595875466,-84.36962006854024,66.79300000000512
312309.7777,-69.60313512287786,-74.99013696289126,-34.122490111866654,-82.02034473220404,66.79399999999441
312309.7787,-66.94499495767127,-72.92792276128807,-32.65833937388723,-79.17544936349634,66.79500000004191
312309.7797,-64.0500017791638,-70.51472190703653,-31.746112522996018,-76.02392828932722,66.7960000000312
312309.7807,-61.04027940209587,-67.86913118486352,-31.444704166832498,-72.7395711427238,66.79700000002049
312309.7817,-58.02025876191022,-65.09415678087846,-31.77785495224964,-69.47120144854865,66.79800000000978
312309.7827,-55.071971026671996,-62.272991475019175,-32.731521772917546,-66.33559000367062,66.79899999999907
312309.7837,-52.25269173624556,-59.467032869877755,-34.2538745101361,-63.41337432942009,66.80000000004657
312309.7847,-49.594909595339956,-56.71607477864608,-36.257849265451526,-60.74804089169838,66.80100000003586
312309.7857,-47.108373046358,-54.04039623843339,-38.62597294885329,-58.34776327980082,66.80200000002515
312309.7867,-44.78378445534868,-51.44430404444689,-41.216993852165594,-56.18966086490595,66.80300000001444
312309.7877,-42.59758262348338,-48.92057084612311,-43.87372359837954,-54.2258682651431,66.80400000000373
312309.7887,-40.51719039716974,-46.455161442192406,-46.431428307708934,-52.39069994447407,66.80499999999302
312309.7897,-38.50610942565585,-44.03165787720964,-48.726105218171845,-50.60816306798171,66.80600000004051
312309.7907,-36.528315371017406,-41.63487516752401,-50.60204284485705,-48.799114352245525,66.8070000000298
312309.7917,-34.55153407870427,-39.2532933479955,-51.918179193583555,-46.887464858649444,66.80800000001909
312309.7927,-32.549146713254,-36.88010209311322,-52.552929382938856,-44.804996054623714,66.80900000000838
312309.7937,-30.500660127308738,-34.512841914616104,-52.40733337186634,-42.49454205300072,66.80999999999767
312309.7947,-28.390866485789825,-32.151809881741016,-51.40655665717538,-39.911495313044924,66.81100000004517
312309.7957,-26.207982639558352,-29.797557699961057,-49.49994241423316,-37.023784622632036,66.81200000003446
312309.7967,-23.94118681811527,-27.44792841164747,-46.65994550834899,-33.8106352399566,66.81300000002375
312309.7977,-21.578044255253314,-25.095142150091363,-42.88036399218615,-30.260535913029422,66.81400000001304
312309.7987,-19.102326558109155,-22.72344436557703,-38.17431425344469,-26.368895728512644,66.81500000000233
312309.7997,-16.49268070865423,-20.307771356371973,-32.57236996322666,-22.135871219829188,66.81599999999162
312309.8007,-13.722497899364598,-17.81377390797768,-26.12120653970644,-17.564783233246036,66.81700000003912
312309.8017,-10.76118135331114,-15.199382369907111,-18.88297171422087,-12.66143216995153,66.8180000000284
312309.8027,-7.576832154036245,-12.41791222347183,-10.93545327023673,-7.4344730041380025,66.8190000000177
312309.8037,-4.140182452276924,-9.422517722824814,-2.3729545290548475,-1.8968452334212367,66.82000000000698
312309.8047,-0.4294270458320714,-6.171623120171965,6.692364584479908,3.9319131457147365,66.82099999999627
312309.8057,3.5645427630675552,-2.634815820167837,16.129049911033565,10.02278531690567,66.82200000004377
312309.8067,7.83309782872251,1.2014100174119462,25.78527317828335,16.334257099242542,66.82300000003306
312309.8077,12.345654993880416,5.328705717841581,35.48859643622597,22.80964922232366,66.82400000002235
312309.8087,17.046889305278444,9.713330570022348,45.04704043335992,29.375292909600503,66.82500000001164
312309.8097,21.855881389218776,14.294541278115393,54.25183045646385,35.93998537159972,66.82600000000093
312309.8107,26.667550481289176,18.985269265651546,62.88205414755834,42.39605108355298,66.82699999999022
312309.8117,31.356520900322746,23.675246219456493,70.71128593332716,48.62217960241936,66.82800000003772
312309.8127,35.78333913194546,28.236511447199316,77.51602869651067,54.488026570223134,66.82900000002701
312309.8137,39.80272200805346,32.53100286019926,83.08561508405589,59.86037030187947,66.8300000000163
312309.8147,43.27329689666349,36.419719093683426,87.23301954009152,64.61043237339308,66.83100000000559
312309.8157,46.06811456776369,39.772764736590126,89.80587811222077,68.6218167998547,66.83199999999488
312309.8167,48.08509354596361,42.47947195668462,90.69691376835547,71.79841602690938,66.83300000004238
312309.8177,49.25650528074204,44.45774304618346,89.85293312088686,74.0715859280082,66.83400000003166
312309.8187,49.556639758344986,45.66178625848009,87.28160268184419,75.40591331420858,66.83500000002095
312309.8197,49.006901183187686,46.0875212745104,83.05532866584232,75.80298841759061,66.83600000001024
312309.8207,47.67776538672278,45.77510299793546,77.31174635408235,75.30274480565345,66.83699999999953
312309.8217,45.68726996443521,44.80823878522312,70.25055897076646,73.98212727338239,66.83799999998882
312309.8227,43.19598435511267,43.31023499981813,62.12673239574079,71.9510763557202,66.83900000003632
312309.8237,40.398695883055396,41.436980781184296,53.24032781725173,69.3460547519601,66.84000000002561
312309.8247,37.513323368669525,39.36733569357243,43.92351528434545,66.32156347799949,66.8410000000149
312309.8257,34.76780739848352,37.29161007279817,34.52553378092712,63.040282354903134,66.84200000000419
312309.8267,32.38590418671278,35.39899232472015,25.3965279757438,59.66260215850203,66.84299999999348
312309.8277,30.572912009935685,33.86487125779245,16.871283522968543,56.336381170181255,66.84400000004098
312309.8287,29.502376228822374,32.8390154615369,9.253893647968889,53.18775019875715,66.84500000003027
312309.8297,29.30474945137612,32.435504802898734,2.8043190332346932,50.31370769119444,66.84600000001956
312309.8307,30.058833777606207,32.72516765890264,-2.2723427052944882,47.77709763065131,66.84700000000885
312309.8317,31.786615748730707,33.731074516831455,-5.833269262424191,45.60436108330125,66.84799999999814
312309.8327,34.45184081141593,35.427392340318264,-7.801650053820944,43.7862159106676,66.84900000004563
312309.8337,37.96238588466194,37.74163643417867,-8.166662133007113,42.281169769855545,66.85000000003492
312309.8347,42.17620075941469,40.56009071738286,-6.979872454053408,41.02153152799235,66.85100000002421
312309.8357,46.91032575305317,43.7359259316259,-4.34850097294537,39.92137696138857,66.8520000000135
312309.8367,51.952275721905494,47.09934828752785,-0.4261831193803812,38.885764397238425,66.8530000000028
312309.8377,57.07292607340422,50.46897391433607,4.597984851357266,37.82039845357781,66.85399999999208
312309.8387,62.039955772446504,53.663557139763306,10.51125811204576,36.64091314793707,66.85500000003958
312309.8397,66.63089979530012,56.51320667269181,17.089050280144257,35.28099094665567,66.85600000002887
312309.8407,70.64493654305453,58.86930035243595,24.10593908620348,33.6986470482184,66.85700000001816
312309.8417,73.91267554583334,60.61244744801529,31.345202866446144,31.880177773341668,66.85800000000745
312309.8427,76.30340317468176,61.65803369293943,38.60639639356493,29.841483023106193,66.85899999999674
312309.8437,77.7294708577291,61.95910077862579,45.710681754316475,27.626706595658536,66.86000000004424
312309.8447,78.14775095973941,61.50653924432584,52.503848642348856,25.304374138307846,66.86100000003353
312309.8457,77.55831894719178,60.326791537261435,58.857168650920556,22.96142597551276,66.86200000002282
312309.8467,76.00072683893343,58.477451730329115,64.6664111690153,20.695721933041284,66.86300000001211
312309.8477,73.54839519724995,56.04129413105172,69.84948829092431,18.60772172956534,66.8640000000014
312309.8487,70.30175628079667,53.119353194543905,74.34328085383683,16.79210627350081,66.86499999999069
312309.8497,66.38082206330476,49.82370541631552,78.10022064201111,15.330096662324404,66.86600000003818
312309.8507,61.917826265307696,46.270569704591225,81.08516415983219,14.283149461047874,66.86700000002747
312309.8517,57.05050420338584,42.57425149358111,83.27299649721442,13.688565922487513,66.86800000001676
312309.8527,51.91643880519321,38.842318375369835,84.64726075299845,13.55736210185649,66.86900000000605
312309.8537,46.648731110520956,35.17222656828027,85.19993513300935,13.874524109121413,66.86999999999534
312309.8547,41.37306792845743,31.64943637733855,84.9322954591964,14.601539208679512,66.87100000004284
312309.8557,36.20607854672413,28.34688042323432,83.85662617079677,15.68087174621041,66.87200000003213
312309.8567,31.254716450540375,25.32549954652953,81.99839808868481,17.04186488422452,66.87300000002142
312309.8577,26.616288215808975,22.635453948696448,79.39843356497968,18.60741389959963,66.87400000001071
312309.8587,22.37869285400037,20.31756288420076,76.11454168852443,20.300688494417678,66.875
312309.8597,18.62043762898466,18.404530885779675,72.22213418090831,22.051187885346586,66.87599999998929
312309.8607,15.410060553062959,16.921581408934784,67.81342548348385,23.799493604930802,66.87700000003679
312309.8617,12.80470815491698,15.88623268163648,62.99496990909301,25.5002335081815,66.87800000002608
312309.8627,10.847776020393763,15.307102290016717,57.88347950697269,27.122971818158046,66.87900000001537
312309.8637,9.565700300239167,15.181798876452806,52.600078094121834,28.6509737340173,66.88000000000466
312309.8647,8.964169036876207,15.494130803597091,47.26335619540065,30.078034912073292,66.88099999999395
312309.8657,9.024180268726546,16.21101177713044,41.981774208816375,31.403790412294523,66.88200000004144
312309.8667,9.698488745793895,17.27955309455273,36.84609479844784,32.628100213835104,66.88300000003073
312309.8677,10.909038285430881,18.624886310844047,31.922592702846664,33.74522882658195,66.88400000002002
312309.8687,12.545962073320476,20.14924943774975,27.247779879225714,34.73858073726644,66.88500000000931
312309.8697,14.468645873624181,21.73279210325697,22.825293304736434,35.57671511927265,66.8859999999986
312309.8707,16.509194519115958,23.236415633154074,18.62542757372453,36.211244720241325,66.8870000000461
312309.8717,18.47843327773093,24.506775094389372,14.58756865190664,36.577035957290455,66.88800000003539
312309.8727,20.174332302450683,25.383350182558104,10.625519703190193,36.594888335773916,66.88900000002468
312309.8737,21.392488486553557,25.707262734862653,6.635430580097258,36.17660537406801,66.89000000001397
312309.8747,21.93806086828376,25.33130465847366,2.505777369755807,35.23210348605829,66.89100000000326
312309.8757,21.638358804129375,24.130464464909494,-1.8713853802957727,33.677967355312354,66.89199999999255
312309.8767,20.35514863525803,22.01212342297002,-6.588835737409537,31.446675344080795,66.89300000004005
312309.8777,17.99569092134302,18.925048197669067,-11.713270543683798,28.495606399916916,66.89400000002934
312309.8787,14.52155534634396,14.86634331409344,-17.27606178031773,24.81491351120244,66.89500000001863
312309.8797,9.954384331533776,9.885643542941851,-23.266568492940166,20.433412220367714,66.89600000000792
312309.8807,4.37798067364462,4.086015035149023,-29.628695280618103,15.42178123754099,66.8969999999972
312309.8817,-2.0636374069829726,-2.3787208115863723,-36.261126234680894,9.892592520496036,66.8980000000447
312309.8827,-9.172261589774465,-9.310246490867891,-43.021356813744326,3.996959880082777,66.899000000034
312309.8837,-16.70532457758796,-16.475305851687885,-49.733323270118476,-2.0821072461208487,66.90000000002328
312309.8847,-24.38895541246699,-23.618000918505533,-56.1981193178998,-8.139262723230472,66.90100000001257
312309.8857,-31.933413284318807,-30.474035911791685,-62.20702092875857,-13.95864756313246,66.90200000000186
312309.8867,-39.049856753835705,-36.78594553372713,-67.55583670273836,-19.327119832390267,66.90299999999115
312309.8877,-45.46729228063911,-42.318251793766265,-72.05948124444117,-24.04789475984455,66.90400000003865
312309.8887,-50.94852713198573,-46.87148725589539,-75.565642625651,-27.953548550658706,66.90500000002794
312309.8897,-55.30402836828066,-50.294103072848266,-77.96648392784114,-30.917379318314126,66.90600000001723
312309.8907,-58.40275421342913,-52.49144010721807,-79.2074759734614,-32.862244695899236,66.90700000000652
312309.8917,-60.179261420013525,-53.431166281584744,-79.29268877919797,-33.76619592190921,66.90799999999581
312309.8927,-60.63668063107126,-53.14485284658846,-78.28615180413303,-33.664483788593024,66.9090000000433
312309.8937,-59.84546545612355,-51.7256526263015,-76.30920232083388,-32.647799406648055,66.9100000000326
312309.8947,-57.9381325830067,-49.322329236450315,-73.53405003956279,-30.85690652921257,66.91100000002189
312309.8957,-55.100493238517394,-46.13014353017661,-70.174068074641,-28.474096536150856,66.91200000001118
312309.8967,-51.56010758406411,-42.379311126423985,-66.47155225477928,-25.7121289254565,66.91300000000047
312309.8977,-47.572855548911335,-38.32188697902374,-62.68385467634922,-22.80149065668628,66.91399999998976
312309.8987,-43.40859948159916,-34.2180001931434,-59.06888203618324,-19.97690442961421,66.91500000003725
312309.8997,-39.33691288731118,-30.322352489381693,-55.870950948016436,-17.464033521064703,66.91600000002654
312309.9007,-35.61377018874742,-26.87181176992429,-53.30791502917366,-15.46727103161876,66.91700000001583
312309.9017,-32.469946642176076,-24.07478945406303,-51.56033285408229,-14.159373079512127,66.91800000000512
312309.9027,-30.101682554814328,-22.10290296814101,-50.76324833878277,-13.673513189229736,66.91899999999441
312309.9037,-28.66394272539304,-21.085212604585447,-51.000925992909124,-14.098117629726108,66.92000000004191
312309.9047,-28.266372953981566,-21.10510572615817,-52.304644720880674,-15.474609797497607,66.9210000000312
312309.9057,-28.97184211534382,-22.199700922648276,-54.653426988947594,-17.797967119183422,66.92200000002049
312309.9067,-30.79727933575647,-24.36147735395682,-57.977384232118496,-21.019795710314675,66.92300000000978
312309.9077,-33.71638530997675,-27.541712878506516,-62.163209207340394,-25.053471877051074,66.92399999999907
312309.9087,-37.66372299186811,-31.65524596580134,-67.06125107227912,-29.780796209968134,66.92500000004657
312309.9097,-42.53967768447501,-36.586062218638425,-72.49357274562341,-35.05956044405061,66.92600000003586
312309.9107,-48.21581560766222,-42.19324224488364,-78.26241005769502,-40.73143845072145,66.92700000002515
312309.9117,-54.54025352834492,-48.31688431803787,-84.15852042576057,-46.62967418050304,66.92800000001444
312309.9127,-61.342766025016054,-54.7837197423216,-89.96901313576714,-52.586140054958605,66.92900000000373
312309.9137,-68.43948497002464,-61.41225597874282,-95.48437888971492,-58.43746505104226,66.92999999999302
312309.9147,-75.63717080655232,-68.01739693394319,-100.50456716909171,-64.03006689203286,66.93100000004051
312309.9157,-82.73714143097381,-74.41458728237214,-104.84408096855044,-69.22405196968144,66.9320000000298
312309.9167,-89.5390192182848,-80.42359709203448,-108.33615667033126,-73.89605635112827,66.93300000001909
312309.9177,-95.84449151988466,-85.87209719369316,-110.83616293599646,-77.94118116047598,66.93400000000838
312309.9187,-101.4612715351442,-90.59917221022508,-112.2243815900348,-81.27421961323067,66.93499999999767
312309.9197,-106.20739692577045,-94.45887931755152,-112.40832543573367,-83.83037949050156,66.93600000004517
312309.9207,-109.91592008736096,-97.32389345045695,-111.32470725785376,-85.56567692282893,66.93700000003446
312309.9217,-112.4399379942505,-99.0891941740657,-108.9411093594094,-86.45712212817604,66.93800000002375
312309.9227,-113.65779525515295,-99.67565852086307,-105.25732517044432,-86.50274545780269,66.93900000001304
312309.9237,-113.47818699668494,-99.03334130094383,-100.30626661158475,-85.72143486688127,66.94000000000233
312309.9247,-111.84480350294868,-97.14416258091953,-94.1542658866416,-84.15248631059134,66.94099999999162
312309.9257,-108.7401090958192,-94.02369186165895,-86.90055964500387,-81.85471811870032,66.94200000003912
312309.9267,-104.18784281736218,-89.72172719527535,-78.6757356119165,-78.9049782914212,66.9430000000284
312309.9277,-98.2538725909626,-84.32141794968119,-69.6389515737916,-75.39588555891643,66.9440000000177
312309.9287,-91.04512680934613,-77.93677021953874,-59.97380422515137,-71.43269236898641,66.94500000000698
312309.9297,-82.70646134666974,-70.70849726184125,-49.88282629381576,-67.129237544412,66.94599999999627
312309.9307,-73.41548441347709,-62.7983227892663,-39.58071559083236,-62.60306060385519,66.94700000004377
312309.9317,-63.37554104721078,-54.38199817734663,-29.286536578013017,-57.96986734146577,66.94800000003306
312309.9327,-52.807235387049104,-45.64143940423675,-19.215268698799814,-53.33765325000055,66.94900000002235
312309.9337,-41.93902348918895,-36.756509335552906,-9.56919020484502,-48.8008926238985,66.95000000001164
312309.9347,-30.9975247447169,-27.89705075177367,-0.5296665069764179,-44.43527207953933,66.95100000000093
312309.9357,-20.19826148392549,-19.21580340290789,7.750054289665089,-40.293475396174344,66.95199999999022
312309.9367,-9.737534317516483,-10.842807057331054,15.15045746022967,-36.40250341898364,66.95300000003772
312309.9377,0.2139286680923594,-2.8818002829988765,21.589287899231344,-32.76293469624226,66.95400000002701
312309.9387,9.51504484549681,4.591024058015055,27.022620523425672,-29.350401722296397,66.9550000000163
312309.9397,18.055857545724045,11.525740547000506,31.443291420736113,-26.119382220893044,66.95600000000559
312309.9407,25.756339089327376,17.89494959450923,34.87672209669228,-23.00919838699202,66.95699999999488
312309.9417,32.56268095299037,23.687868277573997,37.37439984162286,-19.951897387200855,66.95800000004238
312309.9427,38.441482464319954,28.90277480102843,39.00550175364134,-16.881474544523538,66.95900000003166
312309.9437,43.3724695153287,33.538519873796176,39.84734637115696,-13.743718283313308,66.96000000002095
312309.9447,47.340545711467605,37.58595673987233,39.97550449294203,-10.50582366367957,66.96100000001024
312309.9457,50.328081226025965,41.020209829849506,39.4544822283438,-7.164856423557509,66.96199999999953
312309.9467,52.308366049749715,43.79468908451187,38.329892490900356,-3.754163825936997,66.96299999998882
312309.9477,53.2410880045337,45.83765897798315,36.62295060143477,-0.34692744481818427,66.96400000003632
312309.9487,53.070543457987306,47.05199181900277,34.32796757309734,2.9437662185704765,66.96500000002561
312309.9497,51.72705985615954,47.31848538065124,31.413280948463896,5.968709149940497,66.9660000000149
312309.9507,49.131821192434394,46.502823593040766,27.825774864046267,8.550275151577308,66.96700000000419
312309.9517,45.20496371513842,44.46592978458893,23.498821320373537,10.493773066110409,66.96799999999348
312309.9527,39.87647713724491,41.07713225941449,18.363150395952054,11.601841954112107,66.96900000004098
312309.9537,33.09913582073188,36.22926065331953,12.359856967334817,11.690970030996521,66.97000000003027
312309.9547,24.862423655179555,29.854546153297598,5.454503110394284,10.608965412742007,66.97100000001956
312309.9557,15.206231188646282,21.94003331575028,-2.3488969027344466,8.25203483484035,66.97200000000885
312309.9567,4.233013985722896,12.541144081914982,-10.99529954760788,4.580056001220064,66.97299999999814
312309.9577,-7.882880310163068,1.7920762878129681,-20.368724913955994,-0.3713282502082929,66.97400000004563
312309.9587,-20.889878450442254,-10.088128639863742,-30.28614444121234,-6.483007768956771,66.97500000003492
312309.9597,-34.458767508091384,-22.79475839934417,-40.49604972129124,-13.550042606646329,66.97600000002421
312309.9607,-48.18779882252142,-35.94240983102561,-50.68226384766659,-21.285230745918877,66.9770000000135
312309.9617,-61.61351346251636,-49.07593761295008,-60.47316975962396,-29.328773802071264,66.9780000000028
312309.9627,-74.227059818502,-61.68709495550968,-69.45611047611423,-37.26375223301124,66.97899999999208
312309.9637,-85.49533732318639,-73.23615297135692,-77.19629755541816,-44.63666805259902,66.98000000003958
312309.9647,-94.88589545516065,-83.17738501489865,-83.25918100641658,-50.98189931397465,66.98100000002887
312309.9657,-101.8941779602546,-90.98697097206718,-87.23491862857774,-55.84857160077279,66.98200000001816
312309.9667,-106.07145789052441,-96.19164214816772,-88.76336288258574,-58.828116962889304,66.98300000000745
312309.9677,-107.05168165362939,-98.39627059817185,-87.55787901085912,-59.58068161926577,66.98399999999674
312309.9687,-104.57544258336861,-97.30861878790819,-83.42633008685516,-57.85857168128203,66.98500000004424
312309.9697,-98.50943889939616,-92.75960737463076,-76.28771347736215,-53.52509122880202,66.98600000003353
312309.9707,-88.860028829399,-84.71772116698749,-66.18319884215151,-46.567417985922134,66.98700000002282
312309.9717,-75.7798584560778,-73.29653672687746,-53.280680511743256,-37.102556738375974,66.98800000001211
312309.9727,-59.56697822203706,-58.75479220659735,-37.872389006047264,-25.375878924187155,66.9890000000014
312309.9737,-40.65634833953335,-41.48889761853299,-20.365573960959086,-11.752261803995708,66.98999999999069
312309.9747,-19.604124493168754,-22.01826551754022,-1.2667373098786876,3.299657402844128,66.99100000003818
312309.9757,2.9344242414863753,-0.96429177245393,18.839675046261846,19.229137280923545,66.99200000002747
312309.9767,26.232117986702917,20.97579947923,39.31685558931069,35.42954064530158,66.99300000001676
312309.9777,49.520640515440256,43.058740823916935,59.50396174208317,51.267462528595246,66.99400000000605
312309.9787,72.02315019431045,64.52695081947806,78.74550986709858,66.11299432384396,66.99499999999534
312309.9797,92.9869307922432,84.64046369664864,96.42013690484424,79.36932446007332,66.99600000004284
312309.9807,111.71435003819994,102.70737889086303,111.96712880984325,90.49999095146377,66.99700000003213
312309.9817,127.59057399218722,118.11132391016679,124.90932383176258,99.05233342661981,66.99800000002142
312309.9827,140.10676184679286,130.3346900521949,134.87129658582492,104.67601838747987,66.99900000001071
312309.9837,148.87781216581382,138.97673250856243,141.59208806784486,107.13590080155384,67.0
312309.9847,153.6541166389202,143.76599432932778,144.9321355154171,106.31890273320965,67.00099999998929
312309.9857,154.32716840318108,144.5668860810595,144.87444145123732,102.23499961140786,67.00200000003679
312309.9867,150.92923749592364,141.3805998903972,141.52037249262028,95.01277329416712,67.00300000002608
312309.9877,143.62763894770998,134.34083223531397,135.08076943215315,84.89029008909192,67.00400000001537
312309.9887,132.71435884871687,123.70501508138379,125.86326149893718,72.20227093408627,67.00500000000466
312309.9897,118.59195803102948,109.8418984469002,114.2567988337439,57.36462913621395,67.00599999999395
312309.9907,101.75673830243545,93.21638650491765,100.7144463224439,40.857457695320115,67.00700000004144
312309.9917,82.78013767452468,74.37250956751457,85.73542603710635,23.207462444220223,67.00800000003073
312309.9927,62.2892316852455,53.9153287659757,69.84726923844283,4.970676717674627,67.00900000002002
312309.9937,40.94707660274133,32.49243754272526,53.58876254553541,-13.283917859700095,67.01000000000931
312309.9947,19.433459533580926,10.775566118419842,37.49417020461606,-30.98947379949128,67.0109999999986
312309.9957,-1.5735561855225617,-10.557365431832736,22.079009864421444,-47.59490103156436,67.0120000000461
312309.9967,-21.41506244051986,-30.839542057446405,7.827475510789307,-62.57706541030945,67.01300000003539
312309.9977,-39.467613010046264,-49.431800113406055,-4.818543326167104,-75.45174115581315,67.01400000002468
312309.9987,-55.15838340659366,-65.73838943148371,-15.468989817002404,-85.78357436146652,67.01500000001397
312309.9997,-67.9791892286837,-79.22192524337227,-23.793894947381887,-93.19532216776877,67.01600000000326
312310.0007,-77.49934524364032,-89.41746614802324,-29.530519344234,-97.3765724736223,67.01699999999255
312310.0017,-83.3772822474491,-95.9455776342115,-32.489475483275214,-98.09203397988735,67.01800000004005
312310.0027,-85.37074554275479,-98.52413975631791,-32.55982538388332,-95.18933431375157,67.01900000002934
312310.0037,-83.3452954336948,-96.97855032607049,-29.71303585287836,-88.60609763605166,67.02000000001863
312310.0047,-77.28073584224623,-91.2498805919684,-24.00556523294853,-78.37591679216044,67.02100000000792
312310.0057,-67.27503064279185,-81.40047696785862,-15.579771058434895,-64.63271189203816,67.0219999999972
312310.0067,-53.54524424479607,-67.61648489562567,-4.662782652015772,-47.612896609716934,67.0230000000447
312310.0077,-36.42507411167019,-50.206809365031546,8.437012644664293,-27.654768984745854,67.024000000034
312310.0087,-16.358632865404637,-29.59812474463419,23.33616139788913,-5.194611205464092,67.02500000002328
312310.0097,6.109715868358123,-6.32570143763007,39.58519330560174,19.240879179965788,67.02600000001257
312310.0107,30.349469632611342,18.97998103281005,56.680549115605935,45.04600571728572,67.02700000000186
312310.0117,55.66182219703284,45.610630690773,74.07921925958398,71.5512738537221,67.02799999999115
312310.0127,81.30075576363245,72.8010985639108,91.21572158688139,98.0420480169481,67.02900000003865
312310.0137,106.49669168364679,99.7532032118095,107.52084811337659,123.78007408564896,67.03000000002794
312310.0147,130.48179744404,125.66152556071573,122.44143687853965,148.0270401752774,67.03100000001723
312310.0157,152.51589295250628,149.74011512849614,135.46029341935724,170.06916152729258,67.03200000000652
312310.0167,171.91180895582312,171.24895268732342,146.11531105310905,189.24165533941252,67.03299999999581
312310.0177,188.05903499386403,189.51899228746132,154.01682929614194,204.95193069489582,67.0340000000433
312310.0187,200.44455743282234,203.9746608275547,158.86232885552624,216.7003622987533,67.0350000000326
312310.0197,208.66992684912577,214.15282284117603,160.4476872636542,224.09764192520652,67.03600000002189
312310.0207,212.4637987901967,219.71741236493128,158.6744031502581,226.8778984822844,67.03700000001118
312310.0217,211.6894474002544,220.4691776616192,153.55242602389532,224.90703024601308,67.03800000000047
312310.0227,206.3470378236647,216.3502590591834,145.19848493112212,218.18598013849711,67.03899999998976
312310.0237,196.57073826039644,207.44360369249318,133.83007361177243,206.84898308677978,67.04000000003725
312310.0247,182.62103295601534,193.96749150742988,119.75550109214214,191.15709901034197,67.04100000002654
312310.0257,164.8728416026211,176.26568406155556,103.36063537904222,171.48759296345304,67.04200000001583
312310.0267,143.8002403716958,154.79389440175947,85.09313713579843,148.31991625594605,67.04300000000512
312310.0277,119.95870197419168,130.10340054384363,65.44508736004558,122.21916534898052,67.04399999999441
312310.0287,93.96581995819537,102.82268078002491,44.934951066000345,93.81794208313742,67.04500000004191
312310.0297,66.48145606464331,73.63793667425931,24.089786897528985,63.797509813037024,67.0460000000312
312310.0307,38.18815589748447,43.273296012263714,3.42851582284869,32.869043001436076,67.04700000002049
312310.0317,9.77253057974778,12.471365566472981,-16.553088307872795,1.7556168717832181,67.04800000000978
312310.0327,-18.091881636368402,-18.025351050369558,-35.395211762243726,-28.824602148369536,67.04899999999907
312310.0337,-44.759958866402975,-47.49182286193124,-52.684350071495636,-58.1737032929352,67.05000000004657
312310.0347,-69.62842208439437,-75.23646206289753,-68.06113194456479,-85.6278429459076,67.05100000003586
312310.0357,-92.14738907480825,-100.61564641245374,-81.2257421153254,-110.56960679775399,67.05200000002515
312310.0367,-111.83022415408531,-123.04684278481835,-91.94121563357815,-132.4391199880564,67.05300000001444
312310.0377,-128.2619218135384,-142.0204317597936,-100.034974830321,-150.74415505816162,67.05400000000373
312310.0387,-141.10627340203965,-157.110332445334,-105.39902233154308,-165.06947681231347,67.05499999999302
312310.0397,-150.11202004944641,-167.983477715082,-107.98918824923406,-175.08559210795903,67.05600000004051
312310.0407,-155.1181008850045,-174.40810169210192,-107.82376242444265,-180.55695113258184,67.0570000000298
312310.0417,-156.05797765726402,-176.26068768317182,-104.98173435458266,-181.3494909614774,67.05800000001909
312310.0427,-152.9628738244521,-173.53130356238012,-99.60072973910864,-177.43724273248048,67.05900000000838
312310.0437,-145.96362909458222,-166.32694227626723,-91.8745918706301,-168.90756365374557,67.05999999999767
312310.0447,-135.29076037627186,-154.8724068151643,-82.05042780583318,-155.96442735659684,67.06100000004517
312310.0457,-121.272256050566,-139.50824831578882,-70.42484167964113,-138.9291314750272,67.06200000003446
312310.0467,-104.32862690416982,-120.68529515090209,-57.339025823908194,-118.23777571324925,67.06300000002375
312310.0477,-84.96480232962172,-98.95540614249924,-43.172384722494236,-94.43493636119823,67.06400000001304
312310.0487,-63.75859549484801,-74.95824160349144,-28.3344312184602,-68.16311561107446,67.06500000000233
312310.0497,-41.34565928014114,-49.40406361515212,-13.25481577240277,-40.147769018248034,67.06599999999162
312310.0507,-18.401101547574186,-23.052836704496034,1.6284819693825043,-11.177996778674334,67.06700000003912
312310.0517,4.381796932091685,3.3098189322862113,15.88257052060857,17.916698084393737,67.0680000000284
312310.0527,26.31504098468673,28.89899205513863,29.09423405303661,46.29285631081474,67.0690000000177
312310.0537,46.74058190156104,52.958085659791955,40.88505390792849,73.1216822380208,67.07000000000698
312310.0547,65.05500450327285,74.78639336873145,50.92626634471813,97.61855356617552,67.07099999999627
312310.0557,80.73293647323716,93.76526211272484,58.95245354083456,119.07196356022055,67.07200000004377
312310.0567,93.34784011748917,109.38143408312072,64.77313202090295,136.87036185028538,67.07300000003306
312310.0577,102.58891240592878,121.24624024116811,68.28135160253669,150.5253936896378,67.07400000002235
312310.0587,108.27298735384004,129.1094982741676,69.4585502146839,159.69018410007885,67.07500000001164
312310.0597,110.3505971662887,132.86724070739288,68.37511902901096,164.17156577308543,67.07600000000093
312310.0607,108.9056880609782,132.56274655040198,65.18640394778737,163.93549152149046,67.07699999999022
312310.0617,104.1488789470528,128.3807480887383,60.12418272998019,159.10527906335406,67.07800000003772
312310.0627,96.40456651771756,120.63510401234392,53.483986253708224,149.95277754604348,67.07900000002701
312310.0637,86.09258640030352,109.75063930461691,45.6089494631954,136.88298765919603,67.0800000000163
312310.0647,73.70550441150291,96.24021970184482,36.87115435329636,120.4130761000397,67.08100000000559
312310.0657,59.782905132547164,80.67842544544418,27.651638485438284,101.14706862639814,67.08199999999488
312310.0667,44.884242805229675,63.67339218111046,18.320367646661364,79.74775720230407,67.08300000004238
312310.0677,29.56190535292784,45.838480225183396,9.217497047362002,56.907496503958555,67.08400000003166
312310.0687,14.336108584007786,27.765409748422734,0.6371670232071492,33.31958311961322,67.08500000002095
312310.0697,-0.3269134749247601,10.000360814434018,-7.185099250993969,9.651806943845513,67.08600000001024
312310.0707,-14.032212826311453,-6.975705039290583,-14.080593949549174,-13.476451673397753,67.08699999999953
312310.0717,-26.46805877012587,-22.76157130192833,-19.950748064465294,-35.51251459308137,67.08799999998882
312310.0727,-37.41202803360223,-37.044594893748496,-24.76548002834131,-55.983399890702465,67.08900000003632
312310.0737,-46.73121068786969,-49.60370183690586,-28.556848163910917,-74.50324000048136,67.09000000002561
312310.0747,-54.37690574306802,-60.30682213997478,-31.408641040226986,-90.77525957497382,67.0910000000149
312310.0757,-60.37455644646472,-69.10340617513374,-33.442842053806984,-104.58882968101028,67.09200000000419
312310.0767,-64.80998179388932,-76.01297124905969,-34.80412848015633,-115.81243456672209,67.09299999999348
312310.0777,-67.8131751235377,-81.11084785443548,-35.643692644755845,-124.38362175054482,67.09400000004098
312310.0787,-69.54104858298278,-84.5124161623769,-36.10369409067903,-130.29713991619187,67.09500000003027
312310.0797,-70.16049867284502,-86.35713925377053,-36.303566382597865,-133.5924955113917,67.09600000001956
312310.0807,-69.83305734984647,-86.79361382221614,-36.32921945524968,-134.34208095744486,67.09700000000885
312310.0817,-68.702188495155,-85.9666833095222,-36.225915441762965,-132.6408567778925,67.09799999999814
312310.0827,-66.88401148413814,-84.00741131313652,-35.995276504195445,-128.59832607067196,67.09900000004563
312310.0837,-64.46190805668458,-81.02641838546968,-35.59653539234299,-122.3332474473013,67.10000000003492
312310.0847,-61.485124552583855,-77.11076964478728,-34.95179299128104,-113.97121986354907,67.10100000002421
312310.0857,-57.97114807729674,-72.3242910380428,-33.95473070590914,-103.64496826429732,67.1020000000135
312310.0867,-53.91133938839131,-66.71091390685814,-32.48196444990226,-91.49688931441833,67.1030000000028
312310.0877,-49.279069958917425,-60.30042208217922,-30.40604103446447,-77.68320414546277,67.10399999999208
312310.0887,-44.03945235454846,-53.11581889865825,-27.608979661389988,-62.37892646546163,67.10500000003958
312310.0897,-38.15968099976774,-45.181452441395635,-23.995255926564926,-45.78279876286851,67.10600000002887
312310.0907,-31.61901599713578,-36.53103800742492,-19.503210123396958,-28.12137807320688,67.10700000001816
312310.0917,-24.41753961744223,-27.21479212575406,-14.114025092816181,-9.651559558263656,67.10800000000745
312310.0927,-16.582980274095863,-17.305031162210593,-7.857644444617801,9.339002236103337,67.10899999999674
312310.0937,-8.17511369546571,-6.899773125100508,-0.8152680478933254,28.533896831266794,67.11000000004424
312310.0947,0.712506460678948,3.875905982917217,6.881656002384391,47.592466808811515,67.11100000003353
312310.0957,9.95348960475034,14.870791223619156,15.055749853243599,66.1566615643423,67.11200000002282
312310.0967,19.391993619906827,25.910549028882247,23.490899107091106,83.85985626183438,67.11300000001211
312310.0977,28.848137330433744,36.802503050107845,31.941692829197198,100.33708034839414,67.1140000000014
312310.0987,38.12488566846062,47.3416947388073,40.14435413701348,115.23598161508538,67.11499999999069
312310.0997,47.015778342808936,57.31768770285815,47.82834813703829,128.2277999546915,67.11600000003818
312310.1007,55.312862725054444,66.52156234434241,54.727868607482776,139.01764167040238,67.11700000002747
312310.1017,62.81424241503201,74.75258911792328,60.59248497553566,147.35342563719897,67.11800000001676
312310.1027,69.33075488286975,81.82415647319112,65.19636500332295,153.03300595332178,67.11900000000605
312310.1037,74.69143057888141,87.56865056311764,68.34566009851844,155.90914633894675,67.11999999999534
312310.1047,78.74754500368901,91.84112290021514,69.88383069308092,155.892210843249,67.12100000004284
312310.1057,81.37523652532232,94.52172319289097,69.69487945304274,152.95062380549345,67.12200000003213
312310.1067,82.47680921562747,95.51700226904846,67.70463222367952,147.10932089643975,67.12300000002142
312310.1077,81.98095725573603,94.76029132406643,63.880345553106636,138.44654672924023,67.12400000001071
312310.1087,79.84222508053989,92.2114293534407,58.22901461392171,127.08944162600916,67.125
312310.1097,76.0400497786418,87.85613560880175,50.79480070348591,113.20889467412506,67.12599999998929
312310.1107,70.57771890062686,81.70530806100601,41.65599299634596,97.01412200189023,67.12700000003679
312310.1117,63.48152229765412,73.79447654105572,30.921869735116744,78.74736362861687,67.12800000002608
312310.1127,54.800289730534516,64.18355874177585,18.729738838224428,58.67898950010583,67.12900000001537
312310.1137,44.605398725556334,52.95696974566088,5.242329424856009,37.10317918091772,67.13000000000466
312310.1147,32.991223222593625,40.224033889761856,-9.354411803908897,14.334205905396372,67.13099999999395
312310.1157,20.07588688629079,26.119554386191783,-24.853177680673635,-9.296769700184553,67.13200000004144
312310.1167,6.002098153918011,10.804322678566754,-41.02696356001416,-33.44459339523903,67.13300000003073
312310.1177,-9.06221282925688,-5.5346950247178714,-57.63075397914768,-57.75296383417288,67.13400000002002
312310.1187,-24.923755917888542,-22.684766779421494,-74.40348093682708,-81.85752334417981,67.13500000000931
312310.1197,-41.3645241445066,-40.40864662042831,-91.0704941465837,-105.38946660513294,67.1359999999986
312310.1207,-58.14344730937729,-58.446857359133205,-107.34674016518885,-127.9798813497337,67.1370000000461
312310.1217,-74.99920107554597,-76.52110746605207,-122.94077383388692,-149.26494134480296,67.13800000003539
312310.1227,-91.654212324395,-94.33884243276219,-137.55963110102968,-168.89195480071712,67.13900000002468
