TimeStamp,ECR,FCR,ECU,FCU,time_index
312298.9837,190.38425319343705,204.15753056924328,113.5099062306864,262.5553699635303,56.0
312298.9847,152.6821931984259,155.13229451328377,75.34306087968791,203.65841523797982,56.00099999998929
312298.9857,111.4495892960505,102.96037401665492,34.95621404349607,140.92614729393804,56.00200000003679
312298.9867,67.90451167354195,49.1674431060384,-6.537560163356584,76.15455996497664,56.00300000002608
312298.9877,23.31195523976624,-4.700135441168391,-47.994673322043234,11.159123190171384,56.00400000001537
312298.9887,-21.059954456369425,-57.12825034335331,-88.27950867923026,-52.28631550472025,56.00500000000466
312298.9897,-63.98386784152399,-106.68663319677995,-126.30331824508434,-112.50884042720145,56.005999999993946
312298.9907,-104.31546107913191,-152.07704563094845,-161.06194751716703,-167.99163078338304,56.007000000041444
312298.9917,-141.03224006458595,-192.17606597742542,-191.6707514782987,-217.4226813656129,56.008000000030734
312298.9927,-173.2671846995509,-226.0706425465765,-217.39510110546024,-259.7349717503292,56.00900000002002
312298.9937,-200.33569443222746,-253.08484933406396,-237.6750102928516,-294.1362901444074,56.01000000000931
312298.9947,-221.75456919791924,-272.79664752739626,-252.1426387598072,-320.12735422645164,56.0109999999986
312298.9957,-237.25212168299765,-285.04390806431087,-260.6317398752874,-337.5074107460694,56.0120000000461
312298.9967,-246.76895011084846,-289.9194647511177,-263.1785089252085,-346.3671108244775,56.01300000003539
312298.9977,-250.44938166702124,-287.75551584240526,-260.0137262612901,-347.0691133528471,56.01400000002468
312298.9987,-248.62409625350324,-279.0982418331517,-251.54655490105552,-340.2175235675799,56.01500000001397
312298.9997,-241.78492641541706,-264.674023731177,-238.34081397159596,-326.61788431317075,56.01600000000326
312299.0007,-230.55326926140347,-245.34909499059125,-221.08497705647534,-307.2299612052756,56.01699999999255
312299.0017,-215.64390909481406,-222.08481052220733,-200.5575081342772,-283.1159618476459,56.01800000004005
312299.0027,-197.82630867253974,-195.8909423724607,-177.5894207649725,-255.38707298394476,56.01900000002934
312299.0037,-177.88556233946954,-167.77949617292177,-153.026107234871,-225.1512676547719,56.02000000001863
312299.0047,-156.58520370217792,-138.72147698744357,-127.69051940865066,-193.4652186535746,56.021000000007916
312299.0057,-134.6339211775615,-109.60881950507186,-102.34968640252636,-161.2928591696024,56.021999999997206
312299.0067,-112.65796350301424,-81.22334760737888,-77.68632940116412,-129.47267350532917,56.0230000000447
312299.0077,-91.18063034159407,-54.21416367461625,-54.27699375446633,-98.69520891431058,56.02400000003399
312299.0087,-70.60976514870997,-29.084318292109536,-32.57768431983924,-69.49161259587495,56.02500000002328
312299.0097,-51.233630113619924,-6.187012286588446,-12.917490659243073,-42.233261781282586,56.02600000001257
312299.0107,-33.22498274589808,14.26902480402528,4.499841530788236,-17.141820044620115,56.02700000000186
312299.0117,-16.652629415691628,32.20591150804956,19.58696005323637,5.691629314087602,56.02799999999115
312299.0127,-1.499241341626376,47.65618244234764,32.3576235456832,26.2803034051053,56.02900000003865
312299.0137,12.31618169000151,60.73738163826065,42.90653298774,44.710662827550884,56.03000000002794
312299.0147,24.9130961511429,71.62377961183653,51.38601453355354,61.10921153973012,56.03100000001723
312299.0157,36.42348687148798,80.51742556334985,57.98145082603776,75.60985835673813,56.03200000000652
312299.0167,46.96725850648526,87.62070113730574,62.88737589452357,88.32441808416272,56.03299999999581
312299.0177,56.63082433197531,93.11234491443493,66.28602458158818,99.31851668784238,56.03400000004331
312299.0187,65.45048191852284,97.12858461448961,68.32987268179028,108.59469034312222,56.035000000032596
312299.0197,73.40176647793459,99.75057466551934,69.12934075269114,116.08387135660875,56.036000000021886
312299.0207,80.39549613870699,100.99882621394003,68.74639375683923,121.64578302174553,56.037000000011176
312299.0217,86.28070746303179,100.8347755805422,67.19428712549477,125.07807396990009,56.038000000000466
312299.0227,90.85416484373415,99.16910760865336,64.44322684524623,126.13336449022206,56.038999999989755
312299.0237,93.87565330323707,95.87597174935371,60.431264985976135,124.54280216829743,56.04000000003725
312299.0247,95.08786503659152,90.81183451585797,55.0793763316506,120.04427276675214,56.04100000002654
312299.0257,94.23939232190538,83.83742676539657,48.309382499633266,112.41311304526847,56.04200000001583
312299.0267,91.10915979340737,74.84108224128043,40.063223542722376,101.49303943890766,56.04300000000512
312299.0277,85.53057333277233,63.76172790905518,30.32202926103456,87.22503970370147,56.04399999999441
312299.0287,77.41372618275918,50.60986929371495,19.12350852988051,69.67215968360688,56.04500000004191
312299.0297,66.76417123891534,35.48509882589279,6.576340808601146,49.0384289367506,56.0460000000312
312299.0307,53.6970206392746,18.588919233080656,-7.129501601661216,25.68057396671305,56.04700000002049
312299.0317,38.44544418557889,0.23199078972293094,-21.71727472801912,0.11162923363715149,56.04800000000978
312299.0327,21.36297979185781,-19.16474632666325,-36.8232787803431,-27.003962995188594,56.04899999999907
312299.0337,2.919416409613066,-39.07528025402664,-52.00209719046044,-54.86370599140836,56.050000000046566
312299.0347,-16.309659275679845,-58.87994900554718,-66.73708678687262,-82.5483714272164,56.051000000035856
312299.0357,-35.65926336959515,-77.88267056411613,-80.45568522313634,-109.05044283671084,56.052000000025146
312299.0367,-54.39671959677917,-95.33333348765836,-92.54888872473946,-133.30853682437035,56.053000000014435
312299.0377,-71.74782008248,-110.45450425550972,-102.39409252476119,-154.24643935721923,56.054000000003725
312299.0387,-86.92643630606105,-122.4714575077406,-109.38037589211625,-170.81524501982761,56.054999999993015
312299.0397,-99.1664607732522,-130.64442569356427,-112.93524699247509,-182.03699965161334,56.05600000004051
312299.0407,-107.75488378015986,-134.30188858314912,-112.55183106236532,-187.04821071657372,56.0570000000298
312299.0417,-112.06476447267632,-132.87367389692653,-107.81547910458185,-185.14159453068763,56.05800000001909
312299.0427,-111.58683610716275,-125.92261299090463,-98.42878541252605,-175.80446659598798,56.05900000000838
312299.0437,-105.9584893962167,-113.17348801870881,-84.23402533801963,-158.75224573296575,56.05999999999767
312299.0447,-94.98890562639394,-94.53802065947063,-65.23205811946991,-133.95563357922947,56.06100000004517
312299.0457,-78.67916652521093,-70.13469216008572,-41.59678547382151,-101.6601514644786,56.06200000003446
312299.0467,-57.23625674264154,-40.30225761153615,-13.684320685529084,-62.396872931692414,56.06300000002375
312299.0477,-31.080004645872936,-5.60593303656549,17.96388682678118,-16.98339008579894,56.06400000001304
312299.0487,-0.8421848977209493,33.164599232816094,52.62460107661567,33.485697032188526,56.06500000000233
312299.0497,32.64276312587698,75.00599659319325,89.40348427362028,87.65917176177786,56.06599999999162
312299.0507,68.35566254448203,118.72121782483323,127.25316103694595,143.9605128721742,56.067000000039116
312299.0517,105.11909895096953,162.94864100352373,164.99864059786566,200.62975255268918,56.068000000028405
312299.0527,141.63204609826826,206.1999456684629,201.3697659642511,255.7750517560518,56.069000000017695
312299.0537,176.51177208182546,246.90594109555826,235.04001681948048,307.43269048002946,56.070000000006985
312299.0547,208.34177988459223,283.4690844515526,264.6706352209464,353.6337014830599,56.070999999996275
312299.0557,235.72415744056306,314.32100885568724,288.9586919098503,392.4749404574052,56.07200000004377
312299.0567,257.3343825912101,337.98300084823177,306.68739128364433,422.1920144816571,56.07300000003306
312299.0577,271.97637350436514,353.1270585341194,316.7766506764543,441.23121335927874,56.07400000002235
312299.0587,278.6354181738358,358.6349523427829,318.331808731918,448.3174312319446,56.07500000001164
312299.0597,276.5265749377693,353.6526215368221,310.68823842295075,442.51504842399237,56.07600000000093
312299.0607,265.13621969281786,337.63728581189787,293.44967656139636,423.2788774009492,56.07699999999022
312299.0617,244.2546263872467,310.39483845118696,266.51823961732117,390.4925641036609,56.07800000003772
312299.0627,213.99779845241147,272.1054120976323,230.1143729949157,344.49226892674903,56.07900000002701
312299.0637,174.81720478818062,223.33545762582688,184.78536674015953,286.0740129038816,56.0800000000163
312299.0647,127.4965923304506,165.03522980372506,131.4015463723408,216.48373852071938,56.08100000000559
312299.0657,73.13562025306499,98.52120252680965,71.1397881486911,137.38986861939827,56.08199999999488
312299.0667,13.120657288434623,25.443608547649845,5.454584079027877,50.838914158425254,56.083000000042375
312299.0677,-50.916328871129615,-52.26002175093168,-63.96253849999595,-40.80455702517877,56.084000000031665
312299.0687,-117.14931398544145,-132.42379689838808,-135.23388710827288,-134.9315619441667,56.085000000020955
312299.0697,-183.61823705453784,-212.7227622919117,-206.3549163436383,-228.77329168300176,56.086000000010245
312299.0707,-248.29515752570217,-290.74995085982476,-275.2597277163851,-319.4934651301732,56.086999999999534
312299.0717,-309.15393559907426,-364.09820171869114,-339.8902025916848,-404.2848855046909,56.087999999988824
312299.0727,-364.2406700479433,-430.4435236810443,-398.26603529876047,-480.4664200224516,56.08900000003632
312299.0737,-411.7421050081229,-487.6266910207493,-448.5528847720167,-545.5765772736586,56.09000000002561
312299.0747,-450.0493210275181,-533.7298220141333,-489.1259450815789,-597.4599858931654,56.0910000000149
312299.0757,-477.8142484569146,-567.144902191062,-518.6264418353504,-634.3433756140219,56.09200000000419
312299.0767,-493.9968694692513,-586.6315622256906,-536.0088801594057,-654.8981128783038,56.09299999999348
312299.0777,-497.9013902851425,-591.3618865107402,-540.5772826249421,-658.2869250066403,56.09400000004098
312299.0787,-489.200145532766,-580.9505885593775,-532.0091394335709,-644.1931299288826,56.09500000003027
312299.0797,-467.9445176233446,-555.4695150057732,-510.3663226326716,-612.8314379269942,56.09600000001956
312299.0807,-434.56269004250953,-515.4460999010646,-476.09276377778303,-564.9401697738385,56.09700000000885
312299.0817,-389.84457929337947,-461.8460529162207,-429.9992330075574,-501.7555030136424,56.09799999999814
312299.0827,-334.9147822116222,-396.0411972974133,-373.236061283681,-424.9690770162293,56.099000000045635
312299.0837,-271.19481256060845,-319.76394660075493,-307.2550939305995,-336.670923278463,56.100000000034925
312299.0847,-200.35626590610428,-235.0503977935877,-233.76253410950483,-239.28021100136522,56.101000000024214
312299.0857,-124.26683178307387,-144.17440176769608,-154.66461597636098,-135.46668699695314,56.102000000013504
312299.0867,-44.93125885647565,-49.57523627620297,-72.0082309368957,-28.065929475860173,56.103000000002794
312299.0877,35.57053118516903,46.21835683184688,12.081285898709785,80.00837777781459,56.103999999992084
312299.0887,115.14599032348282,140.66499894925434,95.46301541023335,185.85200676875505,56.10500000003958
312299.0897,191.7510547523313,231.28570728622944,176.0418695226833,286.65463701818135,56.10600000002887
312299.0907,263.4478949099678,315.7346930550241,251.82665116000265,379.7785672063679,56.10700000001816
312299.0917,328.4576174348195,391.863794434319,320.9830911343485,462.8294600084768,56.10800000000745
312299.0927,385.20651594697637,457.7787882274187,381.8804811098205,533.7173552785885,56.10899999999674
312299.0937,432.36478137035067,511.88623905660353,433.13083483945366,590.7066743210179,56.11000000004424
312299.0947,468.87690703497344,552.9299736728453,473.6198304844468,632.4544199210535,56.11100000003353
312299.0957,493.9833414906745,580.0166856026233,502.5290981305339,658.0362254037098,56.11200000002282
312299.0967,507.23323771259237,592.6305604510152,519.3497045242023,666.9602994932005,56.11300000001211
312299.0977,508.48840965537494,590.6371483789791,523.8869411910171,659.1696379903941,56.1140000000014
312299.0987,497.9188287618714,574.2769874323498,516.2567364224852,635.0331225501599,56.11499999999069
312299.0997,475.9901716088363,544.1496960441624,496.8741845547904,595.326303797637,56.116000000038184
312299.1007,443.4440674595854,501.1894080791558,466.4348200929654,541.2027807700757,56.117000000027474
312299.1017,401.2717970129454,446.63252759866714,425.88936552442124,474.15715696356847,56.118000000016764
312299.1027,350.68226972473275,381.9788453697735,376.41275834415876,395.98059414640085,56.119000000006054
312299.1037,293.0651666477612,308.94709929787103,319.368324012267,308.710018213851,56.11999999999534
312299.1047,229.95018840229315,229.42609061271943,256.26801588032356,214.572074219656,56.12100000004284
312299.1057,162.96340141614928,145.42249885981968,188.7296972648139,115.92299327027044,56.12200000003213
312299.1067,93.78173455558324,59.0065797745187,118.43249851253135,15.185628668628121,56.12300000002142
312299.1077,24.08674319242329,-27.743015912439702,47.071343044399455,-85.214958641332,56.12400000001071
312299.1087,-44.481175408801796,-112.79400033888831,-23.688203087170795,-182.9158437530338,56.125
312299.1097,-110.36687110621929,-194.2134141010469,-92.25355145774076,-275.6788449902876,56.12599999998929
312299.1107,-172.14154796555073,-270.2173748816144,-157.14594174673306,-361.44960450386884,56.12700000003679
312299.1117,-228.53959345839098,-339.2161558358016,-217.03728162023543,-438.411272566158,56.12800000002608
312299.1127,-278.4898711713537,-399.85315675243044,-270.78177839837633,-505.0309169980925,56.12900000001537
312299.1137,-321.14031577397,-451.03640903868336,-317.441263561695,-560.0968641281336,56.13000000000466
312299.1147,-355.874835841632,-491.9614089192822,-356.3032731092608,-602.745373685197,56.130999999993946
312299.1157,-382.32177067425386,-522.1243099931202,-386.8911749972241,-632.4753656160376,56.132000000041444
312299.1167,-400.35345901799246,-541.324827270744,-408.9659263836607,-649.1503497818447,56.133000000030734
312299.1177,-410.0768506705651,-549.658602386513,-422.51938864376666,-652.9872457161159,56.13400000002002
312299.1187,-411.81550893376334,-547.4992373774795,-427.7595110175204,-644.5323931167442,56.13500000000931
312299.1197,-406.08378865695715,-535.4706975123111,-425.08809240569497,-624.6257078858647,56.1359999999986
312299.1207,-393.55440192861954,-514.4112806298363,-415.07221892341914,-594.3545885985211,56.1370000000461
312299.1217,-375.02096917906385,-485.3308154005143,-398.4108236540284,-554.9997750212256,56.13800000003539
312299.1227,-351.35746534961356,-449.3631466196981,-375.89809603079334,-507.97585428307303,56.13900000002468
312299.1237,-323.4766796760212,-407.716257009759,-348.385655665769,-454.76945664354014,56.14000000001397
312299.1247,-292.28989042163556,-361.6225327171869,-316.7454790416184,-396.8783457860785,56.14100000000326
312299.1257,-258.66989824706997,-312.29168341029276,-281.8355149893433,-335.75456564886844,56.14199999999255
312299.1267,-223.41936027288185,-260.8686688651422,-244.4697436537338,-272.7545505374231,56.14300000004005
312299.1277,-187.24602958945002,-208.3986665816978,-205.39413161790137,-209.09864878805556,56.14400000002934
312299.1287,-150.74605210819482,-155.80065720876865,-165.26953140228142,-145.8418811082939,56.14500000001863
312299.1297,-114.39593492436477,-103.8506367932203,-124.66209439007247,-83.85699694660516,56.146000000007916
312299.1307,-78.55321671481595,-53.1748277492767,-84.0412473119274,-23.830061873701684,56.146999999997206
312299.1317,-43.465285067785324,-4.252601452331658,-43.78476303743418,33.73203075253783,56.1480000000447
312299.1327,-9.285243126074139,42.57180534150882,-4.189976772139855,88.48351473754269,56.14900000003399
312299.1337,23.906729326316437,87.07025216018994,34.510203660567164,140.21323150792983,56.15000000002328
312299.1347,56.07841186937952,129.106241974851,72.1281386364518,188.81219591576084,56.15100000001257
312299.1357,87.2190589613035,168.60724627383271,108.50095690452063,234.23810465538733,56.15200000000186
312299.1367,117.3135097390244,205.53611612755614,143.4705446114444,276.4797196200879,56.15299999999115
312299.1377,146.31888155954138,239.8638293500526,176.8657332068361,315.52391150589636,56.15400000003865
312299.1387,174.14556791998612,271.54560271738575,208.4881492514052,351.32779891330716,56.15500000002794
312299.1397,200.6438750780051,300.5020377269866,238.10283839460917,383.79790071046614,56.15600000001723
312299.1407,225.59716297847706,326.6065031966214,265.43435333225216,412.7775829125362,56.15700000000652
312299.1417,248.7218456425406,349.6794299057195,290.16853851523655,438.04338211449635,56.15799999999581
312299.1427,269.6740962240749,369.4896462792179,311.95979134160734,459.31008432083274,56.15900000004331
312299.1437,288.06263228729495,385.76236333873794,330.4431669276475,476.24378652117565,56.160000000032596
312299.1447,303.46656129704263,398.1929601427754,345.25035224359465,488.48161629869037,56.161000000021886
312299.1457,315.4569698431569,406.4653577047955,356.0282882506495,495.65636810570373,56.162000000011176
312299.1467,323.6207572448912,410.273519466357,362.459078768013,497.4240554227711,56.163000000000466
312299.1477,327.58514838829075,409.3444880310095,364.27979486975477,493.4922826762529,56.163999999989755
312299.1487,327.04136507598946,403.46135826383886,361.3008565622783,483.6474021001403,56.16500000003725
312299.1497,321.7660742949361,392.4846837066466,353.4218338681133,467.77861904703906,56.16600000002654
312299.1507,311.6394439131886,376.370996947329,340.6437356640238,445.8975157731059,56.16700000001583
312299.1517,296.6588963692918,355.1873710237448,323.0771216911628,418.15184411135345,56.16800000000512
312299.1527,276.9479335260093,329.1212325024644,300.94565548067965,384.8328556423261,56.16899999999441
312299.1537,252.7596879545916,298.4849331218039,274.5849899795204,346.3758596983585,56.17000000004191
312299.1547,224.47511886440935,263.7148748650773,244.4371241045676,303.3540952393297,56.1710000000312
312299.1557,192.59600185361947,225.3652471057329,211.04057371115422,256.46634954624847,56.17200000002049
312299.1567,157.73305406556392,184.0966639017372,175.0168573770971,206.51903992036875,56.17300000000978
312299.1577,120.58968953909628,140.66018020184683,137.05390513549773,154.40368729048154,56.17399999999907
312299.1587,81.9420176813651,95.8773181922615,97.8870614551459,101.07085320695123,56.175000000046566
312299.1597,42.6157881406135,50.616853385042724,58.27838098351762,47.50169029749551,56.176000000035856
312299.1607,3.461056350272328,5.769200371568647,18.994917612373072,-5.321719131139201,56.177000000025146
312299.1617,-34.67459672688284,-37.780693368826675,-19.213304733557425,-56.44607934505404,56.178000000014435
312299.1627,-70.97340452035557,-79.1809858448136,-55.63496824057158,-104.9755439124816,56.179000000003725
312299.1637,-104.67438101719422,-117.64011496137145,-89.61812872447112,-150.09828679968425,56.179999999993015
312299.1647,-135.09894073180232,-152.45249256193068,-120.58923138111719,-191.11002955720176,56.18100000004051
312299.1657,-161.67417632082336,-183.0217020643547,-148.06984289257696,-227.43367139717512,56.1820000000298
312299.1667,-183.9527994101728,-208.88021172580437,-171.69048422243,-258.634282517929,56.18300000001909
312299.1677,-201.6287890986695,-229.70467993293212,-191.20097847746004,-284.42885303177815,56.18400000000838
312299.1687,-214.54788002453563,-245.3260380008413,-206.47678221880585,-304.6903456393237,56.18499999999767
312299.1697,-222.71216673881028,-255.7336963186919,-217.52085612359033,-319.4457848120593,56.18600000004517
312299.1707,-226.2783079728031,-261.07343424148837,-224.46075906603284,-328.8683316729133,56.18700000003446
312299.1717,-225.54908188887387,-261.63880082425453,-227.54082162259604,-333.2635413032284,56.18800000002375
312299.1727,-220.9583634563889,-257.8561643260482,-227.10946862647504,-333.0502722542941,56.18900000001304
312299.1737,-213.04995263218808,-250.263889170029,-223.60200781893775,-328.73700544863647,56.19000000000233
312299.1747,-202.45105563093503,-239.48646975728684,-217.51946924531873,-320.89461477538015,56.19099999999162
312299.1757,-189.8415848376867,-226.20478662024254,-209.40434920651114,-310.1268932201064,56.192000000039116
312299.1767,-175.9207664647484,-211.1239445233519,-199.81436109044395,-297.04035199551265,56.193000000028405
312299.1777,-161.37279906988982,-194.9403765411224,-189.29549940943974,-282.2149507942106,56.194000000017695
312299.1787,-146.83346311638675,-178.3100274682878,-178.3558596880762,-266.1774619702871,56.195000000006985
312299.1797,-132.85961975389057,-161.81944391203285,-167.44170553648425,-249.37910225350538,56.195999999996275
312299.1807,-119.90344181212481,-145.96148465976717,-156.9172210549981,-232.17887257148914,56.19700000004377
312299.1817,-108.29298768264536,-131.11712095207312,-147.04922522353888,-214.83373014403062,56.19800000003306
312299.1827,-98.22036695131828,-117.54443100041495,-137.99785805694836,-197.4962895720869,56.19900000002235
312299.1837,-89.73827493650155,-105.3754270370177,-129.81388900373628,-180.22023577829748,56.20000000001164
312299.1847,-82.76512247883434,-94.62081777904872,-122.4428689711066,-162.97306719054313,56.20100000000093
312299.1857,-77.09839743103853,-85.18224462697582,-115.73587940816392,-145.65521708280104,56.20199999999022
312299.1867,-72.43531146460018,-76.8709820059088,-109.4661618960286,-128.12407411684387,56.20300000003772
312299.1877,-68.39925839093804,-69.43160837502552,-103.35047917263914,-110.22098982836718,56.20400000002701
312299.1887,-64.57018426116528,-62.56877898118484,-97.07370189560575,-91.79906621944107,56.2050000000163
312299.1897,-60.516684327353616,-55.97500129505941,-90.31486823865745,-72.74939602080389,56.20600000000559
312299.1907,-55.82752586196966,-49.357254505546564,-82.77285067758105,-53.023502585373876,56.20699999999488
312299.1917,-50.14036302820938,-42.46041599214293,-74.1897997853553,-32.649999404424776,56.208000000042375
312299.1927,-43.16565855011612,-35.085754381742326,-64.37071913911846,-11.743945705206542,56.209000000031665
312299.1937,-34.70423840328098,-27.10319802229038,-53.197845509909214,9.492019067356303,56.210000000020955
312299.1947,-24.657446399076044,-18.456651786886212,-40.638938513192784,30.774972367324764,56.211000000010245
312299.1957,-13.029489139545325,-9.16226445833233,-26.74908733398328,51.75690191502568,56.211999999999534
312299.1967,0.0777862274604893,0.6998134911421752,-11.66617509810668,72.04654244628763,56.212999999988824
312299.1977,14.476816661192565,10.999055190712605,4.3993432956979195,91.23598093535824,56.21400000003632
312299.1987,29.91154853334993,21.571958711018844,21.179242642491776,108.9296891354838,56.21500000002561
312299.1997,46.07815859814534,32.24128938047916,38.365453904321555,124.7733791604765,56.2160000000149
312299.2007,62.647232313185846,42.83508471352545,55.62944980532201,138.4800472196809,56.21700000000419
312299.2017,79.28531823630254,53.203400105734936,72.64136610231199,149.850780638015,56.21799999999348
312299.2027,95.67392730601583,63.2310258209246,89.08723573961578,158.78833952425444,56.21900000004098
312299.2037,111.52437347493407,72.8448311695803,104.68296126831643,165.30215085922782,56.22000000003027
312299.2047,126.5873251928264,82.01495041955674,119.18402193363609,169.50411477151383,56.22100000001956
312299.2057,140.6565096979345,90.74966395583985,132.39036936576935,171.5954521409836,56.22200000000885
312299.2067,153.56662870660244,99.08448643045544,144.146465274767,171.84564392815574,56.22299999999814
312299.2077,165.18614561056336,107.06658777573654,154.33690744289328,170.56525012787975,56.224000000045635
312299.2087,175.40613311937307,114.73618356066535,162.8785289257775,168.07498141522598,56.225000000034925
312299.2097,184.12677609487224,122.10688852233085,169.71019751174032,164.67377446390248,56.226000000024214
312299.2107,191.2433688516994,129.14719601756437,174.78175560269887,160.60875657451757,56.227000000013504
312299.2117,196.63370683723264,135.76520935684408,178.04360507661875,156.0498630249656,56.228000000002794
312299.2127,200.14864443325772,141.79851077014263,179.43835240684257,151.07150146227264,56.228999999992084
312299.2137,201.60728667832055,147.01063156430746,178.89569649001206,145.64307432687173,56.23000000003958
312299.2147,200.79783253084287,151.0950212931748,176.33138936958076,139.62942479498278,56.23100000002887
312299.2157,197.4845338939234,153.6867560603567,171.65066385350923,132.8014305059587,56.23200000001816
312299.2167,191.42063024957673,154.38153613017565,164.75604521151308,124.85610694821715,56.23300000000745
312299.2177,182.3665198426601,152.7608629879365,155.5589934295334,115.44477442904468,56.23399999999674
312299.2187,170.11189021644023,148.42171464583805,143.99440344920822,104.20715878180187,56.23500000004424
312299.2197,154.5001025884013,141.00860538652051,130.03666339995033,90.80879394530233,56.23600000003353
312299.2207,135.4528444551361,130.24565919184724,113.71576567042965,74.97881472217655,56.23700000002282
312299.2217,112.99295731965553,115.9662655386033,95.13190128728733,56.545190423911414,56.23800000001211
312299.2227,87.26341997620135,98.13802508041653,74.46704936337682,35.46465309326929,56.2390000000014
312299.2237,58.540714399461066,76.88101647334756,51.99229143471839,11.844994971849113,56.23999999999069
312299.2247,27.24119767405861,52.477893957768806,28.069913762881036,-14.041992049396445,56.241000000038184
312299.2257,-6.080386601226175,25.374915330318476,3.1497772444371464,-41.75794210963952,56.242000000027474
312299.2267,-40.74054586855977,-3.826349842497774,-22.240104556588612,-70.70593486902091,56.243000000016764
312299.2277,-75.94451775572114,-34.38622670997791,-47.50837585494615,-100.14856742120499,56.244000000006054
312299.2287,-110.8107207366026,-65.45204503958878,-72.01971087717003,-129.2348390236602,56.24499999999534
312299.2297,-144.4008231260544,-96.08963203458693,-95.11757453639575,-157.03403751698576,56.24600000004284
312299.2307,-175.75371184856976,-125.31929335478105,-116.14895736585764,-182.5744130705367,56.24700000003213
312299.2317,-203.9214213109854,-152.15417334383022,-134.48955426662621,-204.88421507126637,56.24800000002142
312299.2327,-228.00501872910934,-175.63884111676236,-149.56787176114017,-223.0326585406545,56.24900000001071
312299.2337,-247.18853380332726,-194.88606940590145,-160.88688945287794,-236.1685662627898,56.25
312299.2347,-260.769252218906,-209.110038174921,-168.0421511464325,-243.55477421014618,56.25099999998929
312299.2357,-268.18303654679175,-217.65457313472385,-170.73549265949853,-244.59684990381245,56.25200000003679
312299.2367,-269.0237581479823,-220.01547978339792,-168.78399274878268,-238.86520604006523,56.25300000002608
312299.2377,-263.0563777171588,-215.8565110934536,-162.1241230303008,-226.11024104353837,56.25400000001537
312299.2387,-250.22365706223837,-205.01896588035285,-150.8114345102824,-206.2706514440053,56.25500000000466
312299.2397,-230.6468805681984,-187.5253137475722,-135.01641820073567,-179.47549173682455,56.255999999993946
312299.2407,-204.6212783428701,-163.57754791172525,-115.01738807409191,-146.040869970478,56.257000000041444
312299.2417,-172.60705098833708,-133.55115687627375,-91.19133870668121,-106.46233987700596,56.258000000030734
312299.2427,-135.21698687376735,-97.98567057517884,-64.00372104517348,-61.40407672654496,56.25900000002002
312299.2437,-93.20163795130676,-57.57268058053652,-33.99796332877892,-11.685813848810154,56.26000000000931
312299.2447,-47.43289293942725,-13.142074396682775,-1.7853570743252145,41.73170610627425,56.2609999999986
312299.2457,1.113419119278214,34.35301139524772,31.964343566789978,97.76231111935624,56.2620000000461
312299.2467,51.37551490995921,83.85228989023103,66.53156380713735,155.210891076213,56.26300000003539
312299.2477,102.22411706590552,134.20552189013046,101.15504436685498,212.79100289980101,56.26400000002468
312299.2487,152.48151336180453,184.19109971758212,135.03998160995616,269.14405887565135,56.26500000001397
312299.2497,200.94152317118642,232.53647090793197,167.3668656658582,322.86074137847226,56.26600000000326
312299.2507,246.39078065117022,277.9409260720807,197.30179730770564,372.5053412175454,56.26699999999255
312299.2517,287.6317469237186,319.1012330311405,224.00903936580056,416.6436371027764,56.26800000004005
312299.2527,323.50776304381986,354.74044214968245,246.66641890283938,453.8747208302621,56.26900000002934
312299.2537,352.93025846174464,383.63992572395057,264.48395149695097,482.8668415189038,56.27000000001863
312299.2547,374.90795356345836,404.67436907701614,276.7257291888236,502.3969201983699,56.271000000007916
312299.2557,388.5775663562201,416.8490339684315,282.73472860950585,511.39291092766007,56.271999999997206
312299.2567,393.23518549811416,419.3382038241578,281.959791548195,508.9777005635221,56.2730000000447
312299.2577,388.3671408187777,411.52333579018983,273.9836456814473,494.5127928130944,56.27400000003399
312299.2587,373.67892402253653,393.0291264259722,258.5505065030609,467.63965794768177,56.27500000002328
312299.2597,349.1205183901993,363.7554811106961,235.5915664388043,428.3163863697681,56.27600000001257
312299.2607,314.90641222504973,323.9032893369971,205.24656002745124,376.8471918240539,56.27700000000186
312299.2617,271.5286127069282,273.9919663042577,167.8796114516314,313.9023865500898,56.27799999999115
312299.2627,219.7611504659265,214.86693133886683,124.0877279959586,240.52670121357218,56.27900000003865
312299.2637,160.6548654081199,147.69554942496052,74.70059404155124,158.13423883887177,56.28000000002794
312299.2647,95.52167556747123,73.95054588788126,20.77072790796484,68.48891346122282,56.28100000001723
312299.2657,25.908028440004898,-4.619511522447635,-36.44643821783026,-26.33010073789075,56.28200000000652
312299.2667,-46.44221314406121,-86.03241949435149,-95.5224404088512,-123.97763534059283,56.28299999999581
312299.2677,-119.63462690354996,-168.12631687607075,-154.89493884754745,-221.9054569808462,56.28400000004331
312299.2687,-191.67945167846185,-248.62385778080946,-212.91490576830816,-317.4370498315977,56.285000000032596
312299.2697,-260.55329650043626,-325.2044051841621,-267.90010794828305,-407.8517471780243,56.286000000021886
312299.2707,-324.2650490019316,-395.5815656642023,-318.1927402243878,-490.47512025721846,56.287000000011176
312299.2717,-380.9233929263206,-457.5830071355832,-362.2187761225189,-562.7720859929279,56.288000000000466
312299.2727,-428.8031733373272,-509.22927098538685,-398.5464440261107,-622.438916245046,56.288999999989755
312299.2737,-466.40781637513845,-548.808221582305,-425.9412202334016,-667.4902364551391,56.29000000003725
312299.2747,-492.5251189453138,-574.9418739646637,-443.4148523057686,-696.3371977289961,56.29100000002654
312299.2757,-506.2739653587034,-586.6425997655024,-450.26617727434314,-707.8532901331571,56.29200000001583
312299.2767,-507.1398884515033,-583.356118919392,-446.1118622809727,-701.4247236401368,56.29300000000512
312299.2777,-494.9978522659571,-564.9892200404017,-430.9056472889984,-676.9829156999057,56.29399999999441
312299.2787,-470.12116805386626,-531.9207893616584,-404.9451842116597,-635.0173625951235,56.29500000004191
312299.2797,-433.1760387408421,-484.9954362197084,-368.86611608893014,-576.5680014098489,56.2960000000312
312299.2807,-385.2018315101368,-425.4997488017605,-323.6235957779677,-503.1970519893445,56.29700000002049
312299.2817,-327.5777763765009,-355.12196236366054,-270.4619795068126,-416.9412221444155,56.29800000000978
312299.2827,-261.97735415137475,-275.8965384590474,-210.87392269590353,-320.24602176418915,56.29899999999907
312299.2837,-190.31214557345766,-190.13580435831074,-146.55053317811752,-215.8847202676209,56.300000000046566
312299.2847,-114.66734272080802,-100.35135603079452,-79.32458369971643,-106.86515741954187,56.301000000035856
312299.2857,-37.23145555755185,-9.168359288599026,-11.109038847406007,3.6718547477025987,56.302000000025146
312299.2867,39.777033946912624,80.76382894019001,56.16669689160388,112.5584490470952,56.303000000014435
312299.2877,114.18322000931944,166.8611676564987,120.6203571560618,216.70569162229253,56.304000000003725
312299.2887,183.92670187024123,246.6910497001151,180.47782373155357,313.2054387851639,56.304999999993015
312299.2897,247.1272243146775,318.0517080466476,234.1293326692292,399.4241028478034,56.30600000004051
312299.2907,302.14262959072016,379.04193223131904,280.1788886527557,473.084795184203,56.3070000000298
312299.2917,347.6170906003798,428.11859016824,317.48522395591186,532.3349003491647,56.30800000001909
312299.2927,382.518046832413,464.14002645981583,345.19302154499724,575.7968436631779,56.30900000000838
312299.2937,406.16077315190296,486.3940541359222,362.7535444920335,602.6006047015152,56.30999999999767
312299.2947,418.2200501563014,494.60993735194575,369.9342549335921,612.397355618889,56.31100000004517
312299.2957,418.7289454404786,488.95444212356875,366.8174443828453,605.3544210617066,56.31200000003446
312299.2967,408.06523101063715,470.01267683313296,353.78831362849206,582.1325234368388,56.31300000002375
312299.2977,386.9264294001247,438.7550242457688,331.5133175456146,543.8469570998952,56.31400000001304
312299.2987,356.29488027757736,396.4919581182707,300.9099140538656,492.0148989196821,56.31500000000233
312299.2997,317.39453631530483,344.8189229784869,263.10911720130053,428.49149095622647,56.31599999999162
312299.3007,271.641423342859,285.55372532935564,219.41244594207967,355.39761331062647,56.317000000039116
312299.3017,220.5898325134311,220.6690354510946,171.24498043280406,275.04240023963376,56.318000000028405
312299.3027,165.8763536231316,152.22263453944728,120.1062877720067,189.8435471226819,56.319000000017695
312299.3037,109.16381536643586,82.28797082830364,67.52096298644008,102.24832327164894,56.320000000006985
312299.3047,52.087079944467156,12.88742336207021,14.99045477585153,14.657964419778535,56.320999999996275
312299.3057,-3.797542004936914,-54.06957126651609,-36.052283387307554,-70.64220905079745,56.32200000004377
312299.3067,-57.05772162901481,-116.84167855139161,-84.28394923440571,-151.54499278973014,56.32300000003306
312299.3077,-106.42412077780573,-173.90260986123698,-128.5266952870275,-226.1742923840244,56.32400000002235
312299.3087,-150.82200490731734,-223.97872330431073,-167.77765454390507,-292.92783048210373,56.32500000001164
312299.3097,-189.39478863518502,-266.07654044716065,-201.231513436984,-350.5089279066762,56.32600000000093
312299.3107,-221.51914679752693,-299.499819785423,-228.2957157923131,-397.94713733585803,56.32699999999022
312299.3117,-246.81161937042992,-323.8561936302283,-248.5981396332481,-434.6078882907179,56.32800000003772
312299.3127,-265.12691737389264,-339.05371380461867,-261.98733856588586,-460.191633692602,56.32900000002701
312299.3137,-276.54839210146383,-345.28795453697575,-268.5256741904693,-474.7232639715186,56.3300000000163
312299.3147,-281.37135619107437,-343.02058144378054,-268.4758793137503,-478.53277118358295,56.33100000000559
312299.3157,-280.0801378202387,-332.95050868480246,-262.2817784205495,-472.2283029135609,56.33199999999488
312299.3167,-273.3199054493688,-315.97892931708424,-250.54404758478088,-456.66284713747456,56.333000000042375
312299.3177,-261.8644179410668,-293.16961550836464,-233.99201746839887,-432.8958406107528,56.334000000031665
312299.3187,-246.58093255171244,-265.7059463676583,-213.45260805189716,-402.15100270230647,56.335000000020955
312299.3197,-228.39354132135895,-234.84613423128755,-189.81753115852047,-365.7716732218192,56.336000000010245
312299.3207,-208.24620592487668,-201.87808941381743,-164.00990671238708,-325.1748864991961,56.336999999999534
312299.3217,-187.06672419201183,-168.0752941249285,-136.9514121825264,-281.80535419150175,56.337999999988824
312299.3227,-165.73279116688332,-134.65495484631074,-109.5310240871037,-237.09046413308073,56.33900000003632
312299.3237,-145.0412172905117,-102.7395758228027,-82.57631906529721,-192.39733798841002,56.34000000002561
312299.3247,-125.68123999124757,-73.32295127060425,-56.828184061598535,-148.99292967960875,56.3410000000149
312299.3257,-108.21271677856552,-47.24141667944841,-32.91964550439427,-108.00808947998715,56.34200000000419
312299.3267,-93.0498219564287,-25.151035350886232,-11.359371347362906,-70.40646194288783,56.34299999999348
312299.3277,-80.45068923035323,-7.511228804160501,7.479767008530696,-36.95902318705975,56.34400000004098
312299.3287,-70.51325245994273,5.42480897333574,23.36685820715033,-8.224986048035248,56.34500000003027
312299.3297,-63.17734008351803,13.612742642345209,36.21379793632855,15.460299187747003,56.34600000001956
312299.3307,-58.23287874703054,17.21277149458904,46.070946408000765,33.98995425446236,56.34700000000885
312299.3317,-55.33386206116006,16.57852234206865,53.11788447456879,47.48237144088566,56.34799999999814
312299.3327,-54.0175453859192,12.239507115135103,57.64970676816424,56.27009592666596,56.349000000045635
312299.3337,-53.72814213492945,4.877671918860883,60.05942661963774,60.880943788923396,56.350000000034925
312299.3347,-53.844127345737476,-4.701255366129195,60.81718721035975,62.01179881153693,56.351000000024214
312299.3357,-53.70810720280519,-15.60073421044565,60.44707350982843,60.49584391297273,56.352000000013504
312299.3367,-52.65809654843839,-26.86964418418546,59.50239691789555,57.264299434309855,56.353000000002794
312299.3377,-50.05896805508234,-37.54057794939629,58.540375855754114,53.3040393924619,56.353999999992084
312299.3387,-45.332803954665664,-46.668869449502544,58.097157573338116,49.612715060128835,56.35500000003958
312299.3397,-37.98689987343068,-53.370950336775245,58.66411630648409,47.153210341106494,56.35600000002887
312299.3407,-27.63824394119329,-56.86059610539282,60.666318630715026,46.80936566819567,56.35700000001816
312299.3417,-14.033423424080151,-56.48165082190253,64.44396776718487,49.34492187915647,56.35800000000745
312299.3427,2.936907380972685,-51.73591123755678,70.23752581042415,55.36754480970742,56.35899999999674
312299.3437,23.229637114703397,-42.30500869125222,78.17706952096371,65.2995951513449,56.36000000004424
312299.3447,46.64726178915244,-28.065347008366626,88.2762667297338,79.35701464899411,56.36100000003353
312299.3457,72.8424955511832,-9.095428081218163,100.43117375038496,97.53732488203798,56.36200000002282
312299.3467,101.3292278412666,14.324788995557302,114.42385822703176,119.61730104894458,56.36300000001211
312299.3477,131.49934411909683,41.72251097791086,129.93065618250077,145.16041723016247,56.3640000000014
312299.3487,162.64466884182173,72.44838756224695,146.53468641480183,173.53369052866057,56.36499999999069
312299.3497,193.98306909460103,105.69978420908758,163.74207885786822,203.93310785044068,56.366000000038184
312299.3507,224.6875862004144,140.55009415850358,181.00123367423106,235.41642660881396,56.367000000027474
312299.3517,253.91734824446323,175.98288235951,197.72432026113663,266.94182016284253,56.368000000016764
312299.3527,280.8489622744582,210.92946265018645,213.31015325895197,297.41060489451036,56.369000000006054
312299.3537,304.7070906118587,244.30838489462067,227.1675468939557,325.7121461067413,56.36999999999534
312299.3547,324.7929773674383,275.0652536916133,238.73824826456107,350.768995170852,56.37100000004284
312299.3557,340.5098022648606,302.21131321395666,247.5185815275914,371.58035534310454,56.37200000003213
312299.3567,351.383890760522,324.8593086733297,253.0789943765711,387.26209853058197,56.37300000002142
312299.3577,357.08099287439296,342.25526628176345,255.0807814163872,397.08174715802187,56.37400000001071
312299.3587,357.41704884911604,353.8050114624587,253.2893620168817,400.4870800433974,56.375
312299.3597,352.3630792637057,359.0944601824359,247.58360971501463,397.127304951726,56.37599999998929
312299.3607,342.0440633160872,357.90296183866127,237.9608639261559,386.86605073961516,56.37700000003679
312299.3617,326.7318957789227,350.2092362463406,224.53740116065214,369.7857581307273,56.37800000002608
312299.3627,306.83273587374777,336.1897250310553,207.54430110232775,346.1833815070878,56.37900000001537
312299.3637,282.8692758651877,316.2094628194365,187.3188115633816,316.5576474186644,56.38000000000466
312299.3647,255.4586593569582,290.80585977812314,164.29149327501125,281.5884421215087,56.380999999993946
312299.3657,225.2869641291441,260.66606728567587,138.9696067647829,242.10921323202868,56.382000000041444
312299.3667,193.08132565556403,226.59886450778743,111.9173829912181,199.07356107728256,56.383000000030734
312299.3677,159.58090742976424,189.5022453324597,83.73398826137657,153.51745318230778,56.38400000002002
312299.3687,125.50801384701154,150.32809078151345,55.030141350895796,106.51870828013908,56.38500000000931
312299.3697,91.5406809374837,110.0454687799827,26.40445433451488,59.155550584121556,56.3859999999986
312299.3707,58.2880604720325,69.60419804065722,-1.5793641758309565,12.466116888872495,56.3870000000461
312299.3717,26.26982643555936,29.90033406818578,-28.413295250945513,-32.5892042544745,56.38800000003539
312299.3727,-4.099324570848395,-8.254826005140957,-53.66269401756452,-75.16081999286543,56.38900000002468
312299.3737,-32.519235342134635,-44.16077141487426,-76.9799081806129,-114.53678307239754,56.39000000001397
312299.3747,-58.807361224752526,-77.2476246104002,-98.11306321676054,-150.16215433544696,56.39100000000326
312299.3757,-82.89514804533432,-107.0889057487625,-116.90950519567662,-181.64997009152808,56.39199999999255
312299.3767,-104.81788813339669,-133.4066906155486,-133.31369914275663,-208.7833593515345,56.39300000004005
312299.3777,-124.69861964757352,-156.06905854873406,-147.35971756352455,-231.50885471772813,56.39400000002934
312299.3787,-142.72701255307695,-175.08016616212564,-159.15879734642843,-249.92145516453203,56.39500000001863
312299.3797,-159.1345216786946,-190.5637116836254,-168.88276861814657,-264.2424946850282,56.396000000007916
312299.3807,-174.16735693000285,-202.74094388594366,-176.74444099025715,-274.7918122246127,56.396999999997206
312299.3817,-188.0589998691362,-211.90469065659786,-182.97624789213066,-281.9560716312658,56.3980000000447
312299.3827,-201.00406689444458,-218.39111086046634,-187.8085795052696,-286.15531648643855,56.39900000003399
312299.3837,-213.13527187102295,-222.5509910130695,-191.44926649163776,-287.80994225911957,56.40000000002328
312299.3847,-224.50507354230479,-224.72240500286816,-194.06560498852932,-287.31021584966055,56.40100000001257
312299.3857,-235.07331280512307,-225.20642932122962,-195.77014113552616,-284.99027041290105,56.40200000000186
312299.3867,-244.7017683515907,-224.24736611043082,-196.61117180009205,-281.1081636862794,56.40299999999115
312299.3877,-253.15611073773562,-222.01858907724332,-196.5685857736457,-275.8331349030304,56.40400000003865
312299.3887,-260.1152455471022,-218.61471815102823,-195.55529127133062,-269.24066286302923,56.40500000002794
312299.3897,-265.1875411072745,-214.05037894152406,-193.42408007594634,-261.31535749121525,56.40600000001723
312299.3907,-267.932971828977,-208.26534733630868,-189.97939699424037,-251.96115491131832,56.40700000000652
312299.3917,-267.88980984592763,-201.13545329693827,-184.99314558996122,-241.0177773968679,56.40799999999581
312299.3927,-264.604195935555,-192.48825383251454,-178.22339418673735,-228.28200601575,56.40900000004331
312299.3937,-257.66073913209794,-182.12221045818586,-169.43467080834873,-213.53202861038818,56.410000000032596
312299.3947,-246.71224690363653,-169.82794026300877,-158.41846507436048,-196.5529905972945,56.411000000021886
312299.3957,-231.50677710049473,-155.41006111019718,-145.01259286979626,-177.161898628834,56.412000000011176
312299.3967,-211.9104203397539,-138.70821866927105,-129.11821984682032,-155.23020020852235,56.413000000000466
312299.3977,-187.924547249853,-119.61605340852333,-110.71356711719919,-130.70266427188207,56.413999999989755
312299.3987,-159.6966598139867,-98.09711740312102,-89.86361350024097,-103.6115846150139,56.41500000003725
312299.3997,-127.52443388237124,-74.19705476975541,-66.72543432331403,-74.08577710754126,56.41600000002654
312299.4007,-91.85299134705484,-48.05168265543339,-41.549145155662906,-42.354295766430894,56.41700000001583
312299.4017,-53.26585653128947,-19.890918514259507,-14.674718619177836,-8.745205635011878,56.41800000000512
312299.4027,-12.470397446736209,9.9612362974332,13.474813987380806,26.319918533914993,56.41899999999441
312299.4037,29.721197992339235,41.0902503827364,42.403097854666704,62.334879794132895,56.42000000004191
312299.4047,72.41422403172008,72.99763369371706,71.55237021393344,98.72015438027265,56.4210000000312
312299.4057,114.65583059878284,105.10997895325434,100.31681189904958,134.83565605984072,56.42200000002049
312299.4067,155.460349397884,136.78997681120475,128.05668355869227,169.99418553931758,56.42300000000978
312299.4077,193.8346295808168,167.34902104144425,154.1127507163864,203.4750234785469,56.42399999999907
312299.4087,228.80267481978467,196.06116899881746,177.8206943381583,234.53741742501867,56.425000000046566
312299.4097,259.42913282025495,222.1783781324631,198.52540313209008,262.4340101174271,56.426000000035856
312299.4107,284.841435881864,244.9470711829417,215.59522007992928,286.42451484178105,56.427000000025146
312299.4117,304.25059379369645,263.6261634967023,228.43634138658723,305.7901234925808,56.428000000014435
312299.4127,316.97077154617614,277.5066950801623,236.5076202636275,319.8492049767827,56.429000000003725
312299.4137,322.4378272245994,285.9331364487946,239.3359989173314,327.97479909964295,56.429999999993015
312299.4147,320.2269348838817,288.32628096463395,236.53267857016044,329.6142328440029,56.43100000004051
312299.4157,310.0692803188717,284.20740857991854,227.80994900558116,324.3108962904628,56.4320000000298
312299.4167,291.86761298806437,273.2231284849786,212.99835566710829,311.7278426881603,56.43300000001909
312299.4177,265.7101927602629,255.17001100106754,192.0636113410011,291.67246079922694,56.43400000000838
312299.4187,231.8824196213633,230.01783701315364,165.12239343313743,264.12105391423205,56.43499999999767
312299.4197,190.8752143555563,197.93006234362278,132.45594080086406,229.24179720850725,56.43600000004517
312299.4207,143.38906322708382,159.2799480705658,94.52020784199841,187.41427874102882,56.43700000003446
312299.4217,90.33257915257003,114.6607729485758,51.951274348706946,139.24369713853358,56.43800000002375
312299.4227,32.81448649277177,64.88863861784449,5.564765423602391,85.56781717680016,56.43900000001304
312299.4237,-27.87188376517656,10.996608760622442,-43.65178587052341,27.454985281675434,56.44000000000233
312299.4247,-90.2721993129186,-45.7807158322586,-94.55440318632382,-33.80812280248889,56.44099999999162
312299.4257,-152.80303263664828,-104.03261080671086,-145.86632768673397,-96.73982889325923,56.442000000039116
312299.4267,-213.79177520794977,-162.20749708282466,-196.2097635253275,-159.69802125540272,56.443000000028405
312299.4277,-271.523726350172,-218.65732650736112,-244.14507060762108,-220.92541947804258,56.444000000017695
312299.4287,-324.2949764228556,-271.68973616215425,-288.2162342902666,-278.6042536203077,56.445000000006985
312299.4297,-370.46919508687114,-319.62605421768575,-327.00094301080674,-330.9183737544834,56.445999999996275
312299.4307,-408.53600837939894,-360.8627561779322,-359.163180843501,-376.1201926491161,56.44700000004377
312299.4317,-437.16834259481436,-393.9336108099884,-383.5059288931003,-412.5993898543822,56.44800000003306
312299.4327,-455.27596019581455,-417.5695517298855,-399.0213963288543,-438.95001084555145,56.44900000002235
312299.4337,-462.0524340656885,-430.75328468895276,-404.93618804895226,-454.03250844912566,56.45000000001164
312299.4347,-457.01300929029486,-432.7658006644829,-400.7489691833615,-457.02740859318897,56.45100000000093
312299.4357,-440.02118009033427,-423.22230584790054,-386.2585020450265,-447.47763493042476,56.45199999999022
312299.4367,-411.30234305552017,-402.09558281855124,-361.58039129855564,-425.3170768074413,56.45300000003772
312299.4377,-371.44354297064274,-369.72543129233463,-327.15144905090784,-390.88369671347834,56.45400000002701
312299.4387,-321.37906012609494,-326.81356014565785,-283.7212447746841,-344.9162982738588,56.4550000000163
312299.4397,-262.36234672106553,-274.4040659819272,-232.33109033962234,-288.53495661911757,56.45600000000559
312299.4407,-195.92555048133863,-213.85038499301263,-174.28137984301426,-223.20598781729478,56.45699999999488
312299.4417,-123.82851332893758,-146.77029285496664,-111.08881030824084,-150.69314211831542,56.458000000042375
312299.4427,-47.999655658293996,-74.99110573407039,-44.43551067237697,-72.99739216663436,56.459000000031665
312299.4437,29.52848311393387,-0.4876672426247232,23.887530355636816,7.711792065746203,56.460000000020955
312299.4447,106.68610131817444,74.68403315950063,92.04014337987375,89.1704648543517,56.461000000010245
312299.4457,181.43245735817098,148.4546854154341,158.1931338144913,169.0961896642129,56.461999999999534
312299.4467,251.81892078414234,218.8080998796085,220.58640773101666,245.262742329929,56.462999999988824
312299.4477,316.0463656986884,283.8436906997702,277.58282764673055,315.57055920267413,56.46400000003632
312299.4487,372.5149890767707,341.8328095241521,327.7159342082375,378.11037854678125,56.46500000002561
312299.4497,419.86517933133695,391.26720664516324,369.7301189114202,431.21805087121453,56.4660000000149
312299.4507,457.0086287982494,430.89841052128867,402.61231381659394,473.51907829179066,56.46700000000419
312299.4517,483.14943111202206,459.76733222251465,425.61473644837326,503.9620355554835,56.46799999999348
312299.4527,497.795390052626,477.22388023162665,438.26865643182396,521.840581750077,56.46900000004098
312299.4537,500.76015932254734,482.9367825664874,440.38950776654025,526.8042561984525,56.47000000003027
312299.4547,492.1571138378648,476.89413697948265,432.07394010168457,518.858640060968,56.47100000001956
312299.4557,472.3860164933572,459.39543705008884,413.6895782179367,498.3557448186482,56.47200000000885
312299.4567,442.1135966083728,431.03595456676766,385.85834617138346,465.9756607212273,56.47299999999814
312299.4577,402.24911487930956,392.68440882060145,349.43422543789916,422.70057426196314,56.474000000045635
312299.4587,353.91588025280413,345.45484094425495,305.47627586808466,369.7822642530388,56.475000000034925
312299.4597,298.41953688944204,290.67356034105535,255.217678913688,308.704136971582,56.476000000024214
312299.4607,237.21378532611192,229.84196580991846,200.0314893188857,241.13878970998263,56.477000000013504
312299.4617,171.8640692482479,164.59598930990254,141.39372631283726,168.90202461959413,56.478000000002794
312299.4627,104.00967017824937,96.6628836170741,80.84441476047853,93.90419171883173,56.478999999992084
312299.4637,35.324620866021135,27.816087594539248,19.947209723649692,18.09973475151878,56.48000000003958
312299.4647,-32.522121241221704,-40.17104252838417,-39.75169495857706,-56.564149016231866,56.48100000002887
312299.4657,-97.90671141511223,-105.57175580090734,-96.76456986819025,-128.1987480927291,56.48200000001816
312299.4667,-159.29000583959805,-166.75168699384375,-149.70213570420543,-195.02388594490105,56.48300000000745
312299.4677,-215.2558863621538,-222.21277657639988,-197.31147589063644,-255.41558062471012,56.48399999999674
312299.4687,-264.547355007004,-270.63410543917786,-238.51071603843113,-307.95001931776335,56.48500000004424
312299.4697,-306.0993062777129,-310.90835110657474,-272.4192506086452,-351.4424935630305,56.48600000003353
312299.4707,-339.0668117043145,-342.17256224596315,-298.38230263182834,-384.97994085503325,56.48700000002282
312299.4717,-362.84774895914035,-363.832012927455,-315.9886878409128,-407.9458139133442,56.48800000001211
312299.4727,-377.09869042795907,-375.5760469233128,-325.08082766727745,-420.03616045545067,56.4890000000014
312299.4737,-381.7431385210477,-377.38505716245794,-325.75631530637327,-421.26604620377134,56.48999999999069
312299.4747,-376.97145356114993,-369.5280596796498,-318.3606756682081,-411.9657857961257,56.491000000038184
312299.4757,-363.23215243422834,-352.5507002634586,-303.47135532195813,-392.7668454559721,56.492000000027474
312299.4767,-341.2146422757874,-327.253953624136,-281.8734073808808,-364.5777254083326,56.493000000016764
312299.4777,-311.823867230783,-294.6642119942367,-254.527768635817,-328.5505909980712,56.494000000006054
312299.4787,-276.14775796801456,-255.99588226501007,-222.5334298596033,-286.03986768325404,56.49499999999534
312299.4797,-235.41875221891272,-212.60798720781372,-187.08514343413196,-238.55441414151414,56.49600000004284
312299.4807,-190.97097081134154,-165.95656845928286,-149.4285671881029,-187.70520930277726,56.49700000003213
312299.4817,-144.1948623512172,-117.54489304786684,-110.8148876147393,-135.15070769728206,56.49800000002142
312299.4827,-96.49125220300644,-68.8735546589938,-72.4569857504254,-82.54211483428458,56.49900000001071
312299.4837,-49.22673724972164,-21.39252760946995,-35.48910085735539,-31.47080127066046,56.5
312299.4847,-3.6922557838541668,23.5429227891638,-0.9317167609791445,16.58008835098335,56.50099999998929
312299.4857,38.933560092099725,64.71083400107092,30.336940846663534,60.27805530787382,56.50200000003679
312299.4867,77.61495710223596,101.05435893257766,57.60182614012463,98.47629712290751,56.50300000002608
312299.4877,111.48264965804397,131.7059295987756,80.32391300642321,130.2404350007883,56.50400000001537
312299.4887,139.8499390134877,156.00335268088358,98.14493699339303,154.86644497177568,56.50500000000466
312299.4897,162.22130680622817,173.49786451245586,110.88448827829207,171.88979733357272,56.505999999993946
312299.4907,178.29383234749906,183.95458501769122,118.53031587548011,181.08625020524147,56.507000000041444
312299.4917,187.95213467048166,187.34615885608952,121.2230323942162,182.46511682162378,56.508000000030734
312299.4927,191.25781499340277,183.84063530097535,119.23663439544929,176.25610895824917,56.50900000002002
312299.4937,188.43455691463964,173.784802167251,112.95636371309283,162.89103583875107,56.51000000000931
312299.4947,179.85012288035864,157.68424849763426,102.85542777133762,142.98170413644266,56.5109999999986
312299.4957,165.9964676199943,136.18138995701867,89.47197938236242,117.29532511308739,56.5120000000461
312299.4967,147.4690819782928,110.03256252013095,73.3875448152678,86.72860319143128,56.51300000003539
312299.4977,124.94650053948396,80.08509335651657,55.20780603513421,52.28147701069037,56.51400000002468
312299.4987,99.17067548282283,47.2550167626601,35.54631650481089,15.031234723349561,56.51500000001397
312299.4997,70.9286621062947,12.50584380834758,15.011389539672031,-23.89254227646557,56.51600000000326
312299.5007,41.035804043529964,-23.171456785203137,-5.803926766853338,-63.33201122470342,56.51699999999255
312299.5017,10.320372579643829,-58.777328260379925,-26.32915698569454,-102.12410312367479,56.51800000004005
312299.5027,-20.39057453938756,-93.32157526902303,-46.02157619999792,-139.12275688065256,56.51900000002934
312299.5037,-50.284477960626475,-125.84072431234179,-64.36998597556499,-173.2206454717054,56.52000000001863
312299.5047,-78.57612671786897,-155.41515468946633,-80.89786813519805,-203.37070517552704,56.521000000007916
312299.5057,-104.520479834246,-181.18631350794058,-95.16665962569486,-228.60771649914966,56.521999999997206
312299.5067,-127.42578131092846,-202.3742139165345,-106.77977382325675,-248.07004873088084,56.5230000000447
312299.5077,-146.6671458267358,-218.29524489982046,-115.38780761824903,-261.02148224683356,56.52400000003399
312299.5087,-161.70060354232027,-228.38011084799408,-120.69513847588104,-266.87278299963316,56.52500000002328
312299.5097,-172.07737832092053,-232.19149058734453,-122.46785411558862,-265.2024460386556,56.52600000001257
312299.5107,-177.45795622240388,-229.44078171443408,-120.54269414938499,-255.7757764987716,56.52700000000186
312299.5117,-177.62530275648695,-220.003100431583,-114.83644256928484,-238.56126526093345,56.52799999999115
312299.5127,-172.49642941995572,-203.92956173778572,-105.35501495762298,-213.74306909861178,56.52900000003865
312299.5137,-162.131410948064,-181.45578869837917,-92.20135348392473,-181.72834451141236,56.53000000002794
312299.5147,-146.7389285296473,-153.00560668434346,-75.58118962088442,-143.1482275392451,56.53100000001723
312299.5157,-126.67746936810745,-119.18897684729184,-55.80576615404033,-98.85140763105332,56.53200000000652
312299.5167,-102.45145132002631,-80.79341345805116,-33.2907266050216,-49.889511758858575,56.53299999999581
312299.5177,-74.70175793494465,-38.768405284302915,-8.550574762199624,2.5061149206117372,56.53400000004331
312299.5187,-44.1904523314989,5.797292329818744,17.811633750687754,56.9561935526143,56.535000000032596
312299.5197,-11.779770172976034,51.70523152153272,45.11940086044362,111.97331772763282,56.536000000021886
312299.5207,21.59415014936525,97.68302867342919,72.64240125802041,166.00871466033334,56.537000000011176
312299.5217,54.951984099419114,142.4252060379016,99.61998210692408,217.50439268705938,56.538000000000466
312299.5227,87.30523751604004,184.6376425175261,125.2876267220178,264.9486646914799,56.538999999989755
312299.5237,117.69213876333971,223.08384583770524,148.90521272012612,306.9326921320164,56.54000000003725
312299.5247,145.21378107244064,256.6310373774867,169.78571578972534,342.2054760787181,56.54100000002654
312299.5257,169.06878263770528,284.29393016543446,187.32291451187223,369.7246508683726,56.54200000001583
312299.5267,188.58473012018467,305.27409126793935,201.01664711295751,388.70052242300414,56.54300000000512
312299.5277,203.24477748409498,318.9929144390956,210.49425815349574,398.63103486877947,56.54399999999441
312299.5287,212.7079814857144,325.116480933031,215.5270455874631,399.3257322483786,56.54500000004191
312299.5297,216.82225488257015,323.5709409862996,216.04076388580668,390.9172831643415,56.5460000000312
312299.5307,215.62918922682482,314.54748399079995,212.11953973537425,373.8597236805905,56.54700000002049
312299.5317,209.36041683082476,298.4964552599418,204.0028928394186,348.9132114351802,56.54800000000978
312299.5327,198.42561930889667,276.11069243288523,192.075903982476,317.11573362965976,56.54899999999907
312299.5337,183.3927206804042,248.29866561570344,176.85291481704587,279.74283655788224,56.550000000046566
312299.5347,164.9612006619854,216.14848485912225,158.9554599985823,238.25701161094437,56.551000000035856
312299.5357,143.92980620154,180.88426264406988,139.08540688881004,194.2488549110088,56.552000000025146
312299.5367,121.16020898244284,143.81666856658617,117.99449959992637,149.3724943377915,56.553000000014435
312299.5377,97.53834154669748,106.2897745960383,96.45166532426867,105.27803530602603,56.554000000003725
312299.5387,73.93523858048722,69.62645371190803,75.2095381685789,63.54390864508393,56.554999999993015
312299.5397,51.16921195803795,35.07465896706887,54.97168877083257,25.612009774677134,56.55600000004051
312299.5407,29.971102321184034,3.7568749349203174,36.36201891360522,-7.271597501127389,56.5570000000298
312299.5417,10.954184144583527,-23.375096576818063,19.897692877780344,-34.10786852248206,56.55800000001909
312299.5427,-5.409933821666999,-45.578072638455794,5.966836101057479,-54.185643965770694,56.55900000000838
312299.5437,-18.808362350228258,-62.346499890035915,-5.187957903663194,-67.1104020816757,56.55999999999767
312299.5447,-29.096223334152032,-73.43125693638942,-13.479503702633098,-72.81959769232175,56.56100000004517
312299.5457,-36.29782440679343,-78.84738506433848,-18.978743084022668,-71.5838381787535,56.56200000003446
312299.5467,-40.599736169160686,-78.87034429582557,-21.910064621740673,-63.993733493807845,56.56300000002375
312299.5477,-42.33616355895337,-74.02087713097616,-22.639298790046,-50.93286055383107,56.56400000001304
312299.5487,-41.967357420708396,-65.03905490086899,-21.654791150478104,-33.53787963554759,56.56500000000233
312299.5497,-40.052134756529746,-52.84856210685812,-19.542280867324823,-13.147407642116528,56.56599999999162
312299.5507,-37.21585244183021,-38.512721950583355,-16.954619832336114,8.758234397665781,56.567000000039116
312299.5517,-34.11539652978807,-23.18416049569596,-14.577643744937713,30.62384881049018,56.568000000028405
312299.5527,-31.40289657536827,-8.05032719690637,-13.09373498379199,50.88988122024157,56.569000000017695
312299.5537,-29.689943112593664,5.722682587391726,-13.144783108506147,68.06353975123685,56.570000000006985
312299.5547,-29.51407115391932,17.045437236471578,-15.296339348390745,80.78734527966785,56.570999999996275
312299.5557,-31.309171817067824,24.957042838453788,-20.00476658355759,87.90201371287561,56.57200000004377
312299.5567,-35.381310663101914,28.671134956043506,-27.589100389350506,88.50078618038995,56.57300000003306
312299.5577,-41.8911722396754,27.613784701451564,-38.20915895419966,81.97267759325587,56.57400000002235
312299.5587,-50.84402716987548,21.45147217090248,-51.851174765656516,68.03259468884212,56.57500000001164
312299.5597,-62.08774626457946,10.107735412849593,-68.32187902365467,46.736860841194776,56.57600000000093
312299.5607,-75.31898399340064,-6.2323640516047245,-87.25156601309742,18.4833499932332,56.57699999999022
312299.5617,-90.09724169469114,-27.130233318826125,-108.10621872224122,-16.003855152260552,56.57800000003772
312299.5627,-105.86612044123034,-51.91386436683316,-130.20831167044085,-55.704639244894075,56.57900000002701
312299.5637,-121.98070537024554,-79.70914166992331,-152.76544700986045,-99.34651882243274,56.5800000000163
312299.5647,-137.73970673920263,-109.48084822168998,-174.90555081117253,-145.4598015896147,56.58100000000559
312299.5657,-152.42073445703193,-140.0813855993872,-195.71698240540738,-192.44168807650556,56.58199999999488
312299.5667,-165.31691526938565,-170.30482720662684,-214.29161275774095,-238.62632236946234,56.583000000042375
312299.5677,-175.7729839151413,-198.94364396344346,-229.7687265155819,-282.3574988209376,56.584000000031665
312299.5687,-183.2189957582562,-224.84529453779618,-241.37751036275873,-322.0605900943814,56.585000000020955
312299.5697,-187.19991848540198,-246.9658673303796,-248.4759158941269,-356.31028842436297,56.586000000010245
312299.5707,-187.39955993020337,-264.41810140716166,-250.58383059955824,-383.89094848898816,56.586999999999534
312299.5717,-183.65756929205446,-276.5113936706017,-247.4087515145948,-403.84668037959455,56.587999999988824
312299.5727,-175.9785974811497,-282.7818076766329,-238.86252199842335,-415.5188499122361,56.58900000003632
312299.5737,-164.5331030739642,-283.0106164746691,-225.06814603607563,-418.56927778886137,56.59000000002561
312299.5747,-149.64972436313948,-277.23051203426894,-206.35621380662752,-412.9881580707409,56.5910000000149
312299.5757,-131.79958365250002,-265.7192660794319,-183.2510295253886,-399.08650272320426,56.59200000000419
312299.5767,-111.5733238953776,-248.9812961911272,-156.44709663208081,-377.4737203848013,56.59299999999348
312299.5777,-89.65207580334669,-227.71823919888868,-126.7771531050854,-349.0217090471089,56.59400000004098
312299.5787,-66.77389193510437,-202.79022326852137,-95.17342780928948,-314.8175389890822,56.59500000003027
312299.5797,-43.697441299512946,-175.17002499113178,-62.624176266160696,-276.10738201471605,56.59600000001956
312299.5807,-21.164915678169223,-145.8926671828465,-30.12782451553103,-234.23476975807725,56.59700000000885
312299.5817,0.13385539559125897,-116.00323314433157,1.3528169545855515,-190.5765104747389,56.59799999999814
312299.5827,19.59415598465628,-86.50572915271209,30.933821956017983,-146.47964465839783,56.599000000045635
312299.5837,36.72426379100217,-58.31571502817419,57.84861649774642,-103.20267236205468,56.600000000034925
312299.5847,51.16701362786774,-32.21915021387235,81.47966535070617,-61.86395025819765,56.601000000024214
312299.5857,62.713977985154145,-8.839488605131663,101.3818191748785,-23.399658320753048,56.602000000013504
312299.5867,71.31163863635172,11.385471965060468,117.29627681773444,11.466889998613789,56.603000000002794
312299.5877,77.05939475219861,28.216083568464544,129.15468464866404,42.243530030659414,56.603999999992084
312299.5887,80.1997231442496,41.61242218600431,137.07347689001952,68.67480097171706,56.60500000003958
312299.5897,81.10124277468086,51.72530921369455,141.33911756013615,90.73518305604682,56.60600000002887
312299.5907,80.23580936482048,58.87772846946526,142.38539839888864,108.61109210833206,56.60700000001816
312299.5917,78.15105328417268,63.5380811279511,140.76434648969888,122.67326929023662,56.60800000000745
312299.5927,75.43995897951187,66.28710072232445,137.1125771671032,133.4416318327978,56.60899999999674
312299.5937,72.7091598718464,67.78049676389476,132.11507924974708,141.5449245358027,56.61000000004424
312299.5947,70.54759083840713,68.70950098541921,126.46843844397901,147.67762485097376,56.61100000003353
312299.5957,69.49701148614868,69.76145799093612,120.84539904365,152.55651170711306,56.61200000002282
312299.5967,70.02570481852668,71.58244544070229,115.86245094311737,156.8791260841681,56.61300000001211
312299.5977,72.5063899996825,74.74364924559669,112.05183256408031,161.28605472806248,56.6140000000014
312299.5987,77.19908972882372,79.71288382077962,109.83898903722913,166.32858847808276,56.61499999999069
312299.5997,84.23938735621442,86.83226655759874,109.52614894877684,172.4428777455789,56.616000000038184
312299.6007,93.63221917868678,96.3026599044325,111.28231112618431,179.93126414028038,56.617000000027474
312299.6017,105.25109205610131,108.17511207695333,115.13959075433297,188.95104081169353,56.618000000016764
312299.6027,118.84240874355855,122.34918222446895,120.99558163671313,199.51051145014895,56.619000000006054
312299.6037,134.03443000176182,138.57774553987156,128.62116204471235,211.47189898957177,56.61999999999534
312299.6047,150.35030415581602,156.4776489773933,137.6730115346684,224.56041196783752,56.62100000004284
312299.6057,167.22454609878193,175.54543238288858,147.71001452876177,238.37861321704656,56.62200000003213
312299.6067,184.02233893939555,195.17723967705365,158.21269629823664,252.42514839636982,56.62300000002142
312299.6077,200.06104963971626,214.69201137948093,168.60485630912714,266.1168706118546,56.62400000001071
312299.6087,214.63338080979156,233.35706029772703,178.27661756545612,278.8134268682006,56.625
312299.6097,227.03161053795532,250.4151715481568,186.60818223430772,289.84343441244465,56.62599999998929
312299.6107,236.57238914555427,265.11242097555,192.9936577928722,298.53145163120166,56.62700000003679
312299.6117,242.6215581099505,276.7259589847499,196.8643810564553,304.2250221911507,56.62800000002608
312299.6127,244.61842882455574,284.5910496306664,197.7112106028251,306.3211293633146,56.62900000001537
312299.6137,242.09890928999707,288.12668188003715,195.10527720727123,304.2914319202239,56.63000000000466
312299.6147,234.7168023352085,286.85908068191156,188.7166782995688,297.70566167055455,56.630999999993946
312299.6157,222.26253112056781,280.44244428431676,178.33058272178238,286.2525498051507,56.632000000041444
312299.6167,204.67849132413173,268.6762298242107,163.86018712752806,269.75762450759635,56.633000000030734
312299.6177,182.07020102256112,251.51831335473975,145.3559490787071,248.19719965278682,56.63400000002002
312299.6187,154.7124349924342,229.09337632614802,123.01052925839875,221.70787010315587,56.63500000000931
312299.6197,123.04960376154405,201.6959308440112,97.15892036163125,190.59085944316118,56.6359999999986
312299.6207,87.68977875099691,169.78750126110828,68.27333445127786,155.31064513011847,56.6370000000461
312299.6217,49.39197692037302,133.9876363681869,36.9525706069216,116.48742388382263,56.63800000003539
312299.6227,9.046598141794085,95.05863597569636,3.9057913893354104,74.88318063407173,56.63900000002468
312299.6237,-32.350754686771566,53.88413336126021,-30.06910582526461,31.38138437725078,56.64000000001397
312299.6247,-73.73146701869122,11.441970028386127,-64.11204079497605,-13.039356707700245,56.64100000000326
312299.6257,-113.9911192702161,-31.227885153795707,-97.33142847587067,-57.33700818592848,56.64199999999255
312299.6267,-152.03033602518784,-73.05930540500046,-128.8378747547018,-100.44216941940309,56.64300000004005
312299.6277,-186.79757403040037,-112.99850712662936,-157.77950069879378,-141.297131170302,56.64400000002934
312299.6287,-217.33188994704105,-150.04348604103004,-183.37728310496354,-178.89630099372107,56.64500000001863
312299.6297,-242.80357689048435,-183.2826262342806,-204.95865868341653,-212.32616252948333,56.646000000007916
312299.6307,-262.5505313397332,-211.93064834668874,-221.98760160962976,-240.80283010439723,56.646999999997206
312299.6317,-276.1083215340729,-235.360099132185,-234.08946247575986,-263.7052713069809,56.6480000000447
312299.6327,-283.232176977208,-253.12673381357635,-241.06905488956534,-280.60240495948585,56.64900000003399
312299.6337,-283.9094966359456,-264.9874015977949,-242.92078797361398,-291.27253751143684,56.65000000002328
312299.6347,-278.3619599834303,-270.9094004992853,-239.83005239117367,-295.71396413909997,56.65100000001257
312299.6357,-267.03688922964153,-271.0706986998825,-232.16554847250802,-294.1460089377707,56.65200000000186
312299.6367,-250.58811421252898,-265.8508975146438,-220.4627643210478,-287.00028101686206,56.65299999999115
312299.6377,-229.8471903696973,-255.81330262062306,-205.39933165807912,-274.9024446662517,56.65400000003865
312299.6387,-205.78637132095525,-241.6789411178315,-187.76346873295105,-258.6453052302218,56.65500000002794
312299.6397,-179.4752007682953,-224.29377968510087,-168.41712661118737,-239.15446322682766,56.65600000001723
312299.6407,-152.0329309100751,-204.59073599888518,-148.2557574094776,-217.44815836429288,56.65700000000652
312299.6417,-124.5791740047273,-183.54831161978788,-128.1667994402255,-194.59319125880984,56.65799999999581
312299.6427,-98.18524004212954,-162.1477987445947,-108.98901453661577,-171.65896228614523,56.65900000004331
312299.6437,-73.8285094914215,-141.33102422945538,-91.4747184335528,-149.67170251188284,56.660000000032596
312299.6447,-52.351950640711024,-121.96049981577158,-76.25672839772831,-129.57089860660128,56.661000000021886
312299.6457,-34.430540952781854,-104.78366270596904,-63.82153507266254,-112.1697469755375,56.662000000011176
312299.6467,-20.54592292758028,-90.40263588464491,-54.48981619919836,-98.12123180655864,56.663000000000466
312299.6477,-10.970152410869598,-79.25063571040185,-48.40498055155067,-87.89112929452327,56.663999999989755
312299.6487,-5.75891614493619,-71.57582801706697,-45.52999347974622,-81.73891740499515,56.66500000003725
312299.6497,-4.7541371704619095,-67.43310352674239,-45.65232054400988,-79.70723609347787,56.66600000002654
312299.6507,-7.595476956351781,-66.68392496993793,-48.396457344885384,-81.6202118290223,56.66700000001583
312299.6517,-13.739899677871987,-69.00410316113582,-53.2432093871942,-87.09064297870788,56.66800000000512
312299.6527,-22.488196457146405,-73.89909363908968,-59.55465558457773,-95.53574517448966,56.66899999999441
312299.6537,-33.01717739502884,-80.72617130765988,-66.6035751796775,-106.20088084002575,56.67000000004191
312299.6547,-44.41612211814531,-88.72263670485259,-73.60603615949303,-118.1904450642446,56.6710000000312
312299.6557,-55.72602595704847,-97.03903144338422,-79.75582432787172,-130.50485068504358,56.67200000002049
312299.6567,-65.9801768753297,-104.77618935206557,-84.2594235028371,-142.08234907687645,56.67300000000978
312299.6577,-74.24463558671998,-111.02482253463847,-86.37032508638191,-151.8442415878114,56.67399999999907
312299.6587,-79.6572569927037,-114.90623874435258,-85.42153642889473,-158.74188386239166,56.675000000046566
312299.6597,-81.46397685001016,-115.61271145717349,-80.85526110134992,-161.80376765795538,56.676000000035856
312299.6607,-79.05118845284221,-112.44598244998915,-72.248832782998,-160.18089028058156,56.677000000025146
312299.6617,-71.97314848898131,-104.85237584286116,-59.336094146250176,-153.18859952757427,56.678000000014435
312299.6627,-59.973480407683134,-92.45305034810862,-42.02352280362168,-140.34314106911523,56.679000000003725
312299.6637,-42.99999092262331,-75.0680201333436,-20.400521201053245,-121.3912432902442,56.679999999993015
312299.6647,-21.212184770672085,-52.732739526530594,5.256588375049759,-96.33125697321486,56.68100000004051
312299.6657,5.018941841934054,-25.706274855394838,34.48718254439236,-65.42462540511967,56.6820000000298
312299.6667,35.11902570220738,5.529624043325018,66.6557268945393,-29.196791598168332,56.68300000001909
312299.6677,68.32632585243071,40.28089648724888,100.96790857728514,11.572954678842105,56.68400000000838
312299.6687,103.71525246922242,77.6609452843672,136.49327070373954,55.872739557270336,56.68499999999767
312299.6697,140.22682375007903,116.61935732112816,172.19387352376958,102.49004519511978,56.68600000004517
312299.6707,176.70514980608615,155.97869525850558,206.95825816589536,150.05340134015054,56.68700000003446
312299.6717,211.93876425549018,194.47808082287128,239.63973576142254,197.0824209569253,56.68800000002375
312299.6727,244.70537265025484,230.82192417625342,269.09778227152566,242.0443295373966,56.68900000001304
312299.6737,273.8183780286159,263.73184843088836,294.24110330059335,283.4147585576603,56.69000000000233
312299.6747,298.1733927470585,291.9996333380504,314.0707600760267,319.7402817669216,56.69099999999162
312299.6757,316.7928650207009,314.5388734822786,327.7216330520223,349.69998857722527,56.692000000039116
312299.6767,328.86694768547807,330.43302490578714,334.50045631540615,372.16332682119975,56.693000000028405
312299.6777,333.78882086792777,338.977605158879,333.9186936418889,386.2415165996617,56.694000000017695
312299.6787,331.1828501877008,339.71451435627586,325.7186507322528,391.33004011719794,56.695000000006985
312299.6797,320.924213730633,332.45675182006903,309.8914279038461,387.14004442173575,56.695999999996275
312299.6807,303.14895557600653,317.30220145802707,286.6856081527382,373.71694283488966,56.69700000004377
312299.6817,278.25380814844414,294.63563124944193,256.60593676234686,351.44504793415945,56.69800000003306
312299.6827,246.8855534796094,265.1185760601897,220.40166557795683,321.0376897532673,56.69900000002235
312299.6837,209.92014520263712,229.66732347726568,179.04468881749705,283.5129382899492,56.70000000001164
312299.6847,168.43226755343548,189.419772733049,133.69806600253312,240.1557271611121,56.70100000000093
312299.6857,123.65644290037568,145.69246002767187,85.67598761848038,192.46783151908332,56.70199999999022
312299.6867,76.94119389229408,99.92951362726869,36.396666285016174,142.10775459183358,56.70300000003772
312299.6877,29.698100310108828,53.645695341253386,-12.669992787878785,90.82309192443716,56.70400000002701
312299.6887,-16.652153121669613,8.36598125302395,-60.057794611566756,40.37834280389868,56.7050000000163
312299.6897,-60.73447704606614,-34.435681607185046,-104.36038442059824,-7.518598067421079,56.70600000000559
312299.6907,-101.27250122271644,-73.39574467792966,-144.28566839448993,-51.28792479206182,56.70699999999488
312299.6917,-137.13783872731278,-107.31592074962558,-178.70611428096737,-89.54408698669152,56.708000000042375
312299.6927,-167.39335426122418,-135.2110975208809,-206.70266461509593,-121.15355760738235,56.709000000031665
312299.6937,-191.32854620820936,-156.34816498535443,-227.6002521447845,-145.2814861365225,56.710000000020955
312299.6947,-208.485486878949,-170.27402767800513,-240.99326672013856,-161.42502449147273,56.711000000010245
312299.6957,-218.67417408973915,-176.83156320231782,-246.75976881450336,-169.43173010147507,56.711999999999534
312299.6967,-221.97661116426605,-176.16283771746689,-245.06375552858773,-169.50215178896116,56.712999999988824
312299.6977,-218.7394301021871,-168.6994704544694,-236.3453349715763,-162.17645464317587,56.71400000003632
312299.6987,-209.55538068573443,-155.1406244193665,-221.29922634911784,-148.30570216303178,56.71500000002561
312299.6997,-195.23450270614927,-136.41966059060601,-200.8425469733141,-129.00914867959213,56.7160000000149
312299.7007,-176.76625587286657,-113.66100082257246,-176.07334550056135,-105.61956462098392,56.71700000000419
312299.7017,-155.27428070663862,-88.12917584931516,-148.2217671355455,-79.61918692860401,56.71799999999348
312299.7027,-131.96578514433466,-61.1723689417929,-118.5960693977947,-52.569327451091965,56.71900000004098
312299.7037,-108.0777809700763,-34.16298790779345,-88.52592970770841,-26.036960956154356,56.72000000003027
312299.7047,-84.82252152941766,-8.437899344210482,-59.30558820179563,-1.5217373420525913,56.72100000001956
312299.7057,-63.334512708415396,14.759062996106879,-32.13934744401539,19.613185289038025,56.72200000000885
312299.7067,-44.621383525428094,34.329844981514874,-8.091808729754195,36.20330432881709,56.72299999999814
312299.7077,-29.52071683462993,49.367953162469036,11.9550271682227,47.33511780103428,56.724000000045635
312299.7087,-18.664665320627066,59.1953923117796,27.336012525143072,52.386333555581444,56.725000000034925
312299.7097,-12.453827912683693,63.389298214715204,37.62709478954513,51.05222549055022,56.726000000024214
312299.7107,-11.041454638416832,61.79727230488532,42.65865277132439,43.35708936232754,56.727000000013504
312299.7117,-14.328603157149226,54.540920512416804,42.517524388105976,29.650453989019347,56.728000000002794
312299.7127,-21.970407608463365,42.00759959671928,37.537817433384774,10.58840494895036,56.728999999992084
312299.7137,-33.393159139430026,24.830859289678923,28.281067930089293,-12.898956199169257,56.73000000003958
312299.7147,-47.82145509077819,3.8605195943050705,15.506744326653235,-39.652292982642955,56.73100000002887
312299.7157,-64.31426569867499,-19.87627525901168,0.13447540400772104,-68.33791879846565,56.73200000001816
312299.7167,-81.80840627097469,-45.22134278044236,-16.800305440813737,-97.51024320962262,56.73300000000745
312299.7177,-99.16759980054613,-70.93713125649658,-34.19536404748275,-125.67895042822408,56.73399999999674
312299.7187,-115.23507861687803,-95.7616157147951,-50.93321542464033,-151.37791804086058,56.73500000004424
312299.7197,-128.88751117332515,-118.46414336058268,-65.93302957659864,-173.2328468578253,56.73600000003353
312299.7207,-139.08795748007958,-137.8999102216435,-78.20069417721984,-190.02465781465907,56.73700000002282
312299.7217,-144.93555902913022,-153.06079209999572,-86.87490536598361,-200.7459125536472,56.73800000001211
312299.7227,-145.70976005453355,-163.120377242094,-91.26730655982973,-204.6478213762833,56.7390000000014
312299.7237,-140.9070385379073,-167.4712549684131,-90.89492010987338,-201.27580402948254,56.73999999999069
312299.7247,-130.2683967585544,-165.75290153725493,-85.50341421688097,-190.49205133721227,56.741000000038184
312299.7257,-113.79621805328688,-157.868866740633,-75.08011162896376,-172.48408272373229,56.742000000027474
312299.7267,-91.75952997710414,-143.9923935951866,-59.85606794058027,-147.75888741158207,56.743000000016764
312299.7277,-64.68721036767803,-124.56008628619108,-40.29701268316397,-117.12285421034832,56.744000000006054
312299.7287,-33.349212844084846,-100.25376109793972,-17.083438767029737,-81.64831271346618,56.74499999999534
312299.7297,1.2735518194029527,-71.9711500419252,8.919375563966694,-42.62810197267696,56.74600000004284
312299.7307,38.02948976923936,-40.78665242200645,36.70014692481999,-1.5201250187271378,56.74700000003213
312299.7317,75.6450500615033,-7.903818597875959,65.147465289767,40.115686999607014,56.74800000002142
312299.7327,112.77975137005394,25.398324826394365,93.10069632289608,80.6852128464223,56.74900000001071
312299.7337,148.0850055157075,57.82266431753202,119.4035534838894,118.62975027401315,56.75
312299.7347,180.26399963334416,88.11243695617037,142.9578166392381,152.4942591040549,56.75099999998929
312299.7357,208.12980017647135,115.1079574221045,162.77462873745958,180.9911414011857,56.75200000003679
312299.7367,230.65888855940676,137.798922837279,178.02088771241122,203.05664962604223,56.75300000002608
312299.7377,247.03753103183197,155.36977270608364,188.05846616964394,217.89734290140552,56.75400000001537
312299.7387,256.698716555772,167.2359049861921,192.4743277044465,225.02446820067271,56.75500000000466
312299.7397,259.34784984228276,173.06899305238898,191.1000495765441,224.2747061787852,56.755999999993946
312299.7407,254.97593878421898,172.81018935987882,184.0197841669229,215.81636322296586,56.757000000041444
312299.7417,243.8596368780987,166.67061109022802,171.5662684001802,200.14078017551628,56.758000000030734
312299.7427,226.54815832917626,155.11914757067825,154.30509007466298,178.03942922851328,56.75900000002002
312299.7437,203.8377406906172,138.8582729048963,133.00801032135237,150.5678478343439,56.76000000000931
312299.7447,176.73495129085464,118.78915384471937,108.6166901897945,118.99817715930389,56.7609999999986
312299.7457,146.41068543264925,95.96787817895503,82.19864687483943,84.76260051659852,56.7620000000461
312299.7467,114.14715627255205,71.55506254588234,54.8976454899262,49.39038689262362,56.76300000003539
312299.7477,81.28050378465188,46.76140623169256,27.880995015268812,14.441514932527834,56.76400000002468
312299.7487,49.14183561153962,22.79192231299692,2.286348021680612,-18.560030044152334,56.76500000001397
312299.7497,18.999546319146592,0.791591155834645,-20.82940378224261,-48.19023440415364,56.76600000000326
312299.7507,-7.994357209785423,-18.20495527601991,-40.536691189631306,-73.1834537115663,56.76699999999255
312299.7517,-30.851459604894583,-33.31738646671328,-56.07311298397305,-92.48271030525447,56.76800000004005
312299.7527,-48.78559599377563,-43.85532979473274,-66.87477773514958,-105.27983000369807,56.76900000002934
312299.7537,-61.24138554800263,-49.34428936556666,-72.59782913385953,-111.04390845301322,56.77000000001863
312299.7547,-67.91162452790388,-49.540942333215185,-73.12937727257426,-109.53720951419334,56.771000000007916
312299.7557,-68.7431262638057,-44.43751176661026,-68.587621641467,-100.81823444628192,56.771999999997206
312299.7567,-63.93119798647553,-34.25549057831276,-59.31150939162098,-85.23232485079309,56.7730000000447
312299.7577,-53.90351057195659,-19.429523251477388,-45.84079164333379,-63.390739516994856,56.77400000003399
312299.7587,-39.294614068007206,-0.5827103427983017,-28.887791408773882,-36.139644620953206,56.77500000002328
312299.7597,-20.912751914100934,21.505039604583637,-9.302554415247096,-4.520853398308984,56.77600000001257
312299.7607,0.2990898195096644,45.93374190954769,11.966698920343312,30.273571803483478,56.77700000000186
312299.7617,23.305806105974426,71.72316196708397,33.91577546086052,66.9505940501272,56.77799999999115
312299.7627,47.02435104162133,97.85374866943708,55.5273149647546,104.1670724195941,56.77900000003865
312299.7637,70.36744710309803,123.30680353268144,75.81225749488107,140.58004906679048,56.78000000002794
312299.7647,92.2850034974922,147.10222624448838,93.84823814867731,174.89447870503804,56.78100000001723
312299.7657,111.80170599868968,168.33246343553674,108.81346007303179,205.90671512629714,56.78200000000652
312299.7667,128.04958137287554,186.19162096557858,120.01493526557265,232.54241562569365,56.78299999999581
312299.7677,140.2947071889169,199.99905295414533,126.91034746858386,253.88790060264972,56.78400000004331
312299.7687,147.9576036203964,209.21708607598924,129.12315604626653,269.21438507080524,56.785000000032596
312299.7697,150.62718171125442,213.46285122021558,126.45090007303591,277.9948565741278,56.786000000021886
312299.7707,148.06841132668268,212.51445730508152,118.86695818071911,279.91368948377067,56.787000000011176
312299.7717,140.22409695687412,206.31194092353593,106.51625785257801,274.8693437845629,56.788000000000466
312299.7727,127.21130341827705,194.9535546559382,89.7056000475484,262.9706886054207,56.788999999989755
312299.7737,109.31305667678966,178.68801752707031,68.88937010820267,244.5276149577098,56.79000000003725
312299.7747,86.9659649785782,157.90335095680496,44.65144882980883,220.0366628641578,56.79100000002654
312299.7757,60.744375583454946,133.1128757965644,17.684128502680814,190.162395246303,56.79200000001583
312299.7767,31.34162012066309,104.93886753049682,-11.235208419448643,155.71521869301642,56.79300000000512
312299.7777,-0.45117367701918376,74.0942760813347,-41.26895975175251,117.62629606683917,56.79399999999441
312299.7787,-33.76829536902673,41.36283217504401,-71.54511048389462,76.92013479854221,56.79500000004191
312299.7797,-67.6943287703493,7.577799787127121,-101.18343125713197,34.68538317437422,56.7960000000312
312299.7807,-101.29034374803477,-26.400394393695297,-129.321572490688,-7.955662796176041,56.79700000002049
312299.7817,-133.6210270069838,-59.70741187402989,-155.14058216466853,-49.87833956075333,56.79800000000978
312299.7827,-163.78230973012896,-91.49883869410573,-177.88937296128918,-89.98714935014212,56.79899999999907
312299.7837,-190.92895169324476,-120.97422486432981,-196.90763982388145,-127.24695283788243,56.800000000046566
312299.7847,-214.30142409826152,-147.40083302864448,-211.64669034112148,-160.71314756638597,56.801000000035856
312299.7857,-233.25131375295854,-170.13648173711235,-221.68760927718245,-189.56007163264482,56.802000000025146
312299.7867,-247.26436834557168,-188.65075605134814,-226.7561483202814,-213.10679330471802,56.803000000014435
312299.7877,-255.9802352712384,-202.54377135754973,-226.73372596402393,-230.83939272048676,56.804000000003725
312299.7887,-259.2079313087054,-211.56163143593312,-221.66395191791264,-242.42882683127664,56.804999999993015
312299.7897,-256.93612974727154,-215.60773197735352,-211.75416396444123,-247.74350584281643,56.80600000004051
312299.7907,-249.33747198452312,-214.74913411518128,-197.37158691961076,-246.8558069928468,56.8070000000298
312299.7917,-236.76630229193853,-209.21737180341646,-179.0338926723336,-240.0419128271322,56.80800000001909
312299.7927,-219.74948079197722,-199.40325865194058,-157.39415161697383,-227.7745836805465,56.80900000000838
312299.7937,-198.97023783647631,-185.84551488819184,-133.2204090388797,-210.70874951208134,56.80999999999767
312299.7947,-175.2453747695516,-169.2133290084256,-107.37038125988795,-189.6601208905322,56.81100000004517
312299.7957,-149.49646951261067,-150.28328287303742,-80.76202896981727,-165.57735463556347,56.81200000003446
312299.7967,-122.71608645888239,-129.91138230966365,-54.34101108439682,-139.5086450968273,56.81300000002375
312299.7977,-95.9302945764507,-109.00122557380446,-29.046233551657238,-112.56392448078975,56.81400000001304
312299.7987,-70.15904291356618,-88.46958795362474,-5.7748670221296905,-85.87412245833661,56.81500000000233
312299.7997,-46.37610994911361,-69.21088362032788,14.651698814826736,-60.54913606991105,56.81599999999162
312299.8007,-25.470418590655004,-52.06207085832922,31.519478216230837,-37.63627911307579,56.817000000039116
312299.8017,-8.210484490413752,-37.76958476421528,44.249666312521654,-18.081004517325773,56.818000000028405
312299.8027,4.786358955999094,-26.95980927031453,52.421289722987616,-2.691618867432427,56.819000000017695
312299.8037,13.078533675000948,-20.114441311627015,55.78766817860441,7.8904626207826745,56.820000000006985
312299.8047,16.41746174102503,-17.55186374069532,54.28590503420259,13.213630675043277,56.820999999996275
312299.8057,14.756716879971595,-19.41534527642071,48.03895200656383,13.031206527410756,56.82200000004377
312299.8067,8.252718367724874,-25.668544598031282,37.35014827043474,7.308199079674185,56.82300000003306
312299.8077,-2.7429815788471856,-36.09843347193857,22.690494689034185,-3.7804725736997677,56.82400000002235
312299.8087,-17.699361197041092,-50.325393099523886,4.679268704761521,-19.860045748553617,56.82500000001164
312299.8097,-35.928717494101726,-67.81990024883866,-15.941106036984433,-40.37363387230224,56.82600000000093
312299.8107,-56.61543834449489,-87.92492411393505,-38.33476625933007,-64.60661758842555,56.82699999999022
312299.8117,-78.84937254620392,-109.88291628497682,-61.6053344861486,-91.7164434850177,56.82800000003772
312299.8127,-101.66224812850206,-132.8661050694572,-84.83059273139442,-120.76636190574303,56.82900000002701
312299.8137,-124.06551051635525,-156.0087070159097,-107.09739861145822,-150.76151593434994,56.8300000000163
312299.8147,-145.08795748513728,-178.43964330842513,-127.53537886842278,-180.68576191759598,56.83100000000559
312299.8157,-163.81163108620595,-199.3143928225419,-145.34804573364474,-209.53765452113237,56.83199999999488
312299.8167,-179.40457785112955,-217.84471961632696,-159.840151611334,-236.36415815806862,56.833000000042375
312299.8177,-191.14929474449912,-233.3251704375534,-170.4403146545287,-260.2908396365969,56.834000000031665
312299.8187,-198.46592502560065,-245.15543579196276,-176.71819786956087,-280.5475391652349,56.835000000020955
312299.8197,-200.92954027448917,-252.85789381387502,-178.39579281991473,-296.4887918672926,56.836000000010245
312299.8207,-198.28112747111203,-256.08989714311167,-175.3526315178517,-307.60856252771947,56.836999999999534
312299.8217,-190.4321792538142,-254.6506072782186,-167.62501339212434,-313.54914565900873,56.837999999988824
312299.8227,-177.46304882570456,-248.4824173750569,-155.3995765107876,-314.1043556263094,56.83900000003632
312299.8237,-159.6154677192635,-237.6672232963741,-139.00175362665132,-309.21737401447655,56.84000000002561
312299.8247,-137.2798261348815,-222.41799539715126,-118.87982639876635,-298.97382275879505,56.8410000000149
312299.8257,-110.9779754903628,-203.06626317159527,-95.585420039892,-283.5907839903609,56.84200000000419
312299.8267,-81.34242727926915,-180.04624644392797,-69.75136293039708,-263.4025866866868,56.84299999999348
312299.8277,-49.09289005813609,-153.87644725977884,-42.06787134992247,-238.84422529055118,56.84400000004098
312299.8287,-15.011108717518711,-125.13955525224246,-13.258010932801753,-210.43326926474413,56.84500000003027
312299.8297,20.085049001041735,-94.46151752915853,15.946661338937934,-178.75107119405013,56.84600000001956
312299.8307,55.36736845914156,-62.49058575939065,44.82945094675748,-144.4239934015682,56.84700000000885
312299.8317,90.0221187591204,-29.87708371645927,72.71015607359094,-108.1052599427403,56.84799999999814
312299.8327,123.27323204913682,2.7454549671141253,98.96437449393935,-70.45791403025879,56.849000000045635
312299.8337,154.4032380035673,34.777239009382576,123.04001377180853,-32.13923195260498,56.850000000034925
312299.8347,182.7714756479164,65.66684057019968,144.47065733499417,6.2131764543396875,56.851000000024214
312299.8357,207.82921754870404,94.92318485892606,162.88555886394133,43.99345588767117,56.852000000013504
312299.8367,229.13144764235815,122.12472506565088,178.01614794302515,80.63774174424445,56.853000000002794
312299.8377,246.3451321430392,146.92572916223386,189.69902999717308,115.63256588801796,56.853999999992084
312299.8387,259.25391361164884,169.0597051873524,197.8755540156892,148.52149431403484,56.85500000003958
312299.8397,267.7592434220935,188.3400811795654,202.58810455995118,178.9100821951563,56.85600000002887
312299.8407,271.8780502128548,204.65833503113677,203.97335260884907,206.4692424592376,56.85700000001816
312299.8417,271.7371238887731,217.9798386289576,202.2527750032246,230.93712767318226,56.85800000000745
312299.8427,267.56447766208163,228.3377399416618,197.72082544654475,252.11962655149958,56.85899999999674
312299.8437,259.67803408145124,235.8252557737164,190.7312102462553,269.8895794716571,56.86000000004424
312299.8447,248.47206254359568,240.58678544556972,181.6817862870761,284.184823773613,56.86100000003353
312299.8457,234.40187100719706,242.80827956371184,170.99865236528586,295.0051892508597,56.86200000002282
312299.8467,217.96731763162197,242.70730569244859,159.12004201326667,302.4085753724085,56.86300000001211
312299.8477,199.69575222543418,240.5232415104271,146.48063999652317,306.5062516007362,56.8640000000014
312299.8487,180.12501636272037,236.50799395407427,133.4969301718638,307.45752754797314,56.86499999999069
312299.8497,159.787119771314,230.9175892400801,120.55413553199158,305.4639379525129,56.866000000038184
312299.8507,139.19316633839915,224.00490468974448,107.99523089354376,300.7630770148203,56.867000000027474
312299.8517,118.82002600577927,216.01372230290272,96.11239697900523,293.6221975788132,56.868000000016764
312299.8527,99.0991424525702,207.17418163134516,85.14114726944584,284.3316648622472,56.869000000006054
312299.8537,80.40773755851482,197.69960320927729,75.257204882571,273.19832546522554,56.86999999999534
312299.8547,63.06253173644129,187.78455247614716,66.57604730976462,260.53882496526523,56.87100000004284
312299.8557,47.31595571623707,177.60392709883604,59.15488501252532,246.6728867873816,56.87200000003213
312299.8567,33.35469633963567,167.31278660102333,52.996708598701545,231.91655611836828,56.87300000002142
312299.8577,21.30030782090294,157.04660929906825,48.05594017078431,216.57541910307947,56.87400000001071
312299.8587,11.211540210475127,146.92166213861697,44.24516633871261,200.9378311466198,56.875
312299.8597,3.087994830743301,137.03520516371262,41.44241838521591,185.26822811983686,56.87599999998929
312299.8607,-3.125285304928666,127.46532133518643,39.49849974158424,169.80064726527522,56.87700000003679
312299.8617,-7.532645432722038,118.2702578844525,38.243938184365675,154.732644832127,56.87800000002608
312299.8627,-10.282355571276023,109.48727781546114,37.4952515742825,140.21985725385417,56.87900000001537
312299.8637,-11.561047772641926,101.13113775324564,37.060349587137054,126.37150329727655,56.88000000000466
312299.8647,-11.588145087615057,93.19241819720558,36.743035478072464,113.247157306855,56.880999999993946
312299.8657,-10.610272267450428,85.63602174252475,36.34670635898501,100.85513074070256,56.882000000041444
312299.8667,-8.895552337252088,78.4002129630628,35.67746332307864,89.1527749884172,56.883000000030734
312299.8677,-6.727633642132654,71.39659219790842,34.54692175582807,78.04896015939192,56.88400000002002
312299.8687,-4.3992671380470405,64.51136999021904,32.77504849611121,67.40889265880607,56.88500000000931
312299.8697,-2.205268080696249,57.60823922291592,30.193341682577632,57.06131293437527,56.8859999999986
312299.8707,-0.43474998802202686,50.533032315313406,26.648611521685577,46.80797103633965,56.8870000000461
312299.8717,0.6373925046523898,43.12020948375382,22.007521101456476,36.43512151037838,56.88800000003539
312299.8727,0.7596598976267667,35.20106263749083,16.16191541506442,25.726622371168265,56.88900000002468
312299.8737,-0.28643917262598884,26.61335183251416,9.034817130608984,14.4780779870402,56.89000000001397
312299.8747,-2.676692082337088,17.211932168256077,0.5868148011994611,2.5113448189558265,56.89100000000326
312299.8757,-6.534875497637448,6.879793049844766,-9.177570579480298,-10.311367097105872,56.89199999999255
312299.8767,-11.924400336699064,-4.461168313407402,-20.2040659604249,-24.074606711957944,56.89300000004005
312299.8777,-18.841521921734035,-16.840371321427273,-32.38396807132446,-38.798812026892705,56.89400000002934
312299.8787,-27.210731110521202,-30.230507844547834,-45.55121859866901,-54.432203455757104,56.89500000001863
312299.8797,-36.88289076848841,-44.541909248018676,-59.48180458541422,-70.84607839090599,56.896000000007916
312299.8807,-47.63657628823177,-59.61989688061348,-73.8959580494654,-87.83399116747258,56.896999999997206
312299.8817,-59.18292318920634,-75.2455329815131,-88.46347762469378,-105.1151104982907,56.8980000000447
312299.8827,-71.1740878604465,-91.13999498177175,-102.81229996221428,-122.34182587870876,56.89900000003399
312299.8837,-83.21520192947328,-106.97257586914874,-116.5402232729619,-139.11143740710358,56.90000000002328
312299.8847,-94.87946232440619,-122.37208113913363,-129.2294464680595,-154.98152331325403,56.90100000001257
312299.8857,-105.7257655716901,-136.941164611306,-140.46335344634934,-169.48835037550353,56.90200000000186
312299.8867,-115.3180846021561,-150.2729370148824,-149.84476219581802,-182.1674885521772,56.90299999999115
312299.8877,-123.24561690174794,-161.96900786930138,-157.01469044605716,-192.5756260958443,56.90400000003865
312299.8887,-129.1426196081013,-171.6579960454442,-161.67057903064088,-200.31246724293052,56.90500000002794
312299.8897,-132.70680195209283,-179.0134778609014,-163.5828724629426,-205.0415410750585,56.90600000001723
312299.8907,-133.71517545265897,-183.77034029240596,-162.60889020076618,-206.5087640335498,56.90700000000652
312299.8917,-132.03636921194538,-185.7385731764688,-158.70303281378023,-204.55768269498228,56.90799999999581
312299.8927,-127.63859737703294,-184.8136656851771,-151.92255006023598,-199.1404762155932,56.90900000004331
312299.8937,-120.5927083689901,-180.98296170940108,-142.42834232207696,-190.3240129904906,56.910000000032596
312299.8947,-111.07003558449956,-174.3275644089408,-130.48055746374516,-178.29052244393506,56.911000000021886
312299.8957,-99.33508742856377,-165.01964669139744,-116.42906246668305,-163.33274498947358,56.912000000011176
312299.8967,-85.733438355445,-153.31530362523546,-100.69919102857466,-145.84374204843704,56.913000000000466
312299.8977,-70.67548855509104,-139.54335523415952,-83.7734716378136,-126.30186226489461,56.913999999989755
312299.8987,-54.61702524949176,-124.09075431036203,-66.17030322873553,-105.25164766014512,56.91500000003725
312299.8997,-38.03772312647707,-107.38545603582436,-48.420747815103894,-83.28170347173474,56.91600000002654
312299.9007,-21.41884947142491,-89.87774967677628,-31.04473614707628,-61.00072980126515,56.91700000001583
312299.9017,-5.22148104564078,-72.02112719791644,-14.52802361684749,-39.013008581072306,56.91800000000512
312299.9027,10.133508645144273,-54.25376444657437,0.6988141077510067,-17.89464841141451,56.91899999999441
312299.9037,24.282567681377436,-36.98161850088516,14.278189670278376,1.8281879534844696,56.92000000004191
312299.9047,36.932776082112895,-20.56400653705539,25.939170154715654,19.698006647026986,56.9210000000312
312299.9057,47.87070449207615,-5.302339021432407,35.50632390917259,35.34081430600514,56.92200000002049
312299.9067,56.96648595898418,8.567550798397479,42.90338149390004,48.476489336959865,56.92300000000978
312299.9077,64.17308884250954,20.879289483352455,48.151671972915466,58.92442256947475,56.92399999999907
312299.9087,69.52109250220101,31.536116514000646,51.36361707734854,66.60445713035838,56.925000000046566
312299.9097,73.10954805563634,40.50759702094155,52.731857499794636,71.53343533839194,56.926000000035856
312299.9107,75.09373406914222,47.823377758416626,52.514827419476006,73.81789551762957,56.927000000025146
312299.9117,75.67077623586485,53.56461541838309,51.019769426044924,73.64363785406307,56.928000000014435
312299.9127,75.06418160104543,57.85379471763412,48.58428211071037,71.26298588399717,56.929000000003725
312299.9137,73.50833904541972,60.84368218138155,45.55751296424741,66.98060584725562,56.929999999993015
312299.9147,71.23396255687058,62.7061328741035,42.282052693500056,61.138713750636036,56.93100000004051
312299.9157,68.45531247101636,63.62138905235772,39.07746263016834,54.102409502032806,56.9320000000298
312299.9167,65.35983756347721,63.76839331228813,36.226188713337976,46.24574368128003,56.93300000001909
312299.9177,62.10065639153599,63.316498365208254,33.96240145173124,37.93896330480203,56.93400000000838
312299.9187,58.792060107847895,62.418806280546136,32.464071131659836,29.537217315651286,56.93499999999767
312299.9197,55.50799140889343,61.20722658852456,31.848361184021822,21.370848539107687,56.93600000004517
312299.9207,52.283253581554725,59.78921778046254,32.1702180746187,13.737271702090815,56.93700000003446
312299.9217,49.117044331492366,58.246080043148616,33.42386788258964,6.894347669193089,56.93800000002375
312299.9227,45.9783008652384,56.6326040398561,35.546807724688954,1.0551177562399983,56.93900000001304
312299.9237,42.812289595726504,54.97785231001696,38.42580880136173,-3.616241492524286,56.94000000000233
312299.9247,39.54787418665364,53.28685321920036,41.90442599344024,-7.007349207716188,56.94099999999162
312299.9257,36.10494258941643,51.54301550673759,45.791530492782734,-9.05948302594138,56.942000000039116
312299.9267,32.401556264272635,49.71111489726323,49.870436744581696,-9.768347510734898,56.943000000028405
312299.9277,28.360489261424725,47.74075225261695,53.90827024992963,-9.183651713761018,56.944000000017695
312299.9287,23.91493667939779,45.57022485160829,57.66530483546275,-7.407346418990061,56.945000000006985
312299.9297,19.013277459844836,43.130779754944776,60.904073958471834,-4.590347921075626,56.945999999996275
312299.9307,13.622864185165712,40.351224838272934,63.39811998154626,-0.9275890263067803,56.94700000004377
312299.9317,7.732874828776923,37.16285659600955,64.94028124222359,3.348707541736707,56.94800000003306
312299.9327,1.3562949278415866,33.5046258198658,65.35042664110794,7.977545405709352,56.94900000002235
312299.9337,-5.468895477417896,29.32840804930434,64.48253336590606,12.679349246544252,56.95000000001164
312299.9347,-12.679272473828505,24.604183581034217,62.230971303976666,17.167584992573467,56.95100000000093
312299.9357,-20.186229970057735,19.324871974322846,58.53581678721307,21.161407359256145,56.95199999999022
312299.9367,-27.876961870106133,13.510519031449297,53.38697936696108,24.39880427690304,56.95300000003772
312299.9377,-35.61620494658421,7.211509811302758,46.826899253142386,26.64960371511443,56.95400000002701
312299.9387,-43.24879974408163,0.5104866631005107,38.95156933932303,27.72764565964007,56.9550000000163
312299.9397,-50.60312414406279,-6.477309515100139,29.90966104467939,27.50140951579991,56.95600000000559
312299.9407,-57.49542888217572,-13.60548364143009,19.89959044653378,25.902429068814985,56.95699999999488
312299.9417,-63.735057098348456,-20.699822791075665,9.164449041640932,22.930922089979163,56.958000000042375
312299.9427,-69.13046513853564,-27.56350673523229,-2.015163502011268,18.658203425211926,56.959000000031665
312299.9437,-73.4958863844656,-33.984039945244895,-13.330238088941737,13.225628306217653,56.960000000020955
312299.9447,-76.6584028491016,-39.741619064122396,-24.45408623143861,6.840012904754851,56.961000000010245
312299.9457,-78.46512039519772,-44.618531107211126,-35.054275794428555,-0.2343136876883947,56.961999999999534
312299.9467,-78.79009202624458,-48.40908516947143,-44.80524247479222,-7.686473522467094,56.962999999988824
312299.9477,-77.54060750278438,-50.92952352637939,-53.400974718007426,-15.172492280147072,56.96400000003632
312299.9487,-74.66247178214078,-52.02734264801609,-60.56713780017213,-22.330572730675215,56.96500000002561
312299.9497,-70.14393154209512,-51.58948269209895,-66.07201572839753,-28.79742577172456,56.9660000000149
312299.9507,-64.01797695802696,-49.548913173214466,-69.73570775909683,-34.224848347868324,56.96700000000419
312299.9517,-56.362840219493,-45.88924645497531,-71.4371157375121,-38.29573966620481,56.96799999999348
312299.9527,-47.300625326925314,-40.64713997453204,-71.11839126846648,-40.73879569669019,56.96900000004098
312299.9537,-36.9941256545122,-33.912390981885494,-68.78666699206474,-41.34121087448344,56.97000000003027
312299.9547,-25.642005567749298,-25.825771415722457,-64.51306103316978,-39.95883676426949,56.97100000001956
312299.9557,-13.472628959870832,-16.57478309100442,-58.42910441586389,-36.52339035988415,56.97200000000885
312299.9567,-0.7369009522836202,-6.387624041227876,-50.72088495298744,-31.046459398557463,56.97299999999814
312299.9577,12.299458588804887,4.474262261313062,-41.62131683708969,-23.620208745556006,56.974000000045635
312299.9587,25.36377436226027,15.724636475664088,-31.40102483823708,-14.414841918231392,56.975000000034925
312299.9597,38.183992538065844,27.061481840594098,-20.358371286844488,-3.673008235601743,56.976000000024214
312299.9607,50.49561436142265,38.176182183499115,-8.809152478977097,8.298536072431698,56.977000000013504
312299.9617,62.047707970507865,48.762497011540496,2.923547790685858,21.139608192202044,56.978000000002794
312299.9627,72.60782147795206,58.52503615182603,14.518929477039022,34.4491424583853,56.978999999992084
312299.9637,81.96573021237889,67.1870102006463,25.667145398969357,47.79906878034324,56.98000000003958
312299.9647,89.93605772005591,74.49710648256385,36.0768436185234,60.748968137606354,56.98100000002887
312299.9657,96.35990285947659,80.23540527717661,45.48146139560937,72.86093896900994,56.98200000001816
312299.9667,101.10567506736807,84.21830179589038,53.6442430240315,83.7141186608374,56.98300000000745
312299.9677,104.0693803884881,86.30243252477105,60.36203138517526,92.91833242898866,56.98399999999674
312299.9687,105.17460929356183,86.38761976261415,65.46793919948657,100.12638674228052,56.98500000004424
312299.9697,104.37245442795077,84.41884792678708,68.83303872221936,105.04458527124953,56.98600000003353
312299.9707,101.64153643561984,80.38727420534444,70.36721890277417,107.44112131735147,56.98700000002282
312299.9717,96.98824594959628,74.33026063799056,70.01935017615875,107.15209053263149,56.98800000001211
312299.9727,90.44722878857961,66.33040149776636,67.77687428291472,104.08496950382316,56.9890000000014
312299.9737,82.08205933979853,56.51351525233649,63.6649060328235,98.21951647316062,56.98999999999069
312299.9747,71.98597382659197,45.04557934862843,57.74490208137773,89.60616597489386,56.991000000038184
312299.9757,60.28247915283972,32.12861137906846,50.112924226782724,78.36210420896646,56.992000000027474
312299.9767,47.12562057956742,17.99554201252473,40.89750574540539,64.66532031800462,56.993000000016764
312299.9777,32.69968606555245,2.904180790611198,30.257121340670658,48.7470235524495,56.994000000006054
312299.9787,17.21814697261957,-12.869559684636425,18.377264864750675,30.882890702914338,56.99499999999534
312299.9797,0.9216811606458954,-29.038949712517347,5.467152649888244,11.38365581797075,56.99600000004284
312299.9807,-15.92481027424666,-45.31394808553078,-8.243908973161469,-9.41442996639765,56.99700000003213
312299.9817,-33.03620479264688,-61.408593143654414,-22.510429709604793,-31.15875984520983,56.99800000002142
312299.9827,-50.1121116372077,-77.04792448920735,-37.07483059377016,-53.48870025056482,56.99900000001071
312299.9837,-66.84263610326286,-91.97408857146755,-51.67162825553888,-76.0427219341906,57.0
312299.9847,-82.914754862512,-105.95132081639893,-66.03160149850824,-98.4640848601273,57.00099999998929
312299.9857,-98.01906224226008,-118.76956733515779,-79.88583899737118,-120.40496612162664,57.00200000003679
312299.9867,-111.85663004213703,-130.2466063847025,-92.96958477461922,-141.52906811558375,57.00300000002608
312299.9877,-124.14572936813911,-140.2286462578574,-105.02582706264222,-161.51289085589246,57.00400000001537
312299.9887,-134.62818971344737,-148.58950207152964,-115.80861317374368,-180.04598510746683,57.00500000000466
312299.9897,-143.07521336162498,-155.2285772499629,-125.08611365528688,-196.83060992386334,57.005999999993946
312299.9907,-149.292515698374,-160.06798415718086,-132.64349797447753,-211.58128868045313,57.007000000041444
312299.9917,-153.12471698758864,-163.04922095473535,-138.2857156851359,-224.02478393232545,57.008000000030734
312299.9927,-154.4589615771136,-164.12986905254797,-141.84029635438867,-233.90098897966604,57.00900000002002
312299.9937,-153.22778039287235,-163.28078125867088,-143.1602844489514,-240.96516249583786,57.01000000000931
312299.9947,-149.4112377349366,-160.48419242935756,-142.12740950112064,-244.9918157485208,57.0109999999986
312299.9957,-143.0384117109189,-155.7331035791692,-138.65555675080122,-245.78040754995547,57.0120000000461
312299.9967,-134.18824925442556,-149.03217238315202,-132.6945507113262,-243.16282117140997,57.01300000003539
312299.9977,-122.98981374147994,-140.40019648110038,-124.2341973055652,-237.01240354581816,57.01400000002468
312299.9987,-109.62190955413467,-129.87411223601464,-113.30845459426648,-227.25415500989064,57.01500000001397
312299.9997,-94.31202852139745,-117.51426349372679,-99.99952412420198,-213.87548266474053,57.01600000000326
312300.0007,-77.33452358253633,-103.41053595802562,-84.4415817164262,-196.93678634796532,57.01699999999255
312300.0017,-59.00788095588616,-87.68881620423878,-66.82380539353382,-176.58104555997465,57.01800000004005
312300.0027,-39.6909388891713,-70.51713201132286,-47.3923159858125,-153.04152820084204,57.01900000002934
312300.0037,-19.77789330648804,-52.11077243740252,-26.45062868113139,-126.64675415917145,57.02000000001863
312300.0047,0.3080581051002323,-32.73567898735802,-4.358225886310228,-97.82192152806986,57.021000000007916
312300.0057,20.122549356437453,-12.709447131476066,18.4730940687962,-67.08613951755281,57.021999999997206
312300.0067,39.20941865242019,7.600619508006846,41.585361029001874,-35.045005080541195,57.0230000000447
312300.0077,57.11160568006608,27.782805433185896,64.48323069615115,-2.3783011759417834,57.02400000003399
312300.0087,73.38346492486392,47.389834501732636,86.64546163303169,30.17712869648565,57.02500000002328
312300.0097,87.60427703257291,65.95124874881566,107.53894105709333,61.848977615805566,57.02600000001257
312300.0107,99.3926219931971,82.98903615745034,126.63495924126046,91.85489104036225,57.02700000000186
312300.0117,108.42115779543526,98.03597401430726,143.42725870636085,119.43076250253807,57.02799999999115
312300.0127,114.4312345531031,110.6559135652765,157.45121734403136,143.86071847900644,57.02900000003865
312300.0137,117.24667621815976,120.46502201865663,168.30337542741302,164.50740159318835,57.03000000002794
312300.0147,116.78598959853642,127.15283609852963,175.66039660177853,180.84102893301045,57.03100000001723
312300.0157,113.07222307799316,130.5018818796589,179.29647341314575,192.46565053795757,57.03200000000652
312300.0167,106.23970389514753,130.40459001213637,179.09815861203185,199.14107091519153,57.03299999999581
312300.0177,96.53694006228959,126.8762911051603,175.07563234462546,200.7990278780593,57.03400000004331
312300.0187,84.32508535271079,120.06321558730161,167.36950768864287,197.55244676297434,57.035000000032596
312300.0197,70.07153412129196,110.24464298620681,156.25243456834335,189.69689712407882,57.036000000021886
312300.0207,54.338433658484156,97.82863874703044,142.12498242102308,177.7037604450849,57.037000000011176
312300.0217,37.76616715485307,83.34116821341703,125.50555783223578,162.2050527506214,57.038000000000466
312300.0227,21.052157083073684,67.40876771328965,107.01443241015362,143.97031172731926,57.038999999989755
312300.0237,4.9256491674825,50.73535785040439,87.35230122232161,123.8764265248895,57.04000000003725
312300.0247,-9.880560400583732,34.07417695524448,67.27414168560334,102.87172963683285,57.04100000002654
312300.0257,-22.660221125623945,18.19616460618683,47.55947231013827,81.93605324350472,57.04200000001583
312300.0267,-32.76409979508383,3.856408269611592,28.98039422714398,62.03874769647569,57.04300000000512
312300.0277,-39.62924366088053,-8.239544480652679,12.269010891028145,44.09684193127451,57.04399999999441
312300.0287,-42.8054125362366,-17.467629507875092,-1.9140590615900643,28.935575442667005,57.04500000004191
312300.0297,-41.97712710131199,-23.313635664419394,-13.008350153564802,17.25343863772225,57.0460000000312
312300.0307,-36.97996292305421,-25.396347157556676,-20.577780432301,9.59362285026301,57.04700000002049
312300.0317,-27.810008066116552,-23.484102053790657,-24.329047081934426,6.323414226292942,57.04800000000978
312300.0327,-14.62578094445815,-17.503808727540022,-24.123117646234093,7.622589280889932,57.04899999999907
312300.0337,2.2576503432605297,-7.5419352602315906,-19.97915831370449,13.481316116818217,57.050000000046566
312300.0347,22.38212708389574,6.162499731913939,-12.07070684628663,23.70747336067591,57.051000000035856
312300.0357,45.166740001187954,23.232391377215574,-0.71438430517005,37.94271218283648,57.052000000025146
312300.0367,69.93391398199701,43.173447596044575,13.648090445173823,55.68604899993458,57.053000000014435
312300.0377,95.93973523430739,65.40010068331502,30.4734027236693,76.32332769639166,57.054000000003725
312300.0387,122.40675456903718,89.26471300109387,49.144148209920615,99.1605633499925,57.054999999993015
312300.0397,148.55735897592334,114.08818966203596,68.99860956809985,123.45899736287035,57.05600000004051
312300.0407,173.6457952632664,139.19008088714853,89.36097407191978,148.46966753283021,57.0570000000298
312300.0417,196.9870539081863,163.9163644554683,109.57019791567573,173.46542431090649,57.05800000001909
312300.0427,217.98106738384982,187.6633325648187,129.00588326604816,197.76859256596956,57.05900000000838
312300.0437,236.13102459059346,209.89634594521522,147.10980428734626,220.77286242370946,57.05999999999767
312300.0447,251.05502368841667,230.1626321348988,163.40207478200358,241.95846094012205,57.06100000004517
312300.0457,262.4907468577923,248.09776065116327,177.49136331922693,260.90017125033535,57.06200000003446
312300.0467,270.293307621276,263.4258899035593,189.078999209277,277.26828834153054,57.06300000002375
312300.0477,274.4268606073347,275.95431495551463,197.95724145362206,290.8230930233677,57.06400000001304
312300.0487,274.9509448648179,285.56322144402907,204.00237210574556,301.40385446033207,57.06500000000233
312300.0497,272.0028305913185,292.19184497371356,207.1635990110998,308.91370966273143,57.06599999999162
312300.0507,265.7773382252699,295.822430462105,207.44899054337262,313.3019964961862,57.067000000039116
312300.0517,256.50568918702146,296.4634737901824,204.90980392547218,314.54572481820577,57.068000000028405
312300.0527,244.4349283376417,294.13370848985335,199.62460404486802,312.63185701843247,57.069000000017695
312300.0537,229.8093364615548,288.8481804572517,191.68450406984982,307.5419416703524,57.070000000006985
312300.0547,212.85504054915504,280.6075476319067,181.18070238658132,299.24041660248105,57.070999999996275
312300.0557,193.76874944133846,269.39146793369787,168.19525800926618,287.6675905431107,57.07200000004377
312300.0567,172.7112151282575,255.15661932766633,152.7957586274531,272.73794946448453,57.07300000003306
312300.0577,149.80566995476858,237.83955380249208,135.03421444275784,254.3440405640546,57.07400000002235
312300.0587,125.14114125555281,217.364244961994,114.95018035443765,232.3657891259331,57.07500000001164
312300.0597,98.78021971237216,193.6538675456858,92.57779144427103,206.68472522776662,57.07600000000093
312300.0607,70.77057489796351,166.64606409487357,67.95611224854333,177.20225925929705,57.07699999999022
312300.0617,41.159285651141474,136.31072284434782,41.14196552596545,143.8608643769288,57.07800000003772
312300.0627,10.008893836983264,102.66912115568668,12.224233202162878,106.66681272785392,57.07900000002701
312300.0637,-22.585997630600648,65.81318556862695,-18.66148193705501,65.71297834241052,57.0800000000163
312300.0647,-56.4827779888782,25.92358406132498,-51.31897815819666,21.200166453261115,57.08100000000559
312300.0657,-91.47667787443122,-16.7146037426965,-85.47946867001423,-26.544543808403198,57.08199999999488
312300.0667,-127.28944940603297,-61.69980166463205,-120.7924970921976,-77.05385262637087,57.083000000042375
312300.0677,-163.56175247349015,-108.50645536321693,-156.82061162301505,-129.71192398358428,57.084000000031665
312300.0687,-199.84992515230698,-156.48298042749198,-193.03845986924918,-183.7527011376779,57.085000000020955
312300.0697,-235.6275924016956,-204.85573706945445,-228.83674048013725,-238.26556543447086,57.086000000010245
312300.0707,-270.2923284454085,-252.73936965863155,-263.5312033553106,-292.20872284018117,57.086999999999534
312300.0717,-303.1773448145468,-299.1535703056231,-296.37663880652104,-344.4303460899001,57.087999999988824
312300.0727,-333.56793698337725,-343.0460351196534,-326.5855481323012,-393.69712824533883,57.08900000003632
312300.0737,-360.7221955258024,-383.32108864401465,-353.350952832533,-438.72952940949756,57.09000000002561
312300.0747,-383.895279229244,-418.87316570634243,-375.8725850814933,-478.24263679756996,57.0910000000149
312300.0757,-402.36636320104327,-448.6240704927638,-393.385514891834,-510.99122442007393,57.09200000000419
312300.0767,-415.46721976009565,-471.56269076284843,-405.1901155392746,-535.8173078569653,57.09299999999348
312300.0777,-422.61126874393665,-486.7856421307862,-410.68215353538795,-551.6982575988991,57.09400000004098
312300.0787,-423.3218517846099,-493.53716500843893,-409.3817175336777,-557.7933762286566,57.09500000003027
312300.0797,-417.2584472387565,-491.24650675953046,-400.9596764273632,-553.4867738898503,57.09600000001956
312300.0807,-404.239553821296,-479.56100453388103,-385.260384404671,-538.4244041094115,57.09700000000885
312300.0817,-384.261036032906,-458.3731488606651,-362.3194328580201,-512.5432554759568,57.09799999999814
312300.0827,-357.50884635816675,-427.8400599960723,-332.3753874018568,-476.09093640499526,57.099000000045635
312300.0837,-324.3652189996477,-388.394049598028,-295.87464242358004,-429.6342367689816,57.100000000034925
312300.0847,-285.40766569136264,-340.7432656327868,-253.4687724715793,-374.0556913532574,57.101000000024214
312300.0857,-241.400390294143,-285.8618186596165,-206.0040530143437,-310.53768873894614,57.102000000013504
312300.0867,-193.2780656557047,-224.9692467997936,-154.50315270994477,-240.53424144405025,57.103000000002794
312300.0877,-142.12226965812707,-159.49967302293513,-100.13935168749245,-165.73112940696657,57.103999999992084
312300.0887,-89.13123975244133,-91.06151539044068,-44.20399858110546,-87.99571557214934,57.10500000003958
312300.0897,-35.5839560643176,-21.38909900100806,11.931736147735153,-9.318274060959109,57.10600000002887
312300.0907,17.20011957433461,47.712042951190014,66.85944224291526,68.25286630095542,57.10700000001816
312300.0917,67.90405911732996,114.42403142584863,119.17876204365932,142.67970825140083,57.10800000000745
312300.0927,115.2574609550818,176.97726293585725,167.54358396186691,212.00362985215708,57.10899999999674
312300.0937,158.07954415770297,233.71025184220872,210.70723040131395,274.4121464596439,57.11000000004424
312300.0947,195.31946978191812,283.1261546093731,247.56473244720632,328.30054093075796,57.11100000003353
312300.0957,226.09211796840432,323.94357175045207,277.19038235139595,372.3257528791733,57.11200000002282
312300.0967,249.70775090018745,355.1394858796715,298.8689500652161,405.4502950156405,57.11300000001211
312300.0977,265.6942800822497,375.98256900692246,312.119232149706,426.97445421535207,57.1140000000014
312300.0987,273.81121467720544,386.0555556022731,316.7089547845819,436.5556059450101,57.11499999999069
312300.0997,274.0547738296942,385.26590121431747,312.6604570033,434.21408758511944,57.116000000038184
312300.1007,266.65407496264095,373.84449754601025,300.247012092755,420.32570184448724,57.117000000027474
312300.1017,252.0587356626729,352.3327611203122,279.98007906787876,395.6015197938688,57.118000000016764
312300.1027,230.91862347944593,321.55892286350297,252.58818714389227,361.05619152219367,57.119000000006054
312300.1037,204.05683283713336,282.6047926867144,218.98852090486525,317.9664241546041,57.11999999999534
312300.1047,172.437242579296,236.76463449883315,180.2525725298159,267.8216322132906,57.12100000004284
312300.1057,137.1281981282631,185.49804774721474,137.56744480804397,212.26899229042954,57.12200000003213
312300.1067,99.2639616830561,130.3789035888307,92.19451522400159,153.05523917895283,57.12300000002142
312300.1077,60.00558156128113,73.04242657581334,45.42720377713755,91.96752820516605,57.12400000001071
312300.1087,20.502753121451963,15.132452662600949,-1.4504716450837543,30.775569610413758,57.125
312300.1097,-18.14191046678406,-41.74925623440873,-47.20300978126472,-28.82296799303516,57.12599999998929
312300.1107,-54.904993816276075,-96.08998494103187,-90.67887762476562,-85.25206640257892,57.12700000003679
312300.1117,-88.86983412835447,-146.50794621092544,-130.84122698211488,-137.10058553307758,57.12800000002608
312300.1127,-119.24884727017633,-191.78800087048015,-166.79309509589177,-183.15806641817028,57.12900000001537
312300.1137,-145.40023951511682,-230.91046735129228,-197.79660977871833,-222.44241846294773,57.13000000000466
312300.1147,-166.83898694953365,-263.0725824097308,-223.28601108055616,-254.21913681138315,57.130999999993946
312300.1157,-183.24220248826762,-287.7024615804595,-242.87456617728432,-278.0120021726969,57.132000000041444
